#        a       HoverH0(a)       dlogHdloga_of_a(a)
   1.0000000E-04   1.0189333E+06   -1.8834935E+00
   1.0046181E-04   1.0101301E+06   -1.8830812E+00
   1.0092575E-04   1.0014048E+06   -1.8826680E+00
   1.0139184E-04   9.9275676E+05   -1.8822537E+00
   1.0186008E-04   9.8418531E+05   -1.8818384E+00
   1.0233048E-04   9.7568974E+05   -1.8814222E+00
   1.0280305E-04   9.6726935E+05   -1.8810049E+00
   1.0327781E-04   9.5892348E+05   -1.8805866E+00
   1.0375475E-04   9.5065146E+05   -1.8801673E+00
   1.0423390E-04   9.4245261E+05   -1.8797469E+00
   1.0471527E-04   9.3432629E+05   -1.8793256E+00
   1.0519885E-04   9.2627184E+05   -1.8789033E+00
   1.0568467E-04   9.1828861E+05   -1.8784799E+00
   1.0617274E-04   9.1037596E+05   -1.8780556E+00
   1.0666305E-04   9.0253326E+05   -1.8776303E+00
   1.0715563E-04   8.9475988E+05   -1.8772039E+00
   1.0765049E-04   8.8705520E+05   -1.8767766E+00
   1.0814763E-04   8.7941860E+05   -1.8763482E+00
   1.0864707E-04   8.7184946E+05   -1.8759189E+00
   1.0914881E-04   8.6434718E+05   -1.8754885E+00
   1.0965287E-04   8.5691115E+05   -1.8750572E+00
   1.1015926E-04   8.4954079E+05   -1.8746249E+00
   1.1066799E-04   8.4223550E+05   -1.8741915E+00
   1.1117906E-04   8.3499470E+05   -1.8737572E+00
   1.1169250E-04   8.2781781E+05   -1.8733219E+00
   1.1220831E-04   8.2070425E+05   -1.8728856E+00
   1.1272650E-04   8.1365346E+05   -1.8724483E+00
   1.1324708E-04   8.0666487E+05   -1.8720100E+00
   1.1377007E-04   7.9973792E+05   -1.8715708E+00
   1.1429547E-04   7.9287207E+05   -1.8711305E+00
   1.1482330E-04   7.8606675E+05   -1.8706893E+00
   1.1535356E-04   7.7932143E+05   -1.8702471E+00
   1.1588628E-04   7.7263557E+05   -1.8698039E+00
   1.1642145E-04   7.6600863E+05   -1.8693597E+00
   1.1695910E-04   7.5944009E+05   -1.8689145E+00
   1.1749923E-04   7.5292942E+05   -1.8684684E+00
   1.1804185E-04   7.4647610E+05   -1.8680213E+00
   1.1858698E-04   7.4007962E+05   -1.8675732E+00
   1.1913463E-04   7.3373946E+05   -1.8671241E+00
   1.1968481E-04   7.2745513E+05   -1.8666741E+00
   1.2023752E-04   7.2122612E+05   -1.8662231E+00
   1.2079279E-04   7.1505193E+05   -1.8657712E+00
   1.2135063E-04   7.0893208E+05   -1.8653182E+00
   1.2191104E-04   7.0286607E+05   -1.8648643E+00
   1.2247403E-04   6.9685343E+05   -1.8644095E+00
   1.2303963E-04   6.9089367E+05   -1.8639537E+00
   1.2360784E-04   6.8498632E+05   -1.8634969E+00
   1.2417868E-04   6.7913091E+05   -1.8630392E+00
   1.2475215E-04   6.7332698E+05   -1.8625805E+00
   1.2532826E-04   6.6757406E+05   -1.8621208E+00
   1.2590704E-04   6.6187169E+05   -1.8616603E+00
   1.2648850E-04   6.5621943E+05   -1.8611987E+00
   1.2707263E-04   6.5061682E+05   -1.8607362E+00
   1.2765947E-04   6.4506342E+05   -1.8602728E+00
   1.2824901E-04   6.3955879E+05   -1.8598084E+00
   1.2884128E-04   6.3410249E+05   -1.8593431E+00
   1.2943628E-04   6.2869410E+05   -1.8588769E+00
   1.3003403E-04   6.2333317E+05   -1.8584097E+00
   1.3063454E-04   6.1801928E+05   -1.8579416E+00
   1.3123783E-04   6.1275202E+05   -1.8574725E+00
   1.3184390E-04   6.0753097E+05   -1.8570025E+00
   1.3245277E-04   6.0235571E+05   -1.8565316E+00
   1.3306445E-04   5.9722583E+05   -1.8560598E+00
   1.3367895E-04   5.9214092E+05   -1.8555870E+00
   1.3429630E-04   5.8710059E+05   -1.8551133E+00
   1.3491649E-04   5.8210444E+05   -1.8546387E+00
   1.3553955E-04   5.7715206E+05   -1.8541632E+00
   1.3616548E-04   5.7224308E+05   -1.8536868E+00
   1.3679431E-04   5.6737709E+05   -1.8532094E+00
   1.3742604E-04   5.6255372E+05   -1.8527312E+00
   1.3806069E-04   5.5777259E+05   -1.8522520E+00
   1.3869827E-04   5.5303331E+05   -1.8517719E+00
   1.3933879E-04   5.4833551E+05   -1.8512910E+00
   1.3998227E-04   5.4367883E+05   -1.8508091E+00
   1.4062872E-04   5.3906289E+05   -1.8503264E+00
   1.4127816E-04   5.3448733E+05   -1.8498427E+00
   1.4193060E-04   5.2995179E+05   -1.8493582E+00
   1.4258605E-04   5.2545591E+05   -1.8488727E+00
   1.4324453E-04   5.2099934E+05   -1.8483864E+00
   1.4390605E-04   5.1658172E+05   -1.8478992E+00
   1.4457062E-04   5.1220272E+05   -1.8474111E+00
   1.4523826E-04   5.0786198E+05   -1.8469222E+00
   1.4590899E-04   5.0355916E+05   -1.8464323E+00
   1.4658281E-04   4.9929392E+05   -1.8459416E+00
   1.4725974E-04   4.9506593E+05   -1.8454501E+00
   1.4793981E-04   4.9087485E+05   -1.8449576E+00
   1.4862301E-04   4.8672036E+05   -1.8444643E+00
   1.4930936E-04   4.8260213E+05   -1.8439702E+00
   1.4999889E-04   4.7851984E+05   -1.8434751E+00
   1.5069160E-04   4.7447316E+05   -1.8429793E+00
   1.5138751E-04   4.7046177E+05   -1.8424825E+00
   1.5208663E-04   4.6648537E+05   -1.8419850E+00
   1.5278899E-04   4.6254364E+05   -1.8414866E+00
   1.5349458E-04   4.5863627E+05   -1.8409873E+00
   1.5420343E-04   4.5476296E+05   -1.8404872E+00
   1.5491556E-04   4.5092340E+05   -1.8399863E+00
   1.5563098E-04   4.4711728E+05   -1.8394845E+00
   1.5634970E-04   4.4334432E+05   -1.8389819E+00
   1.5707174E-04   4.3960422E+05   -1.8384785E+00
   1.5779711E-04   4.3589668E+05   -1.8379743E+00
   1.5852584E-04   4.3222141E+05   -1.8374692E+00
   1.5925792E-04   4.2857813E+05   -1.8369634E+00
   1.5999339E-04   4.2496655E+05   -1.8364567E+00
   1.6073226E-04   4.2138639E+05   -1.8359492E+00
   1.6147454E-04   4.1783737E+05   -1.8354409E+00
   1.6222024E-04   4.1431921E+05   -1.8349318E+00
   1.6296939E-04   4.1083164E+05   -1.8344219E+00
   1.6372200E-04   4.0737438E+05   -1.8339112E+00
   1.6447809E-04   4.0394717E+05   -1.8333997E+00
   1.6523767E-04   4.0054973E+05   -1.8328875E+00
   1.6600075E-04   3.9718181E+05   -1.8323744E+00
   1.6676736E-04   3.9384314E+05   -1.8318606E+00
   1.6753751E-04   3.9053345E+05   -1.8313460E+00
   1.6831122E-04   3.8725250E+05   -1.8308306E+00
   1.6908849E-04   3.8400003E+05   -1.8303145E+00
   1.6986936E-04   3.8077578E+05   -1.8297976E+00
   1.7065384E-04   3.7757950E+05   -1.8292799E+00
   1.7144193E-04   3.7441094E+05   -1.8287615E+00
   1.7223367E-04   3.7126986E+05   -1.8282423E+00
   1.7302906E-04   3.6815602E+05   -1.8277223E+00
   1.7382813E-04   3.6506917E+05   -1.8272017E+00
   1.7463089E-04   3.6200906E+05   -1.8266803E+00
   1.7543735E-04   3.5897548E+05   -1.8261581E+00
   1.7624754E-04   3.5596817E+05   -1.8256352E+00
   1.7706147E-04   3.5298690E+05   -1.8251116E+00
   1.7787916E-04   3.5003145E+05   -1.8245872E+00
   1.7870062E-04   3.4710158E+05   -1.8240622E+00
   1.7952588E-04   3.4419707E+05   -1.8235364E+00
   1.8035495E-04   3.4131769E+05   -1.8230099E+00
   1.8118785E-04   3.3846322E+05   -1.8224827E+00
   1.8202459E-04   3.3563343E+05   -1.8219548E+00
   1.8286520E-04   3.3282812E+05   -1.8214262E+00
   1.8370969E-04   3.3004706E+05   -1.8208969E+00
   1.8455808E-04   3.2729003E+05   -1.8203669E+00
   1.8541039E-04   3.2455683E+05   -1.8198362E+00
   1.8626663E-04   3.2184725E+05   -1.8193048E+00
   1.8712683E-04   3.1916106E+05   -1.8187727E+00
   1.8799100E-04   3.1649807E+05   -1.8182400E+00
   1.8885917E-04   3.1385807E+05   -1.8177066E+00
   1.8973134E-04   3.1124086E+05   -1.8171726E+00
   1.9060754E-04   3.0864623E+05   -1.8166378E+00
   1.9148778E-04   3.0607399E+05   -1.8161024E+00
   1.9237209E-04   3.0352393E+05   -1.8155664E+00
   1.9326049E-04   3.0099586E+05   -1.8150297E+00
   1.9415299E-04   2.9848958E+05   -1.8144924E+00
   1.9504960E-04   2.9600491E+05   -1.8139544E+00
   1.9595036E-04   2.9354165E+05   -1.8134158E+00
   1.9685528E-04   2.9109961E+05   -1.8128766E+00
   1.9776438E-04   2.8867861E+05   -1.8123367E+00
   1.9867768E-04   2.8627845E+05   -1.8117962E+00
   1.9959519E-04   2.8389895E+05   -1.8112552E+00
   2.0051694E-04   2.8153994E+05   -1.8107134E+00
   2.0144295E-04   2.7920122E+05   -1.8101711E+00
   2.0237324E-04   2.7688263E+05   -1.8096282E+00
   2.0330782E-04   2.7458397E+05   -1.8090847E+00
   2.0424671E-04   2.7230508E+05   -1.8085406E+00
   2.0518995E-04   2.7004578E+05   -1.8079959E+00
   2.0613754E-04   2.6780590E+05   -1.8074506E+00
   2.0708950E-04   2.6558527E+05   -1.8069048E+00
   2.0804586E-04   2.6338371E+05   -1.8063583E+00
   2.0900664E-04   2.6120106E+05   -1.8058113E+00
   2.0997185E-04   2.5903715E+05   -1.8052638E+00
   2.1094152E-04   2.5689182E+05   -1.8047157E+00
   2.1191567E-04   2.5476489E+05   -1.8041670E+00
   2.1289432E-04   2.5265622E+05   -1.8036178E+00
   2.1387749E-04   2.5056563E+05   -1.8030680E+00
   2.1486520E-04   2.4849297E+05   -1.8025177E+00
   2.1585747E-04   2.4643808E+05   -1.8019669E+00
   2.1685432E-04   2.4440081E+05   -1.8014155E+00
   2.1785578E-04   2.4238099E+05   -1.8008636E+00
   2.1886186E-04   2.4037848E+05   -1.8003112E+00
   2.1987259E-04   2.3839312E+05   -1.7997583E+00
   2.2088798E-04   2.3642475E+05   -1.7992049E+00
   2.2190807E-04   2.3447324E+05   -1.7986510E+00
   2.2293286E-04   2.3253843E+05   -1.7980965E+00
   2.2396239E-04   2.3062018E+05   -1.7975416E+00
   2.2499667E-04   2.2871834E+05   -1.7969862E+00
   2.2603573E-04   2.2683276E+05   -1.7964303E+00
   2.2707958E-04   2.2496330E+05   -1.7958740E+00
   2.2812826E-04   2.2310982E+05   -1.7953171E+00
   2.2918178E-04   2.2127218E+05   -1.7947598E+00
   2.3024017E-04   2.1945023E+05   -1.7942021E+00
   2.3130344E-04   2.1764385E+05   -1.7936439E+00
   2.3237162E-04   2.1585290E+05   -1.7930852E+00
   2.3344474E-04   2.1407723E+05   -1.7925261E+00
   2.3452281E-04   2.1231672E+05   -1.7919666E+00
   2.3560586E-04   2.1057123E+05   -1.7914066E+00
   2.3669392E-04   2.0884062E+05   -1.7908462E+00
   2.3778699E-04   2.0712478E+05   -1.7902853E+00
   2.3888512E-04   2.0542356E+05   -1.7897241E+00
   2.3998831E-04   2.0373685E+05   -1.7891624E+00
   2.4109661E-04   2.0206450E+05   -1.7886004E+00
   2.4221001E-04   2.0040641E+05   -1.7880379E+00
   2.4332857E-04   1.9876243E+05   -1.7874751E+00
   2.4445228E-04   1.9713245E+05   -1.7869118E+00
   2.4558119E-04   1.9551635E+05   -1.7863482E+00
   2.4671531E-04   1.9391400E+05   -1.7857842E+00
   2.4785467E-04   1.9232528E+05   -1.7852198E+00
   2.4899928E-04   1.9075007E+05   -1.7846550E+00
   2.5014919E-04   1.8918826E+05   -1.7840899E+00
   2.5130440E-04   1.8763972E+05   -1.7835245E+00
   2.5246495E-04   1.8610434E+05   -1.7829586E+00
   2.5363086E-04   1.8458201E+05   -1.7823925E+00
   2.5480216E-04   1.8307261E+05   -1.7818260E+00
   2.5597886E-04   1.8157603E+05   -1.7812592E+00
   2.5716100E-04   1.8009215E+05   -1.7806920E+00
   2.5834859E-04   1.7862086E+05   -1.7801245E+00
   2.5954168E-04   1.7716206E+05   -1.7795567E+00
   2.6074027E-04   1.7571563E+05   -1.7789886E+00
   2.6194439E-04   1.7428146E+05   -1.7784202E+00
   2.6315408E-04   1.7285946E+05   -1.7778515E+00
   2.6436935E-04   1.7144951E+05   -1.7772825E+00
   2.6559024E-04   1.7005150E+05   -1.7767132E+00
   2.6681676E-04   1.6866533E+05   -1.7761436E+00
   2.6804895E-04   1.6729091E+05   -1.7755738E+00
   2.6928683E-04   1.6592812E+05   -1.7750037E+00
   2.7053042E-04   1.6457686E+05   -1.7744333E+00
   2.7177976E-04   1.6323704E+05   -1.7738627E+00
   2.7303487E-04   1.6190855E+05   -1.7732918E+00
   2.7429577E-04   1.6059129E+05   -1.7727207E+00
   2.7556250E-04   1.5928517E+05   -1.7721493E+00
   2.7683507E-04   1.5799009E+05   -1.7715777E+00
   2.7811353E-04   1.5670595E+05   -1.7710059E+00
   2.7939788E-04   1.5543266E+05   -1.7704338E+00
   2.8068817E-04   1.5417012E+05   -1.7698615E+00
   2.8198442E-04   1.5291824E+05   -1.7692891E+00
   2.8328665E-04   1.5167692E+05   -1.7687164E+00
   2.8459490E-04   1.5044608E+05   -1.7681435E+00
   2.8590919E-04   1.4922562E+05   -1.7675704E+00
   2.8722955E-04   1.4801545E+05   -1.7669972E+00
   2.8855600E-04   1.4681549E+05   -1.7664237E+00
   2.8988859E-04   1.4562564E+05   -1.7658501E+00
   2.9122732E-04   1.4444581E+05   -1.7652763E+00
   2.9257224E-04   1.4327592E+05   -1.7647024E+00
   2.9392337E-04   1.4211588E+05   -1.7641283E+00
   2.9528074E-04   1.4096560E+05   -1.7635540E+00
   2.9664438E-04   1.3982501E+05   -1.7629796E+00
   2.9801431E-04   1.3869401E+05   -1.7624051E+00
   2.9939057E-04   1.3757253E+05   -1.7618304E+00
   3.0077319E-04   1.3646047E+05   -1.7612556E+00
   3.0216219E-04   1.3535776E+05   -1.7606807E+00
   3.0355761E-04   1.3426432E+05   -1.7601057E+00
   3.0495947E-04   1.3318006E+05   -1.7595306E+00
   3.0636780E-04   1.3210491E+05   -1.7589553E+00
   3.0778264E-04   1.3103879E+05   -1.7583800E+00
   3.0920401E-04   1.2998162E+05   -1.7578046E+00
   3.1063195E-04   1.2893331E+05   -1.7572291E+00
   3.1206648E-04   1.2789380E+05   -1.7566535E+00
   3.1350764E-04   1.2686301E+05   -1.7560779E+00
   3.1495545E-04   1.2584086E+05   -1.7555021E+00
   3.1640994E-04   1.2482728E+05   -1.7549264E+00
   3.1787116E-04   1.2382218E+05   -1.7543505E+00
   3.1933912E-04   1.2282551E+05   -1.7537747E+00
   3.2081386E-04   1.2183718E+05   -1.7531988E+00
   3.2229541E-04   1.2085713E+05   -1.7526228E+00
   3.2378381E-04   1.1988528E+05   -1.7520468E+00
   3.2527908E-04   1.1892156E+05   -1.7514708E+00
   3.2678125E-04   1.1796589E+05   -1.7508948E+00
   3.2829036E-04   1.1701822E+05   -1.7503188E+00
   3.2980644E-04   1.1607847E+05   -1.7497428E+00
   3.3132952E-04   1.1514658E+05   -1.7491667E+00
   3.3285963E-04   1.1422246E+05   -1.7485907E+00
   3.3439681E-04   1.1330607E+05   -1.7480147E+00
   3.3594109E-04   1.1239732E+05   -1.7474387E+00
   3.3749250E-04   1.1149616E+05   -1.7468627E+00
   3.3905108E-04   1.1060252E+05   -1.7462868E+00
   3.4061685E-04   1.0971633E+05   -1.7457109E+00
   3.4218986E-04   1.0883753E+05   -1.7451351E+00
   3.4377013E-04   1.0796606E+05   -1.7445593E+00
   3.4535769E-04   1.0710185E+05   -1.7439836E+00
   3.4695259E-04   1.0624483E+05   -1.7434079E+00
   3.4855485E-04   1.0539496E+05   -1.7428323E+00
   3.5016452E-04   1.0455216E+05   -1.7422568E+00
   3.5178161E-04   1.0371637E+05   -1.7416813E+00
   3.5340618E-04   1.0288754E+05   -1.7411060E+00
   3.5503824E-04   1.0206560E+05   -1.7405307E+00
   3.5667785E-04   1.0125050E+05   -1.7399555E+00
   3.5832502E-04   1.0044218E+05   -1.7393805E+00
   3.5997981E-04   9.9640565E+04   -1.7388055E+00
   3.6164223E-04   9.8845615E+04   -1.7382307E+00
   3.6331233E-04   9.8057267E+04   -1.7376560E+00
   3.6499015E-04   9.7275463E+04   -1.7370814E+00
   3.6667571E-04   9.6500148E+04   -1.7365070E+00
   3.6836906E-04   9.5731267E+04   -1.7359327E+00
   3.7007022E-04   9.4968762E+04   -1.7353585E+00
   3.7177925E-04   9.4212580E+04   -1.7347845E+00
   3.7349616E-04   9.3462666E+04   -1.7342107E+00
   3.7522101E-04   9.2718967E+04   -1.7336370E+00
   3.7695382E-04   9.1981428E+04   -1.7330635E+00
   3.7869463E-04   9.1249998E+04   -1.7324902E+00
   3.8044348E-04   9.0524622E+04   -1.7319171E+00
   3.8220041E-04   8.9805251E+04   -1.7313441E+00
   3.8396545E-04   8.9091831E+04   -1.7307714E+00
   3.8573864E-04   8.8384311E+04   -1.7301988E+00
   3.8752002E-04   8.7682642E+04   -1.7296265E+00
   3.8930963E-04   8.6986772E+04   -1.7290544E+00
   3.9110750E-04   8.6296652E+04   -1.7284824E+00
   3.9291368E-04   8.5612233E+04   -1.7279108E+00
   3.9472820E-04   8.4933466E+04   -1.7273393E+00
   3.9655109E-04   8.4260302E+04   -1.7267681E+00
   3.9838241E-04   8.3592693E+04   -1.7261971E+00
   4.0022218E-04   8.2930592E+04   -1.7256264E+00
   4.0207045E-04   8.2273952E+04   -1.7250560E+00
   4.0392725E-04   8.1622725E+04   -1.7244858E+00
   4.0579263E-04   8.0976866E+04   -1.7239158E+00
   4.0766662E-04   8.0336329E+04   -1.7233462E+00
   4.0954927E-04   7.9701067E+04   -1.7227768E+00
   4.1144061E-04   7.9071035E+04   -1.7222077E+00
   4.1334068E-04   7.8446190E+04   -1.7216389E+00
   4.1524953E-04   7.7826487E+04   -1.7210704E+00
   4.1716720E-04   7.7211881E+04   -1.7205022E+00
   4.1909372E-04   7.6602329E+04   -1.7199343E+00
   4.2102914E-04   7.5997788E+04   -1.7193667E+00
   4.2297350E-04   7.5398215E+04   -1.7187994E+00
   4.2492683E-04   7.4803568E+04   -1.7182325E+00
   4.2688919E-04   7.4213805E+04   -1.7176659E+00
   4.2886061E-04   7.3628883E+04   -1.7170996E+00
   4.3084113E-04   7.3048762E+04   -1.7165337E+00
   4.3283080E-04   7.2473401E+04   -1.7159681E+00
   4.3482966E-04   7.1902759E+04   -1.7154029E+00
   4.3683775E-04   7.1336796E+04   -1.7148380E+00
   4.3885511E-04   7.0775472E+04   -1.7142735E+00
   4.4088179E-04   7.0218747E+04   -1.7137094E+00
   4.4291783E-04   6.9666582E+04   -1.7131456E+00
   4.4496327E-04   6.9118939E+04   -1.7125822E+00
   4.4701816E-04   6.8575779E+04   -1.7120192E+00
   4.4908253E-04   6.8037063E+04   -1.7114567E+00
   4.5115644E-04   6.7502755E+04   -1.7108945E+00
   4.5323993E-04   6.6972816E+04   -1.7103327E+00
   4.5533304E-04   6.6447209E+04   -1.7097713E+00
   4.5743582E-04   6.5925898E+04   -1.7092103E+00
   4.5954830E-04   6.5408846E+04   -1.7086498E+00
   4.6167054E-04   6.4896016E+04   -1.7080896E+00
   4.6380259E-04   6.4387373E+04   -1.7075300E+00
   4.6594448E-04   6.3882882E+04   -1.7069707E+00
   4.6809626E-04   6.3382506E+04   -1.7064119E+00
   4.7025797E-04   6.2886212E+04   -1.7058535E+00
   4.7242967E-04   6.2393964E+04   -1.7052956E+00
   4.7461140E-04   6.1905729E+04   -1.7047382E+00
   4.7680321E-04   6.1421471E+04   -1.7041812E+00
   4.7900514E-04   6.0941158E+04   -1.7036247E+00
   4.8121723E-04   6.0464757E+04   -1.7030686E+00
   4.8343954E-04   5.9992233E+04   -1.7025130E+00
   4.8567212E-04   5.9523554E+04   -1.7019580E+00
   4.8791500E-04   5.9058687E+04   -1.7014034E+00
   4.9016825E-04   5.8597601E+04   -1.7008493E+00
   4.9243189E-04   5.8140262E+04   -1.7002957E+00
   4.9470600E-04   5.7686640E+04   -1.6997426E+00
   4.9699060E-04   5.7236704E+04   -1.6991900E+00
   4.9928575E-04   5.6790421E+04   -1.6986380E+00
   5.0159151E-04   5.6347761E+04   -1.6980864E+00
   5.0390791E-04   5.5908693E+04   -1.6975354E+00
   5.0623501E-04   5.5473188E+04   -1.6969849E+00
   5.0857286E-04   5.5041214E+04   -1.6964350E+00
   5.1092150E-04   5.4612743E+04   -1.6958856E+00
   5.1328099E-04   5.4187744E+04   -1.6953367E+00
   5.1565137E-04   5.3766188E+04   -1.6947884E+00
   5.1803270E-04   5.3348047E+04   -1.6942407E+00
   5.2042503E-04   5.2933291E+04   -1.6936935E+00
   5.2282841E-04   5.2521892E+04   -1.6931469E+00
   5.2524289E-04   5.2113822E+04   -1.6926008E+00
   5.2766851E-04   5.1709052E+04   -1.6920553E+00
   5.3010534E-04   5.1307554E+04   -1.6915104E+00
   5.3255342E-04   5.0909302E+04   -1.6909661E+00
   5.3501281E-04   5.0514268E+04   -1.6904224E+00
   5.3748356E-04   5.0122425E+04   -1.6898793E+00
   5.3996571E-04   4.9733745E+04   -1.6893368E+00
   5.4245933E-04   4.9348203E+04   -1.6887948E+00
   5.4496446E-04   4.8965772E+04   -1.6882535E+00
   5.4748117E-04   4.8586426E+04   -1.6877128E+00
   5.5000949E-04   4.8210139E+04   -1.6871728E+00
   5.5254949E-04   4.7836884E+04   -1.6866333E+00
   5.5510123E-04   4.7466638E+04   -1.6860945E+00
   5.5766474E-04   4.7099374E+04   -1.6855563E+00
   5.6024010E-04   4.6735067E+04   -1.6850188E+00
   5.6282734E-04   4.6373693E+04   -1.6844819E+00
   5.6542654E-04   4.6015228E+04   -1.6839456E+00
   5.6803774E-04   4.5659645E+04   -1.6834100E+00
   5.7066099E-04   4.5306923E+04   -1.6828750E+00
   5.7329637E-04   4.4957035E+04   -1.6823407E+00
   5.7594391E-04   4.4609960E+04   -1.6818071E+00
   5.7860368E-04   4.4265673E+04   -1.6812741E+00
   5.8127573E-04   4.3924151E+04   -1.6807419E+00
   5.8396012E-04   4.3585370E+04   -1.6802102E+00
   5.8665691E-04   4.3249309E+04   -1.6796793E+00
   5.8936616E-04   4.2915943E+04   -1.6791491E+00
   5.9208791E-04   4.2585251E+04   -1.6786195E+00
   5.9482223E-04   4.2257211E+04   -1.6780907E+00
   5.9756919E-04   4.1931799E+04   -1.6775625E+00
   6.0032882E-04   4.1608994E+04   -1.6770351E+00
   6.0310120E-04   4.1288775E+04   -1.6765083E+00
   6.0588639E-04   4.0971119E+04   -1.6759823E+00
   6.0868443E-04   4.0656006E+04   -1.6754569E+00
   6.1149540E-04   4.0343414E+04   -1.6749323E+00
   6.1431935E-04   4.0033322E+04   -1.6744085E+00
   6.1715634E-04   3.9725710E+04   -1.6738853E+00
   6.2000644E-04   3.9420556E+04   -1.6733629E+00
   6.2286969E-04   3.9117840E+04   -1.6728412E+00
