#        a       HoverH0(a)       dlogHdloga_of_a(a)
   1.0000000E-04   1.0902458E+06   -1.8330326E+00
   1.0046181E-04   1.0810780E+06   -1.8325198E+00
   1.0092575E-04   1.0719898E+06   -1.8320062E+00
   1.0139184E-04   1.0629806E+06   -1.8314919E+00
   1.0186008E-04   1.0540496E+06   -1.8309767E+00
   1.0233048E-04   1.0451961E+06   -1.8304608E+00
   1.0280305E-04   1.0364194E+06   -1.8299442E+00
   1.0327781E-04   1.0277189E+06   -1.8294267E+00
   1.0375475E-04   1.0190938E+06   -1.8289085E+00
   1.0423390E-04   1.0105435E+06   -1.8283896E+00
   1.0471527E-04   1.0020674E+06   -1.8278699E+00
   1.0519885E-04   9.9366478E+05   -1.8273494E+00
   1.0568467E-04   9.8533495E+05   -1.8268283E+00
   1.0617274E-04   9.7707731E+05   -1.8263063E+00
   1.0666305E-04   9.6889119E+05   -1.8257837E+00
   1.0715563E-04   9.6077598E+05   -1.8252603E+00
   1.0765049E-04   9.5273104E+05   -1.8247362E+00
   1.0814763E-04   9.4475575E+05   -1.8242113E+00
   1.0864707E-04   9.3684949E+05   -1.8236858E+00
   1.0914881E-04   9.2901164E+05   -1.8231595E+00
   1.0965287E-04   9.2124159E+05   -1.8226325E+00
   1.1015926E-04   9.1353876E+05   -1.8221048E+00
   1.1066799E-04   9.0590253E+05   -1.8215764E+00
   1.1117906E-04   8.9833232E+05   -1.8210474E+00
   1.1169250E-04   8.9082755E+05   -1.8205176E+00
   1.1220831E-04   8.8338763E+05   -1.8199871E+00
   1.1272650E-04   8.7601199E+05   -1.8194560E+00
   1.1324708E-04   8.6870005E+05   -1.8189241E+00
   1.1377007E-04   8.6145126E+05   -1.8183916E+00
   1.1429547E-04   8.5426506E+05   -1.8178584E+00
   1.1482330E-04   8.4714089E+05   -1.8173246E+00
   1.1535356E-04   8.4007819E+05   -1.8167901E+00
   1.1588628E-04   8.3307643E+05   -1.8162549E+00
   1.1642145E-04   8.2613507E+05   -1.8157191E+00
   1.1695910E-04   8.1925357E+05   -1.8151826E+00
   1.1749923E-04   8.1243139E+05   -1.8146455E+00
   1.1804185E-04   8.0566802E+05   -1.8141077E+00
   1.1858698E-04   7.9896294E+05   -1.8135693E+00
   1.1913463E-04   7.9231563E+05   -1.8130303E+00
   1.1968481E-04   7.8572557E+05   -1.8124906E+00
   1.2023752E-04   7.7919226E+05   -1.8119504E+00
   1.2079279E-04   7.7271521E+05   -1.8114095E+00
   1.2135063E-04   7.6629390E+05   -1.8108680E+00
   1.2191104E-04   7.5992786E+05   -1.8103259E+00
   1.2247403E-04   7.5361658E+05   -1.8097831E+00
   1.2303963E-04   7.4735959E+05   -1.8092398E+00
   1.2360784E-04   7.4115641E+05   -1.8086959E+00
   1.2417868E-04   7.3500655E+05   -1.8081514E+00
   1.2475215E-04   7.2890956E+05   -1.8076063E+00
   1.2532826E-04   7.2286495E+05   -1.8070607E+00
   1.2590704E-04   7.1687228E+05   -1.8065144E+00
   1.2648850E-04   7.1093107E+05   -1.8059676E+00
   1.2707263E-04   7.0504088E+05   -1.8054203E+00
   1.2765947E-04   6.9920126E+05   -1.8048723E+00
   1.2824901E-04   6.9341175E+05   -1.8043239E+00
   1.2884128E-04   6.8767193E+05   -1.8037748E+00
   1.2943628E-04   6.8198134E+05   -1.8032253E+00
   1.3003403E-04   6.7633956E+05   -1.8026751E+00
   1.3063454E-04   6.7074615E+05   -1.8021245E+00
   1.3123783E-04   6.6520068E+05   -1.8015733E+00
   1.3184390E-04   6.5970274E+05   -1.8010216E+00
   1.3245277E-04   6.5425190E+05   -1.8004694E+00
   1.3306445E-04   6.4884776E+05   -1.7999166E+00
   1.3367895E-04   6.4348989E+05   -1.7993634E+00
   1.3429630E-04   6.3817789E+05   -1.7988096E+00
   1.3491649E-04   6.3291136E+05   -1.7982554E+00
   1.3553955E-04   6.2768989E+05   -1.7977007E+00
   1.3616548E-04   6.2251309E+05   -1.7971454E+00
   1.3679431E-04   6.1738057E+05   -1.7965897E+00
   1.3742604E-04   6.1229193E+05   -1.7960335E+00
   1.3806069E-04   6.0724679E+05   -1.7954769E+00
   1.3869827E-04   6.0224477E+05   -1.7949197E+00
   1.3933879E-04   5.9728548E+05   -1.7943621E+00
   1.3998227E-04   5.9236856E+05   -1.7938041E+00
   1.4062872E-04   5.8749362E+05   -1.7932456E+00
   1.4127816E-04   5.8266030E+05   -1.7926866E+00
   1.4193060E-04   5.7786823E+05   -1.7921273E+00
   1.4258605E-04   5.7311706E+05   -1.7915674E+00
   1.4324453E-04   5.6840641E+05   -1.7910072E+00
   1.4390605E-04   5.6373594E+05   -1.7904465E+00
   1.4457062E-04   5.5910528E+05   -1.7898854E+00
   1.4523826E-04   5.5451411E+05   -1.7893239E+00
   1.4590899E-04   5.4996205E+05   -1.7887620E+00
   1.4658281E-04   5.4544878E+05   -1.7881997E+00
   1.4725974E-04   5.4097394E+05   -1.7876370E+00
   1.4793981E-04   5.3653721E+05   -1.7870739E+00
   1.4862301E-04   5.3213825E+05   -1.7865104E+00
   1.4930936E-04   5.2777672E+05   -1.7859466E+00
   1.4999889E-04   5.2345230E+05   -1.7853823E+00
   1.5069160E-04   5.1916467E+05   -1.7848177E+00
   1.5138751E-04   5.1491349E+05   -1.7842528E+00
   1.5208663E-04   5.1069846E+05   -1.7836874E+00
   1.5278899E-04   5.0651925E+05   -1.7831218E+00
   1.5349458E-04   5.0237555E+05   -1.7825557E+00
   1.5420343E-04   4.9826705E+05   -1.7819894E+00
   1.5491556E-04   4.9419343E+05   -1.7814227E+00
   1.5563098E-04   4.9015441E+05   -1.7808557E+00
   1.5634970E-04   4.8614966E+05   -1.7802883E+00
   1.5707174E-04   4.8217889E+05   -1.7797207E+00
   1.5779711E-04   4.7824181E+05   -1.7791527E+00
   1.5852584E-04   4.7433812E+05   -1.7785844E+00
   1.5925792E-04   4.7046752E+05   -1.7780158E+00
   1.5999339E-04   4.6662973E+05   -1.7774469E+00
   1.6073226E-04   4.6282446E+05   -1.7768778E+00
   1.6147454E-04   4.5905142E+05   -1.7763083E+00
   1.6222024E-04   4.5531034E+05   -1.7757386E+00
   1.6296939E-04   4.5160093E+05   -1.7751686E+00
   1.6372200E-04   4.4792292E+05   -1.7745984E+00
   1.6447809E-04   4.4427603E+05   -1.7740279E+00
   1.6523767E-04   4.4066000E+05   -1.7734571E+00
   1.6600075E-04   4.3707454E+05   -1.7728861E+00
   1.6676736E-04   4.3351940E+05   -1.7723148E+00
   1.6753751E-04   4.2999431E+05   -1.7717433E+00
   1.6831122E-04   4.2649900E+05   -1.7711716E+00
   1.6908849E-04   4.2303322E+05   -1.7705997E+00
   1.6986936E-04   4.1959671E+05   -1.7700275E+00
   1.7065384E-04   4.1618921E+05   -1.7694552E+00
   1.7144193E-04   4.1281048E+05   -1.7688826E+00
   1.7223367E-04   4.0946025E+05   -1.7683098E+00
   1.7302906E-04   4.0613829E+05   -1.7677368E+00
   1.7382813E-04   4.0284434E+05   -1.7671637E+00
   1.7463089E-04   3.9957816E+05   -1.7665903E+00
   1.7543735E-04   3.9633951E+05   -1.7660168E+00
   1.7624754E-04   3.9312815E+05   -1.7654431E+00
   1.7706147E-04   3.8994384E+05   -1.7648693E+00
   1.7787916E-04   3.8678635E+05   -1.7642953E+00
   1.7870062E-04   3.8365544E+05   -1.7637211E+00
   1.7952588E-04   3.8055087E+05   -1.7631468E+00
   1.8035495E-04   3.7747243E+05   -1.7625724E+00
   1.8118785E-04   3.7441989E+05   -1.7619978E+00
   1.8202459E-04   3.7139301E+05   -1.7614231E+00
   1.8286520E-04   3.6839157E+05   -1.7608483E+00
   1.8370969E-04   3.6541537E+05   -1.7602734E+00
   1.8455808E-04   3.6246416E+05   -1.7596983E+00
   1.8541039E-04   3.5953775E+05   -1.7591232E+00
   1.8626663E-04   3.5663590E+05   -1.7585479E+00
   1.8712683E-04   3.5375842E+05   -1.7579726E+00
   1.8799100E-04   3.5090508E+05   -1.7573971E+00
   1.8885917E-04   3.4807568E+05   -1.7568216E+00
   1.8973134E-04   3.4527001E+05   -1.7562461E+00
   1.9060754E-04   3.4248786E+05   -1.7556704E+00
   1.9148778E-04   3.3972903E+05   -1.7550947E+00
   1.9237209E-04   3.3699332E+05   -1.7545190E+00
   1.9326049E-04   3.3428052E+05   -1.7539432E+00
   1.9415299E-04   3.3159044E+05   -1.7533673E+00
   1.9504960E-04   3.2892289E+05   -1.7527915E+00
   1.9595036E-04   3.2627765E+05   -1.7522155E+00
   1.9685528E-04   3.2365456E+05   -1.7516396E+00
   1.9776438E-04   3.2105340E+05   -1.7510637E+00
   1.9867768E-04   3.1847399E+05   -1.7504877E+00
   1.9959519E-04   3.1591614E+05   -1.7499117E+00
   2.0051694E-04   3.1337967E+05   -1.7493358E+00
   2.0144295E-04   3.1086439E+05   -1.7487598E+00
   2.0237324E-04   3.0837011E+05   -1.7481838E+00
   2.0330782E-04   3.0589666E+05   -1.7476079E+00
   2.0424671E-04   3.0344386E+05   -1.7470320E+00
   2.0518995E-04   3.0101152E+05   -1.7464561E+00
   2.0613754E-04   2.9859947E+05   -1.7458803E+00
   2.0708950E-04   2.9620753E+05   -1.7453045E+00
   2.0804586E-04   2.9383554E+05   -1.7447288E+00
   2.0900664E-04   2.9148331E+05   -1.7441531E+00
   2.0997185E-04   2.8915068E+05   -1.7435774E+00
   2.1094152E-04   2.8683748E+05   -1.7430019E+00
   2.1191567E-04   2.8454354E+05   -1.7424264E+00
   2.1289432E-04   2.8226869E+05   -1.7418510E+00
   2.1387749E-04   2.8001277E+05   -1.7412757E+00
   2.1486520E-04   2.7777562E+05   -1.7407005E+00
   2.1585747E-04   2.7555707E+05   -1.7401253E+00
   2.1685432E-04   2.7335696E+05   -1.7395503E+00
   2.1785578E-04   2.7117514E+05   -1.7389754E+00
   2.1886186E-04   2.6901144E+05   -1.7384006E+00
   2.1987259E-04   2.6686572E+05   -1.7378259E+00
   2.2088798E-04   2.6473781E+05   -1.7372514E+00
   2.2190807E-04   2.6262756E+05   -1.7366770E+00
   2.2293286E-04   2.6053483E+05   -1.7361027E+00
   2.2396239E-04   2.5845945E+05   -1.7355286E+00
   2.2499667E-04   2.5640129E+05   -1.7349546E+00
   2.2603573E-04   2.5436018E+05   -1.7343808E+00
   2.2707958E-04   2.5233600E+05   -1.7338072E+00
   2.2812826E-04   2.5032858E+05   -1.7332337E+00
   2.2918178E-04   2.4833779E+05   -1.7326604E+00
   2.3024017E-04   2.4636348E+05   -1.7320873E+00
   2.3130344E-04   2.4440551E+05   -1.7315143E+00
   2.3237162E-04   2.4246374E+05   -1.7309416E+00
   2.3344474E-04   2.4053803E+05   -1.7303691E+00
   2.3452281E-04   2.3862825E+05   -1.7297968E+00
   2.3560586E-04   2.3673426E+05   -1.7292246E+00
   2.3669392E-04   2.3485592E+05   -1.7286528E+00
   2.3778699E-04   2.3299309E+05   -1.7280811E+00
   2.3888512E-04   2.3114565E+05   -1.7275096E+00
   2.3998831E-04   2.2931346E+05   -1.7269384E+00
   2.4109661E-04   2.2749639E+05   -1.7263675E+00
   2.4221001E-04   2.2569432E+05   -1.7257968E+00
   2.4332857E-04   2.2390710E+05   -1.7252263E+00
   2.4445228E-04   2.2213463E+05   -1.7246561E+00
   2.4558119E-04   2.2037676E+05   -1.7240862E+00
   2.4671531E-04   2.1863338E+05   -1.7235165E+00
   2.4785467E-04   2.1690436E+05   -1.7229472E+00
   2.4899928E-04   2.1518958E+05   -1.7223781E+00
   2.5014919E-04   2.1348891E+05   -1.7218093E+00
   2.5130440E-04   2.1180224E+05   -1.7212407E+00
   2.5246495E-04   2.1012945E+05   -1.7206725E+00
   2.5363086E-04   2.0847041E+05   -1.7201046E+00
   2.5480216E-04   2.0682501E+05   -1.7195370E+00
   2.5597886E-04   2.0519314E+05   -1.7189698E+00
   2.5716100E-04   2.0357467E+05   -1.7184028E+00
   2.5834859E-04   2.0196949E+05   -1.7178362E+00
   2.5954168E-04   2.0037750E+05   -1.7172699E+00
   2.6074027E-04   1.9879857E+05   -1.7167040E+00
   2.6194439E-04   1.9723260E+05   -1.7161384E+00
   2.6315408E-04   1.9567947E+05   -1.7155731E+00
   2.6436935E-04   1.9413908E+05   -1.7150082E+00
   2.6559024E-04   1.9261132E+05   -1.7144437E+00
   2.6681676E-04   1.9109608E+05   -1.7138796E+00
   2.6804895E-04   1.8959325E+05   -1.7133158E+00
   2.6928683E-04   1.8810272E+05   -1.7127524E+00
   2.7053042E-04   1.8662440E+05   -1.7121894E+00
   2.7177976E-04   1.8515818E+05   -1.7116268E+00
   2.7303487E-04   1.8370395E+05   -1.7110645E+00
   2.7429577E-04   1.8226162E+05   -1.7105027E+00
   2.7556250E-04   1.8083107E+05   -1.7099413E+00
   2.7683507E-04   1.7941222E+05   -1.7093803E+00
   2.7811353E-04   1.7800497E+05   -1.7088197E+00
   2.7939788E-04   1.7660920E+05   -1.7082596E+00
   2.8068817E-04   1.7522484E+05   -1.7076999E+00
   2.8198442E-04   1.7385177E+05   -1.7071406E+00
   2.8328665E-04   1.7248990E+05   -1.7065817E+00
   2.8459490E-04   1.7113915E+05   -1.7060233E+00
   2.8590919E-04   1.6979941E+05   -1.7054654E+00
   2.8722955E-04   1.6847059E+05   -1.7049079E+00
   2.8855600E-04   1.6715260E+05   -1.7043509E+00
   2.8988859E-04   1.6584534E+05   -1.7037943E+00
   2.9122732E-04   1.6454873E+05   -1.7032382E+00
   2.9257224E-04   1.6326268E+05   -1.7026826E+00
   2.9392337E-04   1.6198709E+05   -1.7021275E+00
   2.9528074E-04   1.6072188E+05   -1.7015729E+00
   2.9664438E-04   1.5946696E+05   -1.7010187E+00
   2.9801431E-04   1.5822224E+05   -1.7004651E+00
   2.9939057E-04   1.5698764E+05   -1.6999120E+00
   3.0077319E-04   1.5576306E+05   -1.6993593E+00
   3.0216219E-04   1.5454843E+05   -1.6988072E+00
   3.0355761E-04   1.5334367E+05   -1.6982556E+00
   3.0495947E-04   1.5214868E+05   -1.6977046E+00
   3.0636780E-04   1.5096339E+05   -1.6971540E+00
   3.0778264E-04   1.4978771E+05   -1.6966040E+00
   3.0920401E-04   1.4862156E+05   -1.6960546E+00
   3.1063195E-04   1.4746487E+05   -1.6955057E+00
   3.1206648E-04   1.4631754E+05   -1.6949573E+00
   3.1350764E-04   1.4517952E+05   -1.6944095E+00
   3.1495545E-04   1.4405070E+05   -1.6938623E+00
   3.1640994E-04   1.4293102E+05   -1.6933156E+00
   3.1787116E-04   1.4182041E+05   -1.6927695E+00
   3.1933912E-04   1.4071877E+05   -1.6922239E+00
   3.2081386E-04   1.3962605E+05   -1.6916790E+00
   3.2229541E-04   1.3854215E+05   -1.6911346E+00
   3.2378381E-04   1.3746702E+05   -1.6905908E+00
   3.2527908E-04   1.3640057E+05   -1.6900477E+00
   3.2678125E-04   1.3534274E+05   -1.6895051E+00
   3.2829036E-04   1.3429344E+05   -1.6889631E+00
   3.2980644E-04   1.3325261E+05   -1.6884217E+00
   3.3132952E-04   1.3222017E+05   -1.6878810E+00
   3.3285963E-04   1.3119607E+05   -1.6873408E+00
   3.3439681E-04   1.3018021E+05   -1.6868013E+00
   3.3594109E-04   1.2917255E+05   -1.6862624E+00
   3.3749250E-04   1.2817300E+05   -1.6857242E+00
   3.3905108E-04   1.2718151E+05   -1.6851865E+00
   3.4061685E-04   1.2619799E+05   -1.6846496E+00
   3.4218986E-04   1.2522239E+05   -1.6841132E+00
   3.4377013E-04   1.2425464E+05   -1.6835775E+00
   3.4535769E-04   1.2329467E+05   -1.6830425E+00
   3.4695259E-04   1.2234242E+05   -1.6825081E+00
   3.4855485E-04   1.2139783E+05   -1.6819744E+00
   3.5016452E-04   1.2046082E+05   -1.6814414E+00
   3.5178161E-04   1.1953134E+05   -1.6809090E+00
   3.5340618E-04   1.1860932E+05   -1.6803774E+00
   3.5503824E-04   1.1769470E+05   -1.6798463E+00
   3.5667785E-04   1.1678742E+05   -1.6793160E+00
   3.5832502E-04   1.1588742E+05   -1.6787864E+00
   3.5997981E-04   1.1499463E+05   -1.6782575E+00
   3.6164223E-04   1.1410900E+05   -1.6777292E+00
   3.6331233E-04   1.1323046E+05   -1.6772017E+00
   3.6499015E-04   1.1235897E+05   -1.6766749E+00
   3.6667571E-04   1.1149445E+05   -1.6761487E+00
   3.6836906E-04   1.1063685E+05   -1.6756233E+00
   3.7007022E-04   1.0978611E+05   -1.6750987E+00
   3.7177925E-04   1.0894217E+05   -1.6745747E+00
   3.7349616E-04   1.0810499E+05   -1.6740515E+00
   3.7522101E-04   1.0727450E+05   -1.6735290E+00
   3.7695382E-04   1.0645064E+05   -1.6730072E+00
   3.7869463E-04   1.0563336E+05   -1.6724862E+00
   3.8044348E-04   1.0482261E+05   -1.6719659E+00
   3.8220041E-04   1.0401833E+05   -1.6714463E+00
   3.8396545E-04   1.0322047E+05   -1.6709276E+00
   3.8573864E-04   1.0242898E+05   -1.6704095E+00
   3.8752002E-04   1.0164379E+05   -1.6698923E+00
   3.8930963E-04   1.0086487E+05   -1.6693758E+00
   3.9110750E-04   1.0009215E+05   -1.6688600E+00
   3.9291368E-04   9.9325590E+04   -1.6683450E+00
   3.9472820E-04   9.8565132E+04   -1.6678308E+00
   3.9655109E-04   9.7810728E+04   -1.6673174E+00
   3.9838241E-04   9.7062327E+04   -1.6668048E+00
   4.0022218E-04   9.6319880E+04   -1.6662929E+00
   4.0207045E-04   9.5583338E+04   -1.6657819E+00
   4.0392725E-04   9.4852651E+04   -1.6652716E+00
   4.0579263E-04   9.4127771E+04   -1.6647621E+00
   4.0766662E-04   9.3408650E+04   -1.6642534E+00
   4.0954927E-04   9.2695240E+04   -1.6637455E+00
   4.1144061E-04   9.1987493E+04   -1.6632385E+00
   4.1334068E-04   9.1285364E+04   -1.6627322E+00
   4.1524953E-04   9.0588804E+04   -1.6622268E+00
   4.1716720E-04   8.9897769E+04   -1.6617221E+00
   4.1909372E-04   8.9212213E+04   -1.6612183E+00
   4.2102914E-04   8.8532090E+04   -1.6607153E+00
   4.2297350E-04   8.7857356E+04   -1.6602132E+00
   4.2492683E-04   8.7187965E+04   -1.6597118E+00
   4.2688919E-04   8.6523874E+04   -1.6592113E+00
   4.2886061E-04   8.5865040E+04   -1.6587117E+00
   4.3084113E-04   8.5211418E+04   -1.6582128E+00
   4.3283080E-04   8.4562966E+04   -1.6577149E+00
   4.3482966E-04   8.3919641E+04   -1.6572177E+00
   4.3683775E-04   8.3281400E+04   -1.6567214E+00
   4.3885511E-04   8.2648203E+04   -1.6562260E+00
   4.4088179E-04   8.2020007E+04   -1.6557314E+00
   4.4291783E-04   8.1396771E+04   -1.6552377E+00
   4.4496327E-04   8.0778454E+04   -1.6547448E+00
   4.4701816E-04   8.0165016E+04   -1.6542528E+00
   4.4908253E-04   7.9556417E+04   -1.6537617E+00
   4.5115644E-04   7.8952616E+04   -1.6532714E+00
   4.5323993E-04   7.8353575E+04   -1.6527820E+00
   4.5533304E-04   7.7759255E+04   -1.6522935E+00
   4.5743582E-04   7.7169616E+04   -1.6518059E+00
   4.5954830E-04   7.6584620E+04   -1.6513191E+00
   4.6167054E-04   7.6004229E+04   -1.6508333E+00
   4.6380259E-04   7.5428405E+04   -1.6503483E+00
   4.6594448E-04   7.4857111E+04   -1.6498642E+00
   4.6809626E-04   7.4290310E+04   -1.6493810E+00
   4.7025797E-04   7.3727964E+04   -1.6488987E+00
   4.7242967E-04   7.3170037E+04   -1.6484173E+00
   4.7461140E-04   7.2616493E+04   -1.6479367E+00
   4.7680321E-04   7.2067296E+04   -1.6474571E+00
   4.7900514E-04   7.1522411E+04   -1.6469784E+00
   4.8121723E-04   7.0981801E+04   -1.6465006E+00
   4.8343954E-04   7.0445433E+04   -1.6460237E+00
   4.8567212E-04   6.9913272E+04   -1.6455478E+00
   4.8791500E-04   6.9385283E+04   -1.6450727E+00
   4.9016825E-04   6.8861431E+04   -1.6445986E+00
   4.9243189E-04   6.8341684E+04   -1.6441253E+00
   4.9470600E-04   6.7826008E+04   -1.6436530E+00
   4.9699060E-04   6.7314368E+04   -1.6431817E+00
   4.9928575E-04   6.6806734E+04   -1.6427112E+00
   5.0159151E-04   6.6303071E+04   -1.6422417E+00
   5.0390791E-04   6.5803347E+04   -1.6417731E+00
   5.0623501E-04   6.5307531E+04   -1.6413054E+00
   5.0857286E-04   6.4815590E+04   -1.6408387E+00
   5.1092150E-04   6.4327493E+04   -1.6403729E+00
   5.1328099E-04   6.3843208E+04   -1.6399081E+00
   5.1565137E-04   6.3362705E+04   -1.6394442E+00
   5.1803270E-04   6.2885953E+04   -1.6389812E+00
   5.2042503E-04   6.2412921E+04   -1.6385192E+00
   5.2282841E-04   6.1943579E+04   -1.6380581E+00
   5.2524289E-04   6.1477896E+04   -1.6375980E+00
   5.2766851E-04   6.1015844E+04   -1.6371388E+00
   5.3010534E-04   6.0557392E+04   -1.6366806E+00
   5.3255342E-04   6.0102512E+04   -1.6362233E+00
   5.3501281E-04   5.9651174E+04   -1.6357670E+00
   5.3748356E-04   5.9203350E+04   -1.6353117E+00
   5.3996571E-04   5.8759011E+04   -1.6348573E+00
   5.4245933E-04   5.8318129E+04   -1.6344039E+00
   5.4496446E-04   5.7880675E+04   -1.6339514E+00
   5.4748117E-04   5.7446623E+04   -1.6334999E+00
   5.5000949E-04   5.7015944E+04   -1.6330494E+00
   5.5254949E-04   5.6588612E+04   -1.6325998E+00
   5.5510123E-04   5.6164598E+04   -1.6321513E+00
   5.5766474E-04   5.5743877E+04   -1.6317036E+00
   5.6024010E-04   5.5326421E+04   -1.6312570E+00
   5.6282734E-04   5.4912204E+04   -1.6308113E+00
   5.6542654E-04   5.4501200E+04   -1.6303667E+00
   5.6803774E-04   5.4093383E+04   -1.6299230E+00
   5.7066099E-04   5.3688728E+04   -1.6294802E+00
   5.7329637E-04   5.3287208E+04   -1.6290385E+00
   5.7594391E-04   5.2888798E+04   -1.6285977E+00
   5.7860368E-04   5.2493474E+04   -1.6281579E+00
   5.8127573E-04   5.2101210E+04   -1.6277191E+00
   5.8396012E-04   5.1711981E+04   -1.6272813E+00
   5.8665691E-04   5.1325764E+04   -1.6268445E+00
   5.8936616E-04   5.0942534E+04   -1.6264087E+00
   5.9208791E-04   5.0562267E+04   -1.6259739E+00
   5.9482223E-04   5.0184938E+04   -1.6255400E+00
   5.9756919E-04   4.9810525E+04   -1.6251072E+00
   6.0032882E-04   4.9439004E+04   -1.6246753E+00
   6.0310120E-04   4.9070352E+04   -1.6242444E+00
   6.0588639E-04   4.8704544E+04   -1.6238146E+00
   6.0868443E-04   4.8341560E+04   -1.6233857E+00
   6.1149540E-04   4.7981375E+04   -1.6229578E+00
   6.1431935E-04   4.7623968E+04   -1.6225310E+00
   6.1715634E-04   4.7269316E+04   -1.6221051E+00
   6.2000644E-04   4.6917398E+04   -1.6216802E+00
   6.2286969E-04   4.6568190E+04   -1.6212563E+00
