#        a       HoverH0(a)       dlogHdloga_of_a(a)
   1.0000000E-04   1.1009777E+06   -1.8688386E+00
   1.0046181E-04   1.0915394E+06   -1.8683923E+00
   1.0092575E-04   1.0821842E+06   -1.8679451E+00
   1.0139184E-04   1.0729115E+06   -1.8674968E+00
   1.0186008E-04   1.0637204E+06   -1.8670476E+00
   1.0233048E-04   1.0546102E+06   -1.8665974E+00
   1.0280305E-04   1.0455802E+06   -1.8661462E+00
   1.0327781E-04   1.0366297E+06   -1.8656941E+00
   1.0375475E-04   1.0277580E+06   -1.8652410E+00
   1.0423390E-04   1.0189643E+06   -1.8647870E+00
   1.0471527E-04   1.0102479E+06   -1.8643320E+00
   1.0519885E-04   1.0016083E+06   -1.8638760E+00
   1.0568467E-04   9.9304456E+05   -1.8634191E+00
   1.0617274E-04   9.8455616E+05   -1.8629612E+00
   1.0666305E-04   9.7614237E+05   -1.8625023E+00
   1.0715563E-04   9.6780254E+05   -1.8620426E+00
   1.0765049E-04   9.5953600E+05   -1.8615818E+00
   1.0814763E-04   9.5134208E+05   -1.8611201E+00
   1.0864707E-04   9.4322015E+05   -1.8606575E+00
   1.0914881E-04   9.3516955E+05   -1.8601939E+00
   1.0965287E-04   9.2718964E+05   -1.8597294E+00
   1.1015926E-04   9.1927980E+05   -1.8592639E+00
   1.1066799E-04   9.1143940E+05   -1.8587975E+00
   1.1117906E-04   9.0366780E+05   -1.8583302E+00
   1.1169250E-04   8.9596441E+05   -1.8578619E+00
   1.1220831E-04   8.8832860E+05   -1.8573927E+00
   1.1272650E-04   8.8075977E+05   -1.8569225E+00
   1.1324708E-04   8.7325732E+05   -1.8564515E+00
   1.1377007E-04   8.6582067E+05   -1.8559795E+00
   1.1429547E-04   8.5844921E+05   -1.8555066E+00
   1.1482330E-04   8.5114237E+05   -1.8550327E+00
   1.1535356E-04   8.4389957E+05   -1.8545580E+00
   1.1588628E-04   8.3672023E+05   -1.8540823E+00
   1.1642145E-04   8.2960379E+05   -1.8536057E+00
   1.1695910E-04   8.2254968E+05   -1.8531282E+00
   1.1749923E-04   8.1555735E+05   -1.8526498E+00
   1.1804185E-04   8.0862625E+05   -1.8521705E+00
   1.1858698E-04   8.0175582E+05   -1.8516903E+00
   1.1913463E-04   7.9494552E+05   -1.8512092E+00
   1.1968481E-04   7.8819482E+05   -1.8507272E+00
   1.2023752E-04   7.8150319E+05   -1.8502443E+00
   1.2079279E-04   7.7487009E+05   -1.8497605E+00
   1.2135063E-04   7.6829501E+05   -1.8492758E+00
   1.2191104E-04   7.6177742E+05   -1.8487902E+00
   1.2247403E-04   7.5531682E+05   -1.8483038E+00
   1.2303963E-04   7.4891268E+05   -1.8478164E+00
   1.2360784E-04   7.4256452E+05   -1.8473282E+00
   1.2417868E-04   7.3627182E+05   -1.8468391E+00
   1.2475215E-04   7.3003409E+05   -1.8463491E+00
   1.2532826E-04   7.2385085E+05   -1.8458583E+00
   1.2590704E-04   7.1772160E+05   -1.8453666E+00
   1.2648850E-04   7.1164586E+05   -1.8448740E+00
   1.2707263E-04   7.0562316E+05   -1.8443806E+00
   1.2765947E-04   6.9965302E+05   -1.8438863E+00
   1.2824901E-04   6.9373498E+05   -1.8433911E+00
   1.2884128E-04   6.8786856E+05   -1.8428951E+00
   1.2943628E-04   6.8205332E+05   -1.8423982E+00
   1.3003403E-04   6.7628878E+05   -1.8419005E+00
   1.3063454E-04   6.7057451E+05   -1.8414020E+00
   1.3123783E-04   6.6491004E+05   -1.8409026E+00
   1.3184390E-04   6.5929495E+05   -1.8404024E+00
   1.3245277E-04   6.5372878E+05   -1.8399013E+00
   1.3306445E-04   6.4821109E+05   -1.8393994E+00
   1.3367895E-04   6.4274147E+05   -1.8388967E+00
   1.3429630E-04   6.3731948E+05   -1.8383931E+00
   1.3491649E-04   6.3194469E+05   -1.8378888E+00
   1.3553955E-04   6.2661669E+05   -1.8373836E+00
   1.3616548E-04   6.2133506E+05   -1.8368776E+00
   1.3679431E-04   6.1609939E+05   -1.8363708E+00
   1.3742604E-04   6.1090926E+05   -1.8358632E+00
   1.3806069E-04   6.0576427E+05   -1.8353547E+00
   1.3869827E-04   6.0066402E+05   -1.8348455E+00
   1.3933879E-04   5.9560811E+05   -1.8343355E+00
   1.3998227E-04   5.9059614E+05   -1.8338247E+00
   1.4062872E-04   5.8562773E+05   -1.8333131E+00
   1.4127816E-04   5.8070248E+05   -1.8328007E+00
   1.4193060E-04   5.7582002E+05   -1.8322875E+00
   1.4258605E-04   5.7097996E+05   -1.8317736E+00
   1.4324453E-04   5.6618193E+05   -1.8312588E+00
   1.4390605E-04   5.6142554E+05   -1.8307433E+00
   1.4457062E-04   5.5671044E+05   -1.8302271E+00
   1.4523826E-04   5.5203625E+05   -1.8297100E+00
   1.4590899E-04   5.4740261E+05   -1.8291923E+00
   1.4658281E-04   5.4280916E+05   -1.8286737E+00
   1.4725974E-04   5.3825555E+05   -1.8281544E+00
   1.4793981E-04   5.3374141E+05   -1.8276344E+00
   1.4862301E-04   5.2926639E+05   -1.8271136E+00
   1.4930936E-04   5.2483016E+05   -1.8265920E+00
   1.4999889E-04   5.2043236E+05   -1.8260698E+00
   1.5069160E-04   5.1607266E+05   -1.8255468E+00
   1.5138751E-04   5.1175071E+05   -1.8250230E+00
   1.5208663E-04   5.0746618E+05   -1.8244986E+00
   1.5278899E-04   5.0321874E+05   -1.8239734E+00
   1.5349458E-04   4.9900807E+05   -1.8234475E+00
   1.5420343E-04   4.9483382E+05   -1.8229209E+00
   1.5491556E-04   4.9069568E+05   -1.8223936E+00
   1.5563098E-04   4.8659333E+05   -1.8218656E+00
   1.5634970E-04   4.8252646E+05   -1.8213368E+00
   1.5707174E-04   4.7849473E+05   -1.8208074E+00
   1.5779711E-04   4.7449786E+05   -1.8202773E+00
   1.5852584E-04   4.7053552E+05   -1.8197465E+00
   1.5925792E-04   4.6660741E+05   -1.8192150E+00
   1.5999339E-04   4.6271322E+05   -1.8186829E+00
   1.6073226E-04   4.5885266E+05   -1.8181501E+00
   1.6147454E-04   4.5502543E+05   -1.8176166E+00
   1.6222024E-04   4.5123123E+05   -1.8170824E+00
   1.6296939E-04   4.4746978E+05   -1.8165476E+00
   1.6372200E-04   4.4374077E+05   -1.8160121E+00
   1.6447809E-04   4.4004392E+05   -1.8154760E+00
   1.6523767E-04   4.3637895E+05   -1.8149392E+00
   1.6600075E-04   4.3274558E+05   -1.8144017E+00
   1.6676736E-04   4.2914352E+05   -1.8138637E+00
   1.6753751E-04   4.2557250E+05   -1.8133250E+00
   1.6831122E-04   4.2203224E+05   -1.8127857E+00
   1.6908849E-04   4.1852248E+05   -1.8122457E+00
   1.6986936E-04   4.1504293E+05   -1.8117051E+00
   1.7065384E-04   4.1159334E+05   -1.8111639E+00
   1.7144193E-04   4.0817344E+05   -1.8106221E+00
   1.7223367E-04   4.0478297E+05   -1.8100797E+00
   1.7302906E-04   4.0142166E+05   -1.8095367E+00
   1.7382813E-04   3.9808926E+05   -1.8089931E+00
   1.7463089E-04   3.9478552E+05   -1.8084489E+00
   1.7543735E-04   3.9151017E+05   -1.8079042E+00
   1.7624754E-04   3.8826297E+05   -1.8073588E+00
   1.7706147E-04   3.8504368E+05   -1.8068129E+00
   1.7787916E-04   3.8185204E+05   -1.8062664E+00
   1.7870062E-04   3.7868780E+05   -1.8057193E+00
   1.7952588E-04   3.7555074E+05   -1.8051716E+00
   1.8035495E-04   3.7244060E+05   -1.8046234E+00
   1.8118785E-04   3.6935715E+05   -1.8040747E+00
   1.8202459E-04   3.6630016E+05   -1.8035254E+00
   1.8286520E-04   3.6326939E+05   -1.8029755E+00
   1.8370969E-04   3.6026461E+05   -1.8024252E+00
   1.8455808E-04   3.5728559E+05   -1.8018743E+00
   1.8541039E-04   3.5433210E+05   -1.8013228E+00
   1.8626663E-04   3.5140392E+05   -1.8007709E+00
   1.8712683E-04   3.4850083E+05   -1.8002184E+00
   1.8799100E-04   3.4562260E+05   -1.7996654E+00
   1.8885917E-04   3.4276901E+05   -1.7991119E+00
   1.8973134E-04   3.3993985E+05   -1.7985579E+00
   1.9060754E-04   3.3713491E+05   -1.7980034E+00
   1.9148778E-04   3.3435396E+05   -1.7974484E+00
   1.9237209E-04   3.3159680E+05   -1.7968930E+00
   1.9326049E-04   3.2886322E+05   -1.7963370E+00
   1.9415299E-04   3.2615301E+05   -1.7957806E+00
   1.9504960E-04   3.2346596E+05   -1.7952237E+00
   1.9595036E-04   3.2080188E+05   -1.7946663E+00
   1.9685528E-04   3.1816055E+05   -1.7941085E+00
   1.9776438E-04   3.1554179E+05   -1.7935502E+00
   1.9867768E-04   3.1294538E+05   -1.7929915E+00
   1.9959519E-04   3.1037114E+05   -1.7924324E+00
   2.0051694E-04   3.0781886E+05   -1.7918727E+00
   2.0144295E-04   3.0528836E+05   -1.7913127E+00
   2.0237324E-04   3.0277945E+05   -1.7907523E+00
   2.0330782E-04   3.0029193E+05   -1.7901914E+00
   2.0424671E-04   2.9782561E+05   -1.7896301E+00
   2.0518995E-04   2.9538032E+05   -1.7890684E+00
   2.0613754E-04   2.9295586E+05   -1.7885062E+00
   2.0708950E-04   2.9055206E+05   -1.7879437E+00
   2.0804586E-04   2.8816872E+05   -1.7873808E+00
   2.0900664E-04   2.8580568E+05   -1.7868175E+00
   2.0997185E-04   2.8346275E+05   -1.7862539E+00
   2.1094152E-04   2.8113976E+05   -1.7856898E+00
   2.1191567E-04   2.7883653E+05   -1.7851254E+00
   2.1289432E-04   2.7655288E+05   -1.7845606E+00
   2.1387749E-04   2.7428866E+05   -1.7839954E+00
   2.1486520E-04   2.7204368E+05   -1.7834299E+00
   2.1585747E-04   2.6981778E+05   -1.7828641E+00
   2.1685432E-04   2.6761079E+05   -1.7822979E+00
   2.1785578E-04   2.6542254E+05   -1.7817313E+00
   2.1886186E-04   2.6325288E+05   -1.7811645E+00
   2.1987259E-04   2.6110163E+05   -1.7805973E+00
   2.2088798E-04   2.5896864E+05   -1.7800297E+00
   2.2190807E-04   2.5685375E+05   -1.7794619E+00
   2.2293286E-04   2.5475679E+05   -1.7788938E+00
   2.2396239E-04   2.5267762E+05   -1.7783253E+00
   2.2499667E-04   2.5061607E+05   -1.7777566E+00
   2.2603573E-04   2.4857199E+05   -1.7771876E+00
   2.2707958E-04   2.4654523E+05   -1.7766182E+00
   2.2812826E-04   2.4453564E+05   -1.7760487E+00
   2.2918178E-04   2.4254306E+05   -1.7754788E+00
   2.3024017E-04   2.4056735E+05   -1.7749086E+00
   2.3130344E-04   2.3860837E+05   -1.7743382E+00
   2.3237162E-04   2.3666595E+05   -1.7737676E+00
   2.3344474E-04   2.3473997E+05   -1.7731967E+00
   2.3452281E-04   2.3283028E+05   -1.7726255E+00
   2.3560586E-04   2.3093672E+05   -1.7720541E+00
   2.3669392E-04   2.2905917E+05   -1.7714825E+00
   2.3778699E-04   2.2719749E+05   -1.7709107E+00
   2.3888512E-04   2.2535153E+05   -1.7703386E+00
   2.3998831E-04   2.2352115E+05   -1.7697663E+00
   2.4109661E-04   2.2170623E+05   -1.7691938E+00
   2.4221001E-04   2.1990663E+05   -1.7686211E+00
   2.4332857E-04   2.1812220E+05   -1.7680482E+00
   2.4445228E-04   2.1635283E+05   -1.7674752E+00
   2.4558119E-04   2.1459838E+05   -1.7669019E+00
   2.4671531E-04   2.1285872E+05   -1.7663284E+00
   2.4785467E-04   2.1113371E+05   -1.7657548E+00
   2.4899928E-04   2.0942325E+05   -1.7651810E+00
   2.5014919E-04   2.0772718E+05   -1.7646071E+00
   2.5130440E-04   2.0604540E+05   -1.7640330E+00
   2.5246495E-04   2.0437778E+05   -1.7634587E+00
   2.5363086E-04   2.0272419E+05   -1.7628843E+00
   2.5480216E-04   2.0108451E+05   -1.7623098E+00
   2.5597886E-04   1.9945862E+05   -1.7617351E+00
   2.5716100E-04   1.9784640E+05   -1.7611603E+00
   2.5834859E-04   1.9624773E+05   -1.7605854E+00
   2.5954168E-04   1.9466249E+05   -1.7600104E+00
   2.6074027E-04   1.9309057E+05   -1.7594353E+00
   2.6194439E-04   1.9153185E+05   -1.7588601E+00
   2.6315408E-04   1.8998622E+05   -1.7582847E+00
   2.6436935E-04   1.8845357E+05   -1.7577093E+00
   2.6559024E-04   1.8693377E+05   -1.7571338E+00
   2.6681676E-04   1.8542672E+05   -1.7565583E+00
   2.6804895E-04   1.8393230E+05   -1.7559826E+00
   2.6928683E-04   1.8245042E+05   -1.7554069E+00
   2.7053042E-04   1.8098095E+05   -1.7548312E+00
   2.7177976E-04   1.7952380E+05   -1.7542554E+00
   2.7303487E-04   1.7807885E+05   -1.7536795E+00
   2.7429577E-04   1.7664600E+05   -1.7531036E+00
   2.7556250E-04   1.7522514E+05   -1.7525277E+00
   2.7683507E-04   1.7381617E+05   -1.7519517E+00
   2.7811353E-04   1.7241899E+05   -1.7513757E+00
   2.7939788E-04   1.7103350E+05   -1.7507998E+00
   2.8068817E-04   1.6965958E+05   -1.7502238E+00
   2.8198442E-04   1.6829716E+05   -1.7496477E+00
   2.8328665E-04   1.6694611E+05   -1.7490717E+00
   2.8459490E-04   1.6560635E+05   -1.7484958E+00
   2.8590919E-04   1.6427778E+05   -1.7479198E+00
   2.8722955E-04   1.6296030E+05   -1.7473438E+00
   2.8855600E-04   1.6165381E+05   -1.7467679E+00
   2.8988859E-04   1.6035823E+05   -1.7461920E+00
   2.9122732E-04   1.5907345E+05   -1.7456161E+00
   2.9257224E-04   1.5779938E+05   -1.7450403E+00
   2.9392337E-04   1.5653593E+05   -1.7444646E+00
   2.9528074E-04   1.5528301E+05   -1.7438889E+00
   2.9664438E-04   1.5404053E+05   -1.7433133E+00
   2.9801431E-04   1.5280839E+05   -1.7427377E+00
   2.9939057E-04   1.5158651E+05   -1.7421622E+00
   3.0077319E-04   1.5037480E+05   -1.7415868E+00
   3.0216219E-04   1.4917317E+05   -1.7410115E+00
   3.0355761E-04   1.4798154E+05   -1.7404363E+00
   3.0495947E-04   1.4679981E+05   -1.7398611E+00
   3.0636780E-04   1.4562791E+05   -1.7392861E+00
   3.0778264E-04   1.4446574E+05   -1.7387112E+00
   3.0920401E-04   1.4331323E+05   -1.7381365E+00
   3.1063195E-04   1.4217029E+05   -1.7375618E+00
   3.1206648E-04   1.4103684E+05   -1.7369873E+00
   3.1350764E-04   1.3991279E+05   -1.7364129E+00
   3.1495545E-04   1.3879807E+05   -1.7358386E+00
   3.1640994E-04   1.3769260E+05   -1.7352645E+00
   3.1787116E-04   1.3659629E+05   -1.7346906E+00
   3.1933912E-04   1.3550907E+05   -1.7341168E+00
   3.2081386E-04   1.3443086E+05   -1.7335432E+00
   3.2229541E-04   1.3336158E+05   -1.7329698E+00
   3.2378381E-04   1.3230115E+05   -1.7323965E+00
   3.2527908E-04   1.3124950E+05   -1.7318235E+00
   3.2678125E-04   1.3020656E+05   -1.7312506E+00
   3.2829036E-04   1.2917224E+05   -1.7306779E+00
   3.2980644E-04   1.2814648E+05   -1.7301054E+00
   3.3132952E-04   1.2712920E+05   -1.7295331E+00
   3.3285963E-04   1.2612033E+05   -1.7289611E+00
   3.3439681E-04   1.2511979E+05   -1.7283892E+00
   3.3594109E-04   1.2412752E+05   -1.7278176E+00
   3.3749250E-04   1.2314344E+05   -1.7272463E+00
   3.3905108E-04   1.2216749E+05   -1.7266751E+00
   3.4061685E-04   1.2119958E+05   -1.7261042E+00
   3.4218986E-04   1.2023967E+05   -1.7255336E+00
   3.4377013E-04   1.1928767E+05   -1.7249632E+00
   3.4535769E-04   1.1834351E+05   -1.7243931E+00
   3.4695259E-04   1.1740714E+05   -1.7238232E+00
   3.4855485E-04   1.1647849E+05   -1.7232537E+00
   3.5016452E-04   1.1555748E+05   -1.7226844E+00
   3.5178161E-04   1.1464405E+05   -1.7221154E+00
   3.5340618E-04   1.1373815E+05   -1.7215466E+00
   3.5503824E-04   1.1283969E+05   -1.7209782E+00
   3.5667785E-04   1.1194863E+05   -1.7204101E+00
   3.5832502E-04   1.1106490E+05   -1.7198423E+00
   3.5997981E-04   1.1018843E+05   -1.7192748E+00
   3.6164223E-04   1.0931916E+05   -1.7187076E+00
   3.6331233E-04   1.0845703E+05   -1.7181408E+00
   3.6499015E-04   1.0760198E+05   -1.7175742E+00
   3.6667571E-04   1.0675396E+05   -1.7170081E+00
   3.6836906E-04   1.0591289E+05   -1.7164422E+00
   3.7007022E-04   1.0507872E+05   -1.7158767E+00
   3.7177925E-04   1.0425139E+05   -1.7153116E+00
   3.7349616E-04   1.0343085E+05   -1.7147468E+00
   3.7522101E-04   1.0261703E+05   -1.7141824E+00
   3.7695382E-04   1.0180988E+05   -1.7136184E+00
   3.7869463E-04   1.0100934E+05   -1.7130547E+00
   3.8044348E-04   1.0021536E+05   -1.7124915E+00
   3.8220041E-04   9.9427875E+04   -1.7119286E+00
   3.8396545E-04   9.8646834E+04   -1.7113661E+00
   3.8573864E-04   9.7872182E+04   -1.7108040E+00
   3.8752002E-04   9.7103864E+04   -1.7102423E+00
   3.8930963E-04   9.6341827E+04   -1.7096810E+00
   3.9110750E-04   9.5586017E+04   -1.7091202E+00
   3.9291368E-04   9.4836382E+04   -1.7085597E+00
   3.9472820E-04   9.4092868E+04   -1.7079997E+00
   3.9655109E-04   9.3355425E+04   -1.7074402E+00
   3.9838241E-04   9.2623999E+04   -1.7068810E+00
   4.0022218E-04   9.1898541E+04   -1.7063223E+00
   4.0207045E-04   9.1179000E+04   -1.7057641E+00
   4.0392725E-04   9.0465325E+04   -1.7052063E+00
   4.0579263E-04   8.9757467E+04   -1.7046489E+00
   4.0766662E-04   8.9055376E+04   -1.7040921E+00
   4.0954927E-04   8.8359004E+04   -1.7035357E+00
   4.1144061E-04   8.7668301E+04   -1.7029798E+00
   4.1334068E-04   8.6983221E+04   -1.7024243E+00
   4.1524953E-04   8.6303714E+04   -1.7018694E+00
   4.1716720E-04   8.5629735E+04   -1.7013149E+00
   4.1909372E-04   8.4961236E+04   -1.7007609E+00
   4.2102914E-04   8.4298171E+04   -1.7002075E+00
   4.2297350E-04   8.3640494E+04   -1.6996545E+00
   4.2492683E-04   8.2988159E+04   -1.6991020E+00
   4.2688919E-04   8.2341122E+04   -1.6985501E+00
   4.2886061E-04   8.1699337E+04   -1.6979987E+00
   4.3084113E-04   8.1062761E+04   -1.6974478E+00
   4.3283080E-04   8.0431348E+04   -1.6968975E+00
   4.3482966E-04   7.9805056E+04   -1.6963477E+00
   4.3683775E-04   7.9183841E+04   -1.6957984E+00
   4.3885511E-04   7.8567660E+04   -1.6952497E+00
   4.4088179E-04   7.7956471E+04   -1.6947015E+00
   4.4291783E-04   7.7350232E+04   -1.6941539E+00
   4.4496327E-04   7.6748901E+04   -1.6936068E+00
   4.4701816E-04   7.6152436E+04   -1.6930604E+00
   4.4908253E-04   7.5560798E+04   -1.6925145E+00
   4.5115644E-04   7.4973944E+04   -1.6919691E+00
   4.5323993E-04   7.4391835E+04   -1.6914244E+00
   4.5533304E-04   7.3814431E+04   -1.6908802E+00
   4.5743582E-04   7.3241692E+04   -1.6903366E+00
   4.5954830E-04   7.2673579E+04   -1.6897937E+00
   4.6167054E-04   7.2110053E+04   -1.6892513E+00
   4.6380259E-04   7.1551075E+04   -1.6887095E+00
   4.6594448E-04   7.0996607E+04   -1.6881684E+00
   4.6809626E-04   7.0446612E+04   -1.6876278E+00
   4.7025797E-04   6.9901051E+04   -1.6870879E+00
   4.7242967E-04   6.9359888E+04   -1.6865486E+00
   4.7461140E-04   6.8823085E+04   -1.6860099E+00
   4.7680321E-04   6.8290606E+04   -1.6854719E+00
   4.7900514E-04   6.7762415E+04   -1.6849345E+00
   4.8121723E-04   6.7238475E+04   -1.6843978E+00
   4.8343954E-04   6.6718752E+04   -1.6838617E+00
   4.8567212E-04   6.6203209E+04   -1.6833262E+00
   4.8791500E-04   6.5691812E+04   -1.6827914E+00
   4.9016825E-04   6.5184526E+04   -1.6822573E+00
   4.9243189E-04   6.4681316E+04   -1.6817238E+00
   4.9470600E-04   6.4182148E+04   -1.6811910E+00
   4.9699060E-04   6.3686989E+04   -1.6806589E+00
   4.9928575E-04   6.3195805E+04   -1.6801274E+00
   5.0159151E-04   6.2708562E+04   -1.6795967E+00
   5.0390791E-04   6.2225229E+04   -1.6790666E+00
   5.0623501E-04   6.1745771E+04   -1.6785372E+00
   5.0857286E-04   6.1270157E+04   -1.6780085E+00
   5.1092150E-04   6.0798354E+04   -1.6774805E+00
   5.1328099E-04   6.0330332E+04   -1.6769532E+00
   5.1565137E-04   5.9866057E+04   -1.6764267E+00
   5.1803270E-04   5.9405500E+04   -1.6759008E+00
   5.2042503E-04   5.8948628E+04   -1.6753757E+00
   5.2282841E-04   5.8495411E+04   -1.6748512E+00
   5.2524289E-04   5.8045819E+04   -1.6743275E+00
   5.2766851E-04   5.7599821E+04   -1.6738046E+00
   5.3010534E-04   5.7157388E+04   -1.6732823E+00
   5.3255342E-04   5.6718490E+04   -1.6727608E+00
   5.3501281E-04   5.6283097E+04   -1.6722401E+00
   5.3748356E-04   5.5851180E+04   -1.6717200E+00
   5.3996571E-04   5.5422710E+04   -1.6712008E+00
   5.4245933E-04   5.4997659E+04   -1.6706822E+00
   5.4496446E-04   5.4575998E+04   -1.6701645E+00
   5.4748117E-04   5.4157699E+04   -1.6696475E+00
   5.5000949E-04   5.3742734E+04   -1.6691313E+00
   5.5254949E-04   5.3331075E+04   -1.6686158E+00
   5.5510123E-04   5.2922695E+04   -1.6681011E+00
   5.5766474E-04   5.2517567E+04   -1.6675872E+00
   5.6024010E-04   5.2115663E+04   -1.6670740E+00
   5.6282734E-04   5.1716957E+04   -1.6665617E+00
   5.6542654E-04   5.1321422E+04   -1.6660501E+00
   5.6803774E-04   5.0929033E+04   -1.6655393E+00
   5.7066099E-04   5.0539762E+04   -1.6650293E+00
   5.7329637E-04   5.0153585E+04   -1.6645201E+00
   5.7594391E-04   4.9770474E+04   -1.6640117E+00
   5.7860368E-04   4.9390407E+04   -1.6635041E+00
   5.8127573E-04   4.9013356E+04   -1.6629974E+00
   5.8396012E-04   4.8639297E+04   -1.6624914E+00
   5.8665691E-04   4.8268205E+04   -1.6619862E+00
   5.8936616E-04   4.7900055E+04   -1.6614819E+00
   5.9208791E-04   4.7534824E+04   -1.6609784E+00
   5.9482223E-04   4.7172487E+04   -1.6604757E+00
   5.9756919E-04   4.6813021E+04   -1.6599738E+00
   6.0032882E-04   4.6456401E+04   -1.6594728E+00
   6.0310120E-04   4.6102604E+04   -1.6589726E+00
   6.0588639E-04   4.5751607E+04   -1.6584732E+00
   6.0868443E-04   4.5403386E+04   -1.6579747E+00
   6.1149540E-04   4.5057919E+04   -1.6574770E+00
   6.1431935E-04   4.4715183E+04   -1.6569802E+00
   6.1715634E-04   4.4375156E+04   -1.6564842E+00
   6.2000644E-04   4.4037815E+04   -1.6559890E+00
   6.2286969E-04   4.3703138E+04   -1.6554948E+00
