#        a       HoverH0(a)       dlogHdloga_of_a(a)
   1.0000000E-04   1.0339145E+06   -1.8852740E+00
   1.0046181E-04   1.0249734E+06   -1.8848662E+00
   1.0092575E-04   1.0161115E+06   -1.8844573E+00
   1.0139184E-04   1.0073282E+06   -1.8840475E+00
   1.0186008E-04   9.9862266E+05   -1.8836366E+00
   1.0233048E-04   9.8999425E+05   -1.8832247E+00
   1.0280305E-04   9.8144225E+05   -1.8828118E+00
   1.0327781E-04   9.7296598E+05   -1.8823979E+00
   1.0375475E-04   9.6456476E+05   -1.8819830E+00
   1.0423390E-04   9.5623792E+05   -1.8815670E+00
   1.0471527E-04   9.4798477E+05   -1.8811501E+00
   1.0519885E-04   9.3980466E+05   -1.8807321E+00
   1.0568467E-04   9.3169694E+05   -1.8803132E+00
   1.0617274E-04   9.2366094E+05   -1.8798932E+00
   1.0666305E-04   9.1569603E+05   -1.8794722E+00
   1.0715563E-04   9.0780157E+05   -1.8790502E+00
   1.0765049E-04   8.9997693E+05   -1.8786273E+00
   1.0814763E-04   8.9222146E+05   -1.8782033E+00
   1.0864707E-04   8.8453456E+05   -1.8777783E+00
   1.0914881E-04   8.7691560E+05   -1.8773523E+00
   1.0965287E-04   8.6936398E+05   -1.8769253E+00
   1.1015926E-04   8.6187908E+05   -1.8764973E+00
   1.1066799E-04   8.5446032E+05   -1.8760683E+00
   1.1117906E-04   8.4710708E+05   -1.8756383E+00
   1.1169250E-04   8.3981880E+05   -1.8752073E+00
   1.1220831E-04   8.3259487E+05   -1.8747753E+00
   1.1272650E-04   8.2543473E+05   -1.8743423E+00
   1.1324708E-04   8.1833780E+05   -1.8739083E+00
   1.1377007E-04   8.1130351E+05   -1.8734734E+00
   1.1429547E-04   8.0433130E+05   -1.8730374E+00
   1.1482330E-04   7.9742062E+05   -1.8726005E+00
   1.1535356E-04   7.9057090E+05   -1.8721625E+00
   1.1588628E-04   7.8378160E+05   -1.8717236E+00
   1.1642145E-04   7.7705218E+05   -1.8712837E+00
   1.1695910E-04   7.7038211E+05   -1.8708428E+00
   1.1749923E-04   7.6377084E+05   -1.8704009E+00
   1.1804185E-04   7.5721785E+05   -1.8699581E+00
   1.1858698E-04   7.5072261E+05   -1.8695142E+00
   1.1913463E-04   7.4428462E+05   -1.8690694E+00
   1.1968481E-04   7.3790335E+05   -1.8686236E+00
   1.2023752E-04   7.3157829E+05   -1.8681768E+00
   1.2079279E-04   7.2530895E+05   -1.8677291E+00
   1.2135063E-04   7.1909482E+05   -1.8672804E+00
   1.2191104E-04   7.1293540E+05   -1.8668307E+00
   1.2247403E-04   7.0683021E+05   -1.8663800E+00
   1.2303963E-04   7.0077875E+05   -1.8659284E+00
   1.2360784E-04   6.9478055E+05   -1.8654758E+00
   1.2417868E-04   6.8883513E+05   -1.8650222E+00
   1.2475215E-04   6.8294202E+05   -1.8645677E+00
   1.2532826E-04   6.7710074E+05   -1.8641122E+00
   1.2590704E-04   6.7131083E+05   -1.8636558E+00
   1.2648850E-04   6.6557184E+05   -1.8631984E+00
   1.2707263E-04   6.5988329E+05   -1.8627400E+00
   1.2765947E-04   6.5424475E+05   -1.8622807E+00
   1.2824901E-04   6.4865577E+05   -1.8618205E+00
   1.2884128E-04   6.4311589E+05   -1.8613593E+00
   1.2943628E-04   6.3762469E+05   -1.8608971E+00
   1.3003403E-04   6.3218172E+05   -1.8604340E+00
   1.3063454E-04   6.2678655E+05   -1.8599700E+00
   1.3123783E-04   6.2143875E+05   -1.8595050E+00
   1.3184390E-04   6.1613791E+05   -1.8590391E+00
   1.3245277E-04   6.1088359E+05   -1.8585722E+00
   1.3306445E-04   6.0567538E+05   -1.8581044E+00
   1.3367895E-04   6.0051287E+05   -1.8576357E+00
   1.3429630E-04   5.9539565E+05   -1.8571660E+00
   1.3491649E-04   5.9032332E+05   -1.8566954E+00
   1.3553955E-04   5.8529547E+05   -1.8562239E+00
   1.3616548E-04   5.8031171E+05   -1.8557514E+00
   1.3679431E-04   5.7537163E+05   -1.8552781E+00
   1.3742604E-04   5.7047486E+05   -1.8548038E+00
   1.3806069E-04   5.6562099E+05   -1.8543286E+00
   1.3869827E-04   5.6080966E+05   -1.8538525E+00
   1.3933879E-04   5.5604047E+05   -1.8533755E+00
   1.3998227E-04   5.5131305E+05   -1.8528975E+00
   1.4062872E-04   5.4662703E+05   -1.8524187E+00
   1.4127816E-04   5.4198204E+05   -1.8519389E+00
   1.4193060E-04   5.3737770E+05   -1.8514583E+00
   1.4258605E-04   5.3281367E+05   -1.8509767E+00
   1.4324453E-04   5.2828957E+05   -1.8504943E+00
   1.4390605E-04   5.2380504E+05   -1.8500109E+00
   1.4457062E-04   5.1935975E+05   -1.8495267E+00
   1.4523826E-04   5.1495333E+05   -1.8490416E+00
   1.4590899E-04   5.1058544E+05   -1.8485555E+00
   1.4658281E-04   5.0625573E+05   -1.8480687E+00
   1.4725974E-04   5.0196386E+05   -1.8475809E+00
   1.4793981E-04   4.9770950E+05   -1.8470922E+00
   1.4862301E-04   4.9349231E+05   -1.8466027E+00
   1.4930936E-04   4.8931195E+05   -1.8461123E+00
   1.4999889E-04   4.8516811E+05   -1.8456210E+00
   1.5069160E-04   4.8106045E+05   -1.8451289E+00
   1.5138751E-04   4.7698864E+05   -1.8446359E+00
   1.5208663E-04   4.7295238E+05   -1.8441420E+00
   1.5278899E-04   4.6895134E+05   -1.8436473E+00
   1.5349458E-04   4.6498521E+05   -1.8431517E+00
   1.5420343E-04   4.6105367E+05   -1.8426553E+00
   1.5491556E-04   4.5715643E+05   -1.8421580E+00
   1.5563098E-04   4.5329316E+05   -1.8416599E+00
   1.5634970E-04   4.4946358E+05   -1.8411609E+00
   1.5707174E-04   4.4566738E+05   -1.8406611E+00
   1.5779711E-04   4.4190425E+05   -1.8401605E+00
   1.5852584E-04   4.3817391E+05   -1.8396590E+00
   1.5925792E-04   4.3447607E+05   -1.8391567E+00
   1.5999339E-04   4.3081043E+05   -1.8386536E+00
   1.6073226E-04   4.2717671E+05   -1.8381496E+00
   1.6147454E-04   4.2357463E+05   -1.8376448E+00
   1.6222024E-04   4.2000389E+05   -1.8371393E+00
   1.6296939E-04   4.1646423E+05   -1.8366329E+00
   1.6372200E-04   4.1295536E+05   -1.8361256E+00
   1.6447809E-04   4.0947701E+05   -1.8356176E+00
   1.6523767E-04   4.0602892E+05   -1.8351088E+00
   1.6600075E-04   4.0261080E+05   -1.8345992E+00
   1.6676736E-04   3.9922240E+05   -1.8340888E+00
   1.6753751E-04   3.9586344E+05   -1.8335776E+00
   1.6831122E-04   3.9253368E+05   -1.8330656E+00
   1.6908849E-04   3.8923283E+05   -1.8325528E+00
   1.6986936E-04   3.8596066E+05   -1.8320392E+00
   1.7065384E-04   3.8271690E+05   -1.8315249E+00
   1.7144193E-04   3.7950131E+05   -1.8310098E+00
   1.7223367E-04   3.7631362E+05   -1.8304939E+00
   1.7302906E-04   3.7315360E+05   -1.8299773E+00
   1.7382813E-04   3.7002100E+05   -1.8294599E+00
   1.7463089E-04   3.6691557E+05   -1.8289417E+00
   1.7543735E-04   3.6383707E+05   -1.8284228E+00
   1.7624754E-04   3.6078527E+05   -1.8279031E+00
   1.7706147E-04   3.5775991E+05   -1.8273827E+00
   1.7787916E-04   3.5476078E+05   -1.8268615E+00
   1.7870062E-04   3.5178764E+05   -1.8263396E+00
   1.7952588E-04   3.4884025E+05   -1.8258170E+00
   1.8035495E-04   3.4591839E+05   -1.8252936E+00
   1.8118785E-04   3.4302184E+05   -1.8247695E+00
   1.8202459E-04   3.4015035E+05   -1.8242447E+00
   1.8286520E-04   3.3730372E+05   -1.8237192E+00
   1.8370969E-04   3.3448173E+05   -1.8231929E+00
   1.8455808E-04   3.3168415E+05   -1.8226660E+00
   1.8541039E-04   3.2891077E+05   -1.8221383E+00
   1.8626663E-04   3.2616137E+05   -1.8216099E+00
   1.8712683E-04   3.2343574E+05   -1.8210808E+00
   1.8799100E-04   3.2073367E+05   -1.8205511E+00
   1.8885917E-04   3.1805495E+05   -1.8200206E+00
   1.8973134E-04   3.1539938E+05   -1.8194895E+00
   1.9060754E-04   3.1276674E+05   -1.8189577E+00
   1.9148778E-04   3.1015684E+05   -1.8184252E+00
   1.9237209E-04   3.0756947E+05   -1.8178920E+00
   1.9326049E-04   3.0500443E+05   -1.8173582E+00
   1.9415299E-04   3.0246154E+05   -1.8168237E+00
   1.9504960E-04   2.9994058E+05   -1.8162885E+00
   1.9595036E-04   2.9744137E+05   -1.8157527E+00
   1.9685528E-04   2.9496371E+05   -1.8152162E+00
   1.9776438E-04   2.9250741E+05   -1.8146791E+00
   1.9867768E-04   2.9007228E+05   -1.8141414E+00
   1.9959519E-04   2.8765815E+05   -1.8136030E+00
   2.0051694E-04   2.8526481E+05   -1.8130640E+00
   2.0144295E-04   2.8289208E+05   -1.8125243E+00
   2.0237324E-04   2.8053979E+05   -1.8119841E+00
   2.0330782E-04   2.7820775E+05   -1.8114432E+00
   2.0424671E-04   2.7589579E+05   -1.8109017E+00
   2.0518995E-04   2.7360372E+05   -1.8103596E+00
   2.0613754E-04   2.7133137E+05   -1.8098169E+00
   2.0708950E-04   2.6907857E+05   -1.8092736E+00
   2.0804586E-04   2.6684514E+05   -1.8087297E+00
   2.0900664E-04   2.6463091E+05   -1.8081852E+00
   2.0997185E-04   2.6243572E+05   -1.8076401E+00
   2.1094152E-04   2.6025938E+05   -1.8070944E+00
   2.1191567E-04   2.5810175E+05   -1.8065482E+00
   2.1289432E-04   2.5596265E+05   -1.8060014E+00
   2.1387749E-04   2.5384191E+05   -1.8054540E+00
   2.1486520E-04   2.5173938E+05   -1.8049061E+00
   2.1585747E-04   2.4965490E+05   -1.8043576E+00
   2.1685432E-04   2.4758830E+05   -1.8038086E+00
   2.1785578E-04   2.4553943E+05   -1.8032590E+00
   2.1886186E-04   2.4350814E+05   -1.8027089E+00
   2.1987259E-04   2.4149426E+05   -1.8021583E+00
   2.2088798E-04   2.3949764E+05   -1.8016071E+00
   2.2190807E-04   2.3751813E+05   -1.8010554E+00
   2.2293286E-04   2.3555559E+05   -1.8005031E+00
   2.2396239E-04   2.3360985E+05   -1.7999504E+00
   2.2499667E-04   2.3168078E+05   -1.7993972E+00
   2.2603573E-04   2.2976823E+05   -1.7988434E+00
   2.2707958E-04   2.2787204E+05   -1.7982891E+00
   2.2812826E-04   2.2599208E+05   -1.7977344E+00
   2.2918178E-04   2.2412820E+05   -1.7971792E+00
   2.3024017E-04   2.2228026E+05   -1.7966234E+00
   2.3130344E-04   2.2044813E+05   -1.7960672E+00
   2.3237162E-04   2.1863165E+05   -1.7955106E+00
   2.3344474E-04   2.1683070E+05   -1.7949534E+00
   2.3452281E-04   2.1504514E+05   -1.7943958E+00
   2.3560586E-04   2.1327483E+05   -1.7938378E+00
   2.3669392E-04   2.1151964E+05   -1.7932793E+00
   2.3778699E-04   2.0977943E+05   -1.7927203E+00
   2.3888512E-04   2.0805408E+05   -1.7921609E+00
   2.3998831E-04   2.0634344E+05   -1.7916011E+00
   2.4109661E-04   2.0464740E+05   -1.7910408E+00
   2.4221001E-04   2.0296583E+05   -1.7904801E+00
   2.4332857E-04   2.0129859E+05   -1.7899190E+00
   2.4445228E-04   1.9964557E+05   -1.7893575E+00
   2.4558119E-04   1.9800663E+05   -1.7887956E+00
   2.4671531E-04   1.9638165E+05   -1.7882333E+00
   2.4785467E-04   1.9477052E+05   -1.7876705E+00
   2.4899928E-04   1.9317310E+05   -1.7871074E+00
   2.5014919E-04   1.9158928E+05   -1.7865439E+00
   2.5130440E-04   1.9001894E+05   -1.7859800E+00
   2.5246495E-04   1.8846197E+05   -1.7854158E+00
   2.5363086E-04   1.8691823E+05   -1.7848512E+00
   2.5480216E-04   1.8538762E+05   -1.7842862E+00
   2.5597886E-04   1.8387003E+05   -1.7837208E+00
   2.5716100E-04   1.8236533E+05   -1.7831551E+00
   2.5834859E-04   1.8087342E+05   -1.7825891E+00
   2.5954168E-04   1.7939419E+05   -1.7820227E+00
   2.6074027E-04   1.7792751E+05   -1.7814560E+00
   2.6194439E-04   1.7647329E+05   -1.7808889E+00
   2.6315408E-04   1.7503141E+05   -1.7803216E+00
   2.6436935E-04   1.7360176E+05   -1.7797539E+00
   2.6559024E-04   1.7218424E+05   -1.7791859E+00
   2.6681676E-04   1.7077875E+05   -1.7786176E+00
   2.6804895E-04   1.6938517E+05   -1.7780490E+00
   2.6928683E-04   1.6800340E+05   -1.7774801E+00
   2.7053042E-04   1.6663334E+05   -1.7769109E+00
   2.7177976E-04   1.6527489E+05   -1.7763414E+00
   2.7303487E-04   1.6392794E+05   -1.7757716E+00
   2.7429577E-04   1.6259240E+05   -1.7752016E+00
   2.7556250E-04   1.6126816E+05   -1.7746313E+00
   2.7683507E-04   1.5995512E+05   -1.7740608E+00
   2.7811353E-04   1.5865320E+05   -1.7734900E+00
   2.7939788E-04   1.5736228E+05   -1.7729189E+00
   2.8068817E-04   1.5608228E+05   -1.7723476E+00
   2.8198442E-04   1.5481310E+05   -1.7717761E+00
   2.8328665E-04   1.5355465E+05   -1.7712044E+00
   2.8459490E-04   1.5230682E+05   -1.7706324E+00
   2.8590919E-04   1.5106953E+05   -1.7700602E+00
   2.8722955E-04   1.4984269E+05   -1.7694878E+00
   2.8855600E-04   1.4862621E+05   -1.7689152E+00
   2.8988859E-04   1.4741999E+05   -1.7683423E+00
   2.9122732E-04   1.4622394E+05   -1.7677693E+00
   2.9257224E-04   1.4503798E+05   -1.7671961E+00
   2.9392337E-04   1.4386202E+05   -1.7666227E+00
   2.9528074E-04   1.4269598E+05   -1.7660492E+00
   2.9664438E-04   1.4153975E+05   -1.7654755E+00
   2.9801431E-04   1.4039327E+05   -1.7649016E+00
   2.9939057E-04   1.3925644E+05   -1.7643275E+00
   3.0077319E-04   1.3812919E+05   -1.7637533E+00
   3.0216219E-04   1.3701142E+05   -1.7631790E+00
   3.0355761E-04   1.3590305E+05   -1.7626045E+00
   3.0495947E-04   1.3480401E+05   -1.7620299E+00
   3.0636780E-04   1.3371421E+05   -1.7614551E+00
   3.0778264E-04   1.3263357E+05   -1.7608802E+00
   3.0920401E-04   1.3156202E+05   -1.7603052E+00
   3.1063195E-04   1.3049946E+05   -1.7597301E+00
   3.1206648E-04   1.2944583E+05   -1.7591549E+00
   3.1350764E-04   1.2840105E+05   -1.7585796E+00
   3.1495545E-04   1.2736504E+05   -1.7580042E+00
   3.1640994E-04   1.2633772E+05   -1.7574288E+00
   3.1787116E-04   1.2531903E+05   -1.7568532E+00
   3.1933912E-04   1.2430887E+05   -1.7562776E+00
   3.2081386E-04   1.2330719E+05   -1.7557019E+00
   3.2229541E-04   1.2231390E+05   -1.7551261E+00
   3.2378381E-04   1.2132893E+05   -1.7545503E+00
   3.2527908E-04   1.2035222E+05   -1.7539745E+00
   3.2678125E-04   1.1938368E+05   -1.7533985E+00
   3.2829036E-04   1.1842325E+05   -1.7528226E+00
   3.2980644E-04   1.1747086E+05   -1.7522466E+00
   3.3132952E-04   1.1652644E+05   -1.7516706E+00
   3.3285963E-04   1.1558992E+05   -1.7510946E+00
   3.3439681E-04   1.1466123E+05   -1.7505186E+00
   3.3594109E-04   1.1374031E+05   -1.7499426E+00
   3.3749250E-04   1.1282708E+05   -1.7493665E+00
   3.3905108E-04   1.1192148E+05   -1.7487905E+00
   3.4061685E-04   1.1102344E+05   -1.7482145E+00
   3.4218986E-04   1.1013290E+05   -1.7476385E+00
   3.4377013E-04   1.0924979E+05   -1.7470625E+00
   3.4535769E-04   1.0837406E+05   -1.7464866E+00
   3.4695259E-04   1.0750562E+05   -1.7459107E+00
   3.4855485E-04   1.0664443E+05   -1.7453348E+00
   3.5016452E-04   1.0579042E+05   -1.7447590E+00
   3.5178161E-04   1.0494353E+05   -1.7441832E+00
   3.5340618E-04   1.0410369E+05   -1.7436075E+00
   3.5503824E-04   1.0327085E+05   -1.7430319E+00
   3.5667785E-04   1.0244494E+05   -1.7424563E+00
   3.5832502E-04   1.0162591E+05   -1.7418808E+00
   3.5997981E-04   1.0081369E+05   -1.7413055E+00
   3.6164223E-04   1.0000823E+05   -1.7407301E+00
   3.6331233E-04   9.9209465E+04   -1.7401549E+00
   3.6499015E-04   9.8417342E+04   -1.7395798E+00
   3.6667571E-04   9.7631802E+04   -1.7390048E+00
   3.6836906E-04   9.6852789E+04   -1.7384300E+00
   3.7007022E-04   9.6080246E+04   -1.7378552E+00
   3.7177925E-04   9.5314118E+04   -1.7372806E+00
   3.7349616E-04   9.4554349E+04   -1.7367061E+00
   3.7522101E-04   9.3800884E+04   -1.7361317E+00
   3.7695382E-04   9.3053670E+04   -1.7355575E+00
   3.7869463E-04   9.2312652E+04   -1.7349835E+00
   3.8044348E-04   9.1577778E+04   -1.7344096E+00
   3.8220041E-04   9.0848994E+04   -1.7338359E+00
   3.8396545E-04   9.0126247E+04   -1.7332623E+00
   3.8573864E-04   8.9409487E+04   -1.7326889E+00
   3.8752002E-04   8.8698662E+04   -1.7321157E+00
   3.8930963E-04   8.7993719E+04   -1.7315427E+00
   3.9110750E-04   8.7294610E+04   -1.7309699E+00
   3.9291368E-04   8.6601284E+04   -1.7303972E+00
   3.9472820E-04   8.5913691E+04   -1.7298248E+00
   3.9655109E-04   8.5231782E+04   -1.7292526E+00
   3.9838241E-04   8.4555509E+04   -1.7286806E+00
   4.0022218E-04   8.3884822E+04   -1.7281089E+00
   4.0207045E-04   8.3219675E+04   -1.7275373E+00
   4.0392725E-04   8.2560019E+04   -1.7269660E+00
   4.0579263E-04   8.1905807E+04   -1.7263950E+00
   4.0766662E-04   8.1256993E+04   -1.7258242E+00
   4.0954927E-04   8.0613531E+04   -1.7252536E+00
   4.1144061E-04   7.9975375E+04   -1.7246833E+00
   4.1334068E-04   7.9342478E+04   -1.7241133E+00
   4.1524953E-04   7.8714797E+04   -1.7235435E+00
   4.1716720E-04   7.8092286E+04   -1.7229740E+00
   4.1909372E-04   7.7474902E+04   -1.7224048E+00
   4.2102914E-04   7.6862600E+04   -1.7218359E+00
   4.2297350E-04   7.6255337E+04   -1.7212673E+00
   4.2492683E-04   7.5653070E+04   -1.7206990E+00
   4.2688919E-04   7.5055756E+04   -1.7201310E+00
   4.2886061E-04   7.4463353E+04   -1.7195633E+00
   4.3084113E-04   7.3875820E+04   -1.7189959E+00
   4.3283080E-04   7.3293113E+04   -1.7184289E+00
   4.3482966E-04   7.2715193E+04   -1.7178621E+00
   4.3683775E-04   7.2142017E+04   -1.7172957E+00
   4.3885511E-04   7.1573547E+04   -1.7167297E+00
   4.4088179E-04   7.1009741E+04   -1.7161640E+00
   4.4291783E-04   7.0450560E+04   -1.7155986E+00
   4.4496327E-04   6.9895964E+04   -1.7150336E+00
   4.4701816E-04   6.9345915E+04   -1.7144690E+00
   4.4908253E-04   6.8800373E+04   -1.7139047E+00
   4.5115644E-04   6.8259300E+04   -1.7133408E+00
   4.5323993E-04   6.7722659E+04   -1.7127773E+00
   4.5533304E-04   6.7190411E+04   -1.7122142E+00
   4.5743582E-04   6.6662519E+04   -1.7116514E+00
   4.5954830E-04   6.6138946E+04   -1.7110891E+00
   4.6167054E-04   6.5619655E+04   -1.7105271E+00
   4.6380259E-04   6.5104609E+04   -1.7099656E+00
   4.6594448E-04   6.4593773E+04   -1.7094045E+00
   4.6809626E-04   6.4087111E+04   -1.7088438E+00
   4.7025797E-04   6.3584588E+04   -1.7082835E+00
   4.7242967E-04   6.3086167E+04   -1.7077237E+00
   4.7461140E-04   6.2591815E+04   -1.7071643E+00
   4.7680321E-04   6.2101497E+04   -1.7066053E+00
   4.7900514E-04   6.1615178E+04   -1.7060468E+00
   4.8121723E-04   6.1132825E+04   -1.7054887E+00
   4.8343954E-04   6.0654405E+04   -1.7049311E+00
   4.8567212E-04   6.0179882E+04   -1.7043739E+00
   4.8791500E-04   5.9709226E+04   -1.7038172E+00
   4.9016825E-04   5.9242402E+04   -1.7032610E+00
   4.9243189E-04   5.8779378E+04   -1.7027053E+00
   4.9470600E-04   5.8320123E+04   -1.7021500E+00
   4.9699060E-04   5.7864603E+04   -1.7015952E+00
   4.9928575E-04   5.7412789E+04   -1.7010410E+00
   5.0159151E-04   5.6964647E+04   -1.7004872E+00
   5.0390791E-04   5.6520148E+04   -1.6999339E+00
   5.0623501E-04   5.6079260E+04   -1.6993812E+00
   5.0857286E-04   5.5641953E+04   -1.6988289E+00
   5.1092150E-04   5.5208196E+04   -1.6982772E+00
   5.1328099E-04   5.4777960E+04   -1.6977260E+00
   5.1565137E-04   5.4351215E+04   -1.6971753E+00
   5.1803270E-04   5.3927931E+04   -1.6966252E+00
   5.2042503E-04   5.3508079E+04   -1.6960756E+00
   5.2282841E-04   5.3091631E+04   -1.6955265E+00
   5.2524289E-04   5.2678556E+04   -1.6949780E+00
   5.2766851E-04   5.2268828E+04   -1.6944301E+00
   5.3010534E-04   5.1862417E+04   -1.6938827E+00
   5.3255342E-04   5.1459296E+04   -1.6933358E+00
   5.3501281E-04   5.1059437E+04   -1.6927896E+00
   5.3748356E-04   5.0662812E+04   -1.6922439E+00
   5.3996571E-04   5.0269395E+04   -1.6916988E+00
   5.4245933E-04   4.9879158E+04   -1.6911543E+00
   5.4496446E-04   4.9492074E+04   -1.6906104E+00
   5.4748117E-04   4.9108118E+04   -1.6900670E+00
   5.5000949E-04   4.8727262E+04   -1.6895243E+00
   5.5254949E-04   4.8349480E+04   -1.6889821E+00
   5.5510123E-04   4.7974747E+04   -1.6884406E+00
   5.5766474E-04   4.7603038E+04   -1.6878997E+00
   5.6024010E-04   4.7234326E+04   -1.6873594E+00
   5.6282734E-04   4.6868586E+04   -1.6868197E+00
   5.6542654E-04   4.6505794E+04   -1.6862807E+00
   5.6803774E-04   4.6145925E+04   -1.6857423E+00
   5.7066099E-04   4.5788954E+04   -1.6852045E+00
   5.7329637E-04   4.5434857E+04   -1.6846674E+00
   5.7594391E-04   4.5083610E+04   -1.6841309E+00
   5.7860368E-04   4.4735188E+04   -1.6835950E+00
   5.8127573E-04   4.4389569E+04   -1.6830598E+00
   5.8396012E-04   4.4046729E+04   -1.6825253E+00
   5.8665691E-04   4.3706644E+04   -1.6819914E+00
   5.8936616E-04   4.3369292E+04   -1.6814582E+00
   5.9208791E-04   4.3034649E+04   -1.6809257E+00
   5.9482223E-04   4.2702693E+04   -1.6803938E+00
   5.9756919E-04   4.2373402E+04   -1.6798627E+00
   6.0032882E-04   4.2046752E+04   -1.6793322E+00
   6.0310120E-04   4.1722722E+04   -1.6788024E+00
   6.0588639E-04   4.1401291E+04   -1.6782733E+00
   6.0868443E-04   4.1082436E+04   -1.6777449E+00
   6.1149540E-04   4.0766136E+04   -1.6772172E+00
   6.1431935E-04   4.0452369E+04   -1.6766902E+00
   6.1715634E-04   4.0141115E+04   -1.6761639E+00
   6.2000644E-04   3.9832352E+04   -1.6756383E+00
   6.2286969E-04   3.9526060E+04   -1.6751134E+00
