#        a       HoverH0(a)       dlogHdloga_of_a(a)
   1.0000000E-04   1.0829782E+06   -1.8843988E+00
   1.0046181E-04   1.0736172E+06   -1.8839888E+00
   1.0092575E-04   1.0643391E+06   -1.8835778E+00
   1.0139184E-04   1.0551431E+06   -1.8831657E+00
   1.0186008E-04   1.0460286E+06   -1.8827527E+00
   1.0233048E-04   1.0369949E+06   -1.8823386E+00
   1.0280305E-04   1.0280411E+06   -1.8819236E+00
   1.0327781E-04   1.0191665E+06   -1.8815075E+00
   1.0375475E-04   1.0103705E+06   -1.8810904E+00
   1.0423390E-04   1.0016524E+06   -1.8806723E+00
   1.0471527E-04   9.9301135E+05   -1.8802532E+00
   1.0519885E-04   9.8444679E+05   -1.8798331E+00
   1.0568467E-04   9.7595798E+05   -1.8794120E+00
   1.0617274E-04   9.6754425E+05   -1.8789898E+00
   1.0666305E-04   9.5920493E+05   -1.8785667E+00
   1.0715563E-04   9.5093934E+05   -1.8781426E+00
   1.0765049E-04   9.4274681E+05   -1.8777174E+00
   1.0814763E-04   9.3462671E+05   -1.8772913E+00
   1.0864707E-04   9.2657836E+05   -1.8768642E+00
   1.0914881E-04   9.1860113E+05   -1.8764360E+00
   1.0965287E-04   9.1069438E+05   -1.8760069E+00
   1.1015926E-04   9.0285747E+05   -1.8755768E+00
   1.1066799E-04   8.9508978E+05   -1.8751456E+00
   1.1117906E-04   8.8739068E+05   -1.8747135E+00
   1.1169250E-04   8.7975955E+05   -1.8742804E+00
   1.1220831E-04   8.7219580E+05   -1.8738462E+00
   1.1272650E-04   8.6469880E+05   -1.8734111E+00
   1.1324708E-04   8.5726797E+05   -1.8729750E+00
   1.1377007E-04   8.4990270E+05   -1.8725379E+00
   1.1429547E-04   8.4260241E+05   -1.8720999E+00
   1.1482330E-04   8.3536652E+05   -1.8716608E+00
   1.1535356E-04   8.2819444E+05   -1.8712208E+00
   1.1588628E-04   8.2108561E+05   -1.8707797E+00
   1.1642145E-04   8.1403945E+05   -1.8703377E+00
   1.1695910E-04   8.0705540E+05   -1.8698947E+00
   1.1749923E-04   8.0013291E+05   -1.8694507E+00
   1.1804185E-04   7.9327141E+05   -1.8690058E+00
   1.1858698E-04   7.8647038E+05   -1.8685598E+00
   1.1913463E-04   7.7972925E+05   -1.8681129E+00
   1.1968481E-04   7.7304750E+05   -1.8676650E+00
   1.2023752E-04   7.6642459E+05   -1.8672162E+00
   1.2079279E-04   7.5985999E+05   -1.8667663E+00
   1.2135063E-04   7.5335319E+05   -1.8663155E+00
   1.2191104E-04   7.4690365E+05   -1.8658638E+00
   1.2247403E-04   7.4051088E+05   -1.8654110E+00
   1.2303963E-04   7.3417435E+05   -1.8649574E+00
   1.2360784E-04   7.2789357E+05   -1.8645027E+00
   1.2417868E-04   7.2166803E+05   -1.8640471E+00
   1.2475215E-04   7.1549724E+05   -1.8635905E+00
   1.2532826E-04   7.0938071E+05   -1.8631330E+00
   1.2590704E-04   7.0331795E+05   -1.8626745E+00
   1.2648850E-04   6.9730849E+05   -1.8622150E+00
   1.2707263E-04   6.9135183E+05   -1.8617546E+00
   1.2765947E-04   6.8544752E+05   -1.8612933E+00
   1.2824901E-04   6.7959507E+05   -1.8608310E+00
   1.2884128E-04   6.7379403E+05   -1.8603678E+00
   1.2943628E-04   6.6804394E+05   -1.8599036E+00
   1.3003403E-04   6.6234434E+05   -1.8594385E+00
   1.3063454E-04   6.5669477E+05   -1.8589724E+00
   1.3123783E-04   6.5109479E+05   -1.8585054E+00
   1.3184390E-04   6.4554395E+05   -1.8580375E+00
   1.3245277E-04   6.4004182E+05   -1.8575686E+00
   1.3306445E-04   6.3458796E+05   -1.8570988E+00
   1.3367895E-04   6.2918193E+05   -1.8566281E+00
   1.3429630E-04   6.2382331E+05   -1.8561564E+00
   1.3491649E-04   6.1851167E+05   -1.8556839E+00
   1.3553955E-04   6.1324660E+05   -1.8552104E+00
   1.3616548E-04   6.0802767E+05   -1.8547360E+00
   1.3679431E-04   6.0285448E+05   -1.8542606E+00
   1.3742604E-04   5.9772662E+05   -1.8537844E+00
   1.3806069E-04   5.9264367E+05   -1.8533072E+00
   1.3869827E-04   5.8760524E+05   -1.8528292E+00
   1.3933879E-04   5.8261093E+05   -1.8523502E+00
   1.3998227E-04   5.7766034E+05   -1.8518703E+00
   1.4062872E-04   5.7275309E+05   -1.8513895E+00
   1.4127816E-04   5.6788878E+05   -1.8509078E+00
   1.4193060E-04   5.6306704E+05   -1.8504253E+00
   1.4258605E-04   5.5828748E+05   -1.8499418E+00
   1.4324453E-04   5.5354972E+05   -1.8494574E+00
   1.4390605E-04   5.4885340E+05   -1.8489722E+00
   1.4457062E-04   5.4419813E+05   -1.8484860E+00
   1.4523826E-04   5.3958357E+05   -1.8479990E+00
   1.4590899E-04   5.3500933E+05   -1.8475111E+00
   1.4658281E-04   5.3047507E+05   -1.8470223E+00
   1.4725974E-04   5.2598041E+05   -1.8465327E+00
   1.4793981E-04   5.2152502E+05   -1.8460422E+00
   1.4862301E-04   5.1710854E+05   -1.8455508E+00
   1.4930936E-04   5.1273062E+05   -1.8450585E+00
   1.4999889E-04   5.0839092E+05   -1.8445654E+00
   1.5069160E-04   5.0408910E+05   -1.8440714E+00
   1.5138751E-04   4.9982481E+05   -1.8435765E+00
   1.5208663E-04   4.9559773E+05   -1.8430808E+00
   1.5278899E-04   4.9140752E+05   -1.8425843E+00
   1.5349458E-04   4.8725386E+05   -1.8420869E+00
   1.5420343E-04   4.8313641E+05   -1.8415887E+00
   1.5491556E-04   4.7905486E+05   -1.8410896E+00
   1.5563098E-04   4.7500888E+05   -1.8405896E+00
   1.5634970E-04   4.7099816E+05   -1.8400889E+00
   1.5707174E-04   4.6702238E+05   -1.8395873E+00
   1.5779711E-04   4.6308123E+05   -1.8390849E+00
   1.5852584E-04   4.5917440E+05   -1.8385816E+00
   1.5925792E-04   4.5530159E+05   -1.8380776E+00
   1.5999339E-04   4.5146250E+05   -1.8375727E+00
   1.6073226E-04   4.4765682E+05   -1.8370670E+00
   1.6147454E-04   4.4388425E+05   -1.8365605E+00
   1.6222024E-04   4.4014451E+05   -1.8360531E+00
   1.6296939E-04   4.3643729E+05   -1.8355450E+00
   1.6372200E-04   4.3276231E+05   -1.8350361E+00
   1.6447809E-04   4.2911929E+05   -1.8345263E+00
   1.6523767E-04   4.2550793E+05   -1.8340158E+00
   1.6600075E-04   4.2192796E+05   -1.8335045E+00
   1.6676736E-04   4.1837909E+05   -1.8329924E+00
   1.6753751E-04   4.1486106E+05   -1.8324795E+00
   1.6831122E-04   4.1137357E+05   -1.8319658E+00
   1.6908849E-04   4.0791638E+05   -1.8314514E+00
   1.6986936E-04   4.0448919E+05   -1.8309362E+00
   1.7065384E-04   4.0109175E+05   -1.8304202E+00
   1.7144193E-04   3.9772380E+05   -1.8299034E+00
   1.7223367E-04   3.9438506E+05   -1.8293859E+00
   1.7302906E-04   3.9107529E+05   -1.8288676E+00
   1.7382813E-04   3.8779422E+05   -1.8283486E+00
   1.7463089E-04   3.8454159E+05   -1.8278288E+00
   1.7543735E-04   3.8131717E+05   -1.8273083E+00
   1.7624754E-04   3.7812068E+05   -1.8267870E+00
   1.7706147E-04   3.7495190E+05   -1.8262650E+00
   1.7787916E-04   3.7181056E+05   -1.8257423E+00
   1.7870062E-04   3.6869643E+05   -1.8252188E+00
   1.7952588E-04   3.6560926E+05   -1.8246946E+00
   1.8035495E-04   3.6254882E+05   -1.8241697E+00
   1.8118785E-04   3.5951487E+05   -1.8236441E+00
   1.8202459E-04   3.5650718E+05   -1.8231177E+00
   1.8286520E-04   3.5352550E+05   -1.8225906E+00
   1.8370969E-04   3.5056961E+05   -1.8220629E+00
   1.8455808E-04   3.4763928E+05   -1.8215344E+00
   1.8541039E-04   3.4473429E+05   -1.8210052E+00
   1.8626663E-04   3.4185441E+05   -1.8204754E+00
   1.8712683E-04   3.3899941E+05   -1.8199448E+00
   1.8799100E-04   3.3616908E+05   -1.8194136E+00
   1.8885917E-04   3.3336319E+05   -1.8188817E+00
   1.8973134E-04   3.3058154E+05   -1.8183491E+00
   1.9060754E-04   3.2782390E+05   -1.8178158E+00
   1.9148778E-04   3.2509007E+05   -1.8172819E+00
   1.9237209E-04   3.2237982E+05   -1.8167473E+00
   1.9326049E-04   3.1969296E+05   -1.8162121E+00
   1.9415299E-04   3.1702927E+05   -1.8156762E+00
   1.9504960E-04   3.1438856E+05   -1.8151396E+00
   1.9595036E-04   3.1177061E+05   -1.8146024E+00
   1.9685528E-04   3.0917523E+05   -1.8140646E+00
   1.9776438E-04   3.0660222E+05   -1.8135261E+00
   1.9867768E-04   3.0405137E+05   -1.8129870E+00
   1.9959519E-04   3.0152249E+05   -1.8124473E+00
   2.0051694E-04   2.9901540E+05   -1.8119069E+00
   2.0144295E-04   2.9652988E+05   -1.8113659E+00
   2.0237324E-04   2.9406576E+05   -1.8108243E+00
   2.0330782E-04   2.9162285E+05   -1.8102822E+00
   2.0424671E-04   2.8920095E+05   -1.8097394E+00
   2.0518995E-04   2.8679988E+05   -1.8091960E+00
   2.0613754E-04   2.8441946E+05   -1.8086520E+00
   2.0708950E-04   2.8205950E+05   -1.8081074E+00
   2.0804586E-04   2.7971983E+05   -1.8075622E+00
   2.0900664E-04   2.7740027E+05   -1.8070165E+00
   2.0997185E-04   2.7510063E+05   -1.8064702E+00
   2.1094152E-04   2.7282074E+05   -1.8059233E+00
   2.1191567E-04   2.7056043E+05   -1.8053759E+00
   2.1289432E-04   2.6831952E+05   -1.8048279E+00
   2.1387749E-04   2.6609784E+05   -1.8042793E+00
   2.1486520E-04   2.6389523E+05   -1.8037302E+00
   2.1585747E-04   2.6171151E+05   -1.8031805E+00
   2.1685432E-04   2.5954652E+05   -1.8026304E+00
   2.1785578E-04   2.5740009E+05   -1.8020796E+00
   2.1886186E-04   2.5527206E+05   -1.8015284E+00
   2.1987259E-04   2.5316227E+05   -1.8009766E+00
   2.2088798E-04   2.5107055E+05   -1.8004243E+00
   2.2190807E-04   2.4899675E+05   -1.7998715E+00
   2.2293286E-04   2.4694071E+05   -1.7993182E+00
   2.2396239E-04   2.4490227E+05   -1.7987643E+00
   2.2499667E-04   2.4288127E+05   -1.7982100E+00
   2.2603573E-04   2.4087757E+05   -1.7976552E+00
   2.2707958E-04   2.3889101E+05   -1.7970999E+00
   2.2812826E-04   2.3692144E+05   -1.7965441E+00
   2.2918178E-04   2.3496871E+05   -1.7959878E+00
   2.3024017E-04   2.3303268E+05   -1.7954311E+00
   2.3130344E-04   2.3111318E+05   -1.7948739E+00
   2.3237162E-04   2.2921009E+05   -1.7943162E+00
   2.3344474E-04   2.2732326E+05   -1.7937581E+00
   2.3452281E-04   2.2545253E+05   -1.7931995E+00
   2.3560586E-04   2.2359778E+05   -1.7926405E+00
   2.3669392E-04   2.2175885E+05   -1.7920811E+00
   2.3778699E-04   2.1993562E+05   -1.7915212E+00
   2.3888512E-04   2.1812794E+05   -1.7909608E+00
   2.3998831E-04   2.1633568E+05   -1.7904001E+00
   2.4109661E-04   2.1455869E+05   -1.7898389E+00
   2.4221001E-04   2.1279686E+05   -1.7892774E+00
   2.4332857E-04   2.1105003E+05   -1.7887154E+00
   2.4445228E-04   2.0931809E+05   -1.7881530E+00
   2.4558119E-04   2.0760090E+05   -1.7875902E+00
   2.4671531E-04   2.0589833E+05   -1.7870271E+00
   2.4785467E-04   2.0421026E+05   -1.7864635E+00
   2.4899928E-04   2.0253655E+05   -1.7858996E+00
   2.5014919E-04   2.0087708E+05   -1.7853353E+00
   2.5130440E-04   1.9923172E+05   -1.7847706E+00
   2.5246495E-04   1.9760036E+05   -1.7842055E+00
   2.5363086E-04   1.9598286E+05   -1.7836401E+00
   2.5480216E-04   1.9437911E+05   -1.7830744E+00
   2.5597886E-04   1.9278899E+05   -1.7825083E+00
   2.5716100E-04   1.9121238E+05   -1.7819419E+00
   2.5834859E-04   1.8964915E+05   -1.7813751E+00
   2.5954168E-04   1.8809919E+05   -1.7808080E+00
   2.6074027E-04   1.8656239E+05   -1.7802406E+00
   2.6194439E-04   1.8503863E+05   -1.7796729E+00
   2.6315408E-04   1.8352780E+05   -1.7791048E+00
   2.6436935E-04   1.8202977E+05   -1.7785365E+00
   2.6559024E-04   1.8054445E+05   -1.7779678E+00
   2.6681676E-04   1.7907172E+05   -1.7773989E+00
   2.6804895E-04   1.7761147E+05   -1.7768297E+00
   2.6928683E-04   1.7616358E+05   -1.7762601E+00
   2.7053042E-04   1.7472796E+05   -1.7756904E+00
   2.7177976E-04   1.7330449E+05   -1.7751203E+00
   2.7303487E-04   1.7189307E+05   -1.7745500E+00
   2.7429577E-04   1.7049359E+05   -1.7739794E+00
   2.7556250E-04   1.6910596E+05   -1.7734086E+00
   2.7683507E-04   1.6773005E+05   -1.7728375E+00
   2.7811353E-04   1.6636578E+05   -1.7722661E+00
   2.7939788E-04   1.6501304E+05   -1.7716946E+00
   2.8068817E-04   1.6367173E+05   -1.7711228E+00
   2.8198442E-04   1.6234175E+05   -1.7705508E+00
   2.8328665E-04   1.6102301E+05   -1.7699786E+00
   2.8459490E-04   1.5971540E+05   -1.7694061E+00
   2.8590919E-04   1.5841882E+05   -1.7688335E+00
   2.8722955E-04   1.5713318E+05   -1.7682606E+00
   2.8855600E-04   1.5585839E+05   -1.7676876E+00
   2.8988859E-04   1.5459435E+05   -1.7671144E+00
   2.9122732E-04   1.5334097E+05   -1.7665410E+00
   2.9257224E-04   1.5209815E+05   -1.7659674E+00
   2.9392337E-04   1.5086580E+05   -1.7653936E+00
   2.9528074E-04   1.4964383E+05   -1.7648197E+00
   2.9664438E-04   1.4843215E+05   -1.7642457E+00
   2.9801431E-04   1.4723067E+05   -1.7636714E+00
   2.9939057E-04   1.4603931E+05   -1.7630971E+00
   3.0077319E-04   1.4485797E+05   -1.7625226E+00
   3.0216219E-04   1.4368656E+05   -1.7619479E+00
   3.0355761E-04   1.4252501E+05   -1.7613732E+00
   3.0495947E-04   1.4137322E+05   -1.7607983E+00
   3.0636780E-04   1.4023110E+05   -1.7602233E+00
   3.0778264E-04   1.3909859E+05   -1.7596482E+00
   3.0920401E-04   1.3797558E+05   -1.7590729E+00
   3.1063195E-04   1.3686201E+05   -1.7584976E+00
   3.1206648E-04   1.3575778E+05   -1.7579222E+00
   3.1350764E-04   1.3466282E+05   -1.7573467E+00
   3.1495545E-04   1.3357704E+05   -1.7567712E+00
   3.1640994E-04   1.3250037E+05   -1.7561955E+00
   3.1787116E-04   1.3143273E+05   -1.7556198E+00
   3.1933912E-04   1.3037404E+05   -1.7550441E+00
   3.2081386E-04   1.2932421E+05   -1.7544682E+00
   3.2229541E-04   1.2828318E+05   -1.7538924E+00
   3.2378381E-04   1.2725087E+05   -1.7533165E+00
   3.2527908E-04   1.2622720E+05   -1.7527405E+00
   3.2678125E-04   1.2521210E+05   -1.7521645E+00
   3.2829036E-04   1.2420549E+05   -1.7515885E+00
   3.2980644E-04   1.2320730E+05   -1.7510125E+00
   3.3132952E-04   1.2221745E+05   -1.7504365E+00
   3.3285963E-04   1.2123588E+05   -1.7498605E+00
   3.3439681E-04   1.2026252E+05   -1.7492844E+00
   3.3594109E-04   1.1929728E+05   -1.7487084E+00
   3.3749250E-04   1.1834011E+05   -1.7481324E+00
   3.3905108E-04   1.1739092E+05   -1.7475564E+00
   3.4061685E-04   1.1644966E+05   -1.7469804E+00
   3.4218986E-04   1.1551626E+05   -1.7464045E+00
   3.4377013E-04   1.1459063E+05   -1.7458286E+00
   3.4535769E-04   1.1367273E+05   -1.7452528E+00
   3.4695259E-04   1.1276248E+05   -1.7446769E+00
   3.4855485E-04   1.1185982E+05   -1.7441012E+00
   3.5016452E-04   1.1096467E+05   -1.7435255E+00
   3.5178161E-04   1.1007698E+05   -1.7429499E+00
   3.5340618E-04   1.0919668E+05   -1.7423743E+00
   3.5503824E-04   1.0832371E+05   -1.7417989E+00
   3.5667785E-04   1.0745800E+05   -1.7412235E+00
   3.5832502E-04   1.0659949E+05   -1.7406482E+00
   3.5997981E-04   1.0574813E+05   -1.7400730E+00
   3.6164223E-04   1.0490384E+05   -1.7394979E+00
   3.6331233E-04   1.0406656E+05   -1.7389230E+00
   3.6499015E-04   1.0323625E+05   -1.7383481E+00
   3.6667571E-04   1.0241282E+05   -1.7377734E+00
   3.6836906E-04   1.0159624E+05   -1.7371988E+00
   3.7007022E-04   1.0078643E+05   -1.7366243E+00
   3.7177925E-04   9.9983344E+04   -1.7360500E+00
   3.7349616E-04   9.9186918E+04   -1.7354758E+00
   3.7522101E-04   9.8397096E+04   -1.7349018E+00
   3.7695382E-04   9.7613821E+04   -1.7343279E+00
   3.7869463E-04   9.6837038E+04   -1.7337542E+00
   3.8044348E-04   9.6066691E+04   -1.7331806E+00
   3.8220041E-04   9.5302723E+04   -1.7326073E+00
   3.8396545E-04   9.4545080E+04   -1.7320341E+00
   3.8573864E-04   9.3793708E+04   -1.7314611E+00
   3.8752002E-04   9.3048554E+04   -1.7308883E+00
   3.8930963E-04   9.2309562E+04   -1.7303157E+00
   3.9110750E-04   9.1576681E+04   -1.7297433E+00
   3.9291368E-04   9.0849859E+04   -1.7291712E+00
   3.9472820E-04   9.0129042E+04   -1.7285992E+00
   3.9655109E-04   8.9414180E+04   -1.7280275E+00
   3.9838241E-04   8.8705222E+04   -1.7274560E+00
   4.0022218E-04   8.8002116E+04   -1.7268847E+00
   4.0207045E-04   8.7304814E+04   -1.7263137E+00
   4.0392725E-04   8.6613265E+04   -1.7257429E+00
   4.0579263E-04   8.5927419E+04   -1.7251724E+00
   4.0766662E-04   8.5247228E+04   -1.7246022E+00
   4.0954927E-04   8.4572644E+04   -1.7240322E+00
   4.1144061E-04   8.3903618E+04   -1.7234625E+00
   4.1334068E-04   8.3240103E+04   -1.7228930E+00
   4.1524953E-04   8.2582052E+04   -1.7223239E+00
   4.1716720E-04   8.1929418E+04   -1.7217550E+00
   4.1909372E-04   8.1282154E+04   -1.7211864E+00
   4.2102914E-04   8.0640215E+04   -1.7206182E+00
   4.2297350E-04   8.0003555E+04   -1.7200502E+00
   4.2492683E-04   7.9372130E+04   -1.7194825E+00
   4.2688919E-04   7.8745894E+04   -1.7189152E+00
   4.2886061E-04   7.8124803E+04   -1.7183482E+00
   4.3084113E-04   7.7508813E+04   -1.7177815E+00
   4.3283080E-04   7.6897881E+04   -1.7172152E+00
   4.3482966E-04   7.6291963E+04   -1.7166492E+00
   4.3683775E-04   7.5691017E+04   -1.7160835E+00
   4.3885511E-04   7.5095000E+04   -1.7155182E+00
   4.4088179E-04   7.4503870E+04   -1.7149533E+00
   4.4291783E-04   7.3917586E+04   -1.7143887E+00
   4.4496327E-04   7.3336106E+04   -1.7138245E+00
   4.4701816E-04   7.2759390E+04   -1.7132606E+00
   4.4908253E-04   7.2187396E+04   -1.7126972E+00
   4.5115644E-04   7.1620085E+04   -1.7121341E+00
   4.5323993E-04   7.1057417E+04   -1.7115714E+00
   4.5533304E-04   7.0499351E+04   -1.7110091E+00
   4.5743582E-04   6.9945850E+04   -1.7104473E+00
   4.5954830E-04   6.9396874E+04   -1.7098858E+00
   4.6167054E-04   6.8852385E+04   -1.7093247E+00
   4.6380259E-04   6.8312345E+04   -1.7087641E+00
   4.6594448E-04   6.7776715E+04   -1.7082039E+00
   4.6809626E-04   6.7245458E+04   -1.7076441E+00
   4.7025797E-04   6.6718538E+04   -1.7070848E+00
   4.7242967E-04   6.6195917E+04   -1.7065259E+00
   4.7461140E-04   6.5677559E+04   -1.7059674E+00
   4.7680321E-04   6.5163427E+04   -1.7054094E+00
   4.7900514E-04   6.4653487E+04   -1.7048518E+00
   4.8121723E-04   6.4147701E+04   -1.7042948E+00
   4.8343954E-04   6.3646036E+04   -1.7037381E+00
   4.8567212E-04   6.3148456E+04   -1.7031820E+00
   4.8791500E-04   6.2654927E+04   -1.7026263E+00
   4.9016825E-04   6.2165413E+04   -1.7020711E+00
   4.9243189E-04   6.1679882E+04   -1.7015165E+00
   4.9470600E-04   6.1198300E+04   -1.7009623E+00
   4.9699060E-04   6.0720632E+04   -1.7004086E+00
   4.9928575E-04   6.0246846E+04   -1.6998554E+00
   5.0159151E-04   5.9776910E+04   -1.6993027E+00
   5.0390791E-04   5.9310790E+04   -1.6987505E+00
   5.0623501E-04   5.8848454E+04   -1.6981989E+00
   5.0857286E-04   5.8389870E+04   -1.6976477E+00
   5.1092150E-04   5.7935008E+04   -1.6970971E+00
   5.1328099E-04   5.7483834E+04   -1.6965471E+00
   5.1565137E-04   5.7036319E+04   -1.6959976E+00
   5.1803270E-04   5.6592430E+04   -1.6954486E+00
   5.2042503E-04   5.6152138E+04   -1.6949002E+00
   5.2282841E-04   5.5715413E+04   -1.6943523E+00
   5.2524289E-04   5.5282223E+04   -1.6938050E+00
   5.2766851E-04   5.4852540E+04   -1.6932582E+00
   5.3010534E-04   5.4426333E+04   -1.6927121E+00
   5.3255342E-04   5.4003574E+04   -1.6921665E+00
   5.3501281E-04   5.3584234E+04   -1.6916215E+00
   5.3748356E-04   5.3168283E+04   -1.6910770E+00
   5.3996571E-04   5.2755693E+04   -1.6905332E+00
   5.4245933E-04   5.2346436E+04   -1.6899899E+00
   5.4496446E-04   5.1940484E+04   -1.6894473E+00
   5.4748117E-04   5.1537809E+04   -1.6889052E+00
   5.5000949E-04   5.1138383E+04   -1.6883638E+00
   5.5254949E-04   5.0742179E+04   -1.6878230E+00
   5.5510123E-04   5.0349171E+04   -1.6872828E+00
   5.5766474E-04   4.9959330E+04   -1.6867432E+00
   5.6024010E-04   4.9572632E+04   -1.6862042E+00
   5.6282734E-04   4.9189048E+04   -1.6856659E+00
   5.6542654E-04   4.8808553E+04   -1.6851282E+00
   5.6803774E-04   4.8431122E+04   -1.6845912E+00
   5.7066099E-04   4.8056728E+04   -1.6840548E+00
   5.7329637E-04   4.7685346E+04   -1.6835191E+00
   5.7594391E-04   4.7316951E+04   -1.6829840E+00
   5.7860368E-04   4.6951518E+04   -1.6824495E+00
   5.8127573E-04   4.6589022E+04   -1.6819158E+00
   5.8396012E-04   4.6229438E+04   -1.6813827E+00
   5.8665691E-04   4.5872741E+04   -1.6808502E+00
   5.8936616E-04   4.5518909E+04   -1.6803185E+00
   5.9208791E-04   4.5167917E+04   -1.6797874E+00
   5.9482223E-04   4.4819740E+04   -1.6792570E+00
   5.9756919E-04   4.4474356E+04   -1.6787273E+00
   6.0032882E-04   4.4131741E+04   -1.6781983E+00
   6.0310120E-04   4.3791873E+04   -1.6776700E+00
   6.0588639E-04   4.3454727E+04   -1.6771424E+00
   6.0868443E-04   4.3120282E+04   -1.6766155E+00
   6.1149540E-04   4.2788514E+04   -1.6760893E+00
   6.1431935E-04   4.2459403E+04   -1.6755638E+00
   6.1715634E-04   4.2132924E+04   -1.6750391E+00
   6.2000644E-04   4.1809057E+04   -1.6745151E+00
   6.2286969E-04   4.1487779E+04   -1.6739918E+00
