#        a       HoverH0(a)       dlogHdloga_of_a(a)
   1.0000000E-04   1.1449686E+06   -1.8911554E+00
   1.0046181E-04   1.1350364E+06   -1.8907626E+00
   1.0092575E-04   1.1251923E+06   -1.8903687E+00
   1.0139184E-04   1.1154356E+06   -1.8899738E+00
   1.0186008E-04   1.1057656E+06   -1.8895779E+00
   1.0233048E-04   1.0961814E+06   -1.8891810E+00
   1.0280305E-04   1.0866823E+06   -1.8887830E+00
   1.0327781E-04   1.0772674E+06   -1.8883840E+00
   1.0375475E-04   1.0679361E+06   -1.8879840E+00
   1.0423390E-04   1.0586875E+06   -1.8875830E+00
   1.0471527E-04   1.0495210E+06   -1.8871810E+00
   1.0519885E-04   1.0404358E+06   -1.8867780E+00
   1.0568467E-04   1.0314312E+06   -1.8863739E+00
   1.0617274E-04   1.0225064E+06   -1.8859688E+00
   1.0666305E-04   1.0136607E+06   -1.8855627E+00
   1.0715563E-04   1.0048934E+06   -1.8851556E+00
   1.0765049E-04   9.9620387E+05   -1.8847475E+00
   1.0814763E-04   9.8759129E+05   -1.8843383E+00
   1.0864707E-04   9.7905502E+05   -1.8839282E+00
   1.0914881E-04   9.7059438E+05   -1.8835170E+00
   1.0965287E-04   9.6220867E+05   -1.8831048E+00
   1.1015926E-04   9.5389722E+05   -1.8826916E+00
   1.1066799E-04   9.4565937E+05   -1.8822774E+00
   1.1117906E-04   9.3749446E+05   -1.8818622E+00
   1.1169250E-04   9.2940182E+05   -1.8814460E+00
   1.1220831E-04   9.2138080E+05   -1.8810287E+00
   1.1272650E-04   9.1343077E+05   -1.8806105E+00
   1.1324708E-04   9.0555108E+05   -1.8801912E+00
   1.1377007E-04   8.9774111E+05   -1.8797710E+00
   1.1429547E-04   8.9000021E+05   -1.8793497E+00
   1.1482330E-04   8.8232778E+05   -1.8789274E+00
   1.1535356E-04   8.7472320E+05   -1.8785041E+00
   1.1588628E-04   8.6718585E+05   -1.8780798E+00
   1.1642145E-04   8.5971512E+05   -1.8776546E+00
   1.1695910E-04   8.5231044E+05   -1.8772283E+00
   1.1749923E-04   8.4497118E+05   -1.8768010E+00
   1.1804185E-04   8.3769678E+05   -1.8763727E+00
   1.1858698E-04   8.3048664E+05   -1.8759434E+00
   1.1913463E-04   8.2334020E+05   -1.8755131E+00
   1.1968481E-04   8.1625687E+05   -1.8750818E+00
   1.2023752E-04   8.0923608E+05   -1.8746495E+00
   1.2079279E-04   8.0227729E+05   -1.8742163E+00
   1.2135063E-04   7.9537993E+05   -1.8737820E+00
   1.2191104E-04   7.8854344E+05   -1.8733467E+00
   1.2247403E-04   7.8176729E+05   -1.8729105E+00
   1.2303963E-04   7.7505092E+05   -1.8724733E+00
   1.2360784E-04   7.6839380E+05   -1.8720350E+00
   1.2417868E-04   7.6179541E+05   -1.8715958E+00
   1.2475215E-04   7.5525520E+05   -1.8711556E+00
   1.2532826E-04   7.4877267E+05   -1.8707144E+00
   1.2590704E-04   7.4234729E+05   -1.8702723E+00
   1.2648850E-04   7.3597854E+05   -1.8698291E+00
   1.2707263E-04   7.2966593E+05   -1.8693850E+00
   1.2765947E-04   7.2340894E+05   -1.8689399E+00
   1.2824901E-04   7.1720708E+05   -1.8684938E+00
   1.2884128E-04   7.1105985E+05   -1.8680467E+00
   1.2943628E-04   7.0496677E+05   -1.8675987E+00
   1.3003403E-04   6.9892734E+05   -1.8671497E+00
   1.3063454E-04   6.9294109E+05   -1.8666997E+00
   1.3123783E-04   6.8700753E+05   -1.8662488E+00
   1.3184390E-04   6.8112620E+05   -1.8657969E+00
   1.3245277E-04   6.7529662E+05   -1.8653440E+00
   1.3306445E-04   6.6951834E+05   -1.8648902E+00
   1.3367895E-04   6.6379088E+05   -1.8644354E+00
   1.3429630E-04   6.5811381E+05   -1.8639796E+00
   1.3491649E-04   6.5248666E+05   -1.8635229E+00
   1.3553955E-04   6.4690898E+05   -1.8630652E+00
   1.3616548E-04   6.4138035E+05   -1.8626066E+00
   1.3679431E-04   6.3590030E+05   -1.8621470E+00
   1.3742604E-04   6.3046842E+05   -1.8616864E+00
   1.3806069E-04   6.2508426E+05   -1.8612249E+00
   1.3869827E-04   6.1974740E+05   -1.8607625E+00
   1.3933879E-04   6.1445741E+05   -1.8602991E+00
   1.3998227E-04   6.0921389E+05   -1.8598348E+00
   1.4062872E-04   6.0401640E+05   -1.8593695E+00
   1.4127816E-04   5.9886454E+05   -1.8589033E+00
   1.4193060E-04   5.9375789E+05   -1.8584362E+00
   1.4258605E-04   5.8869606E+05   -1.8579681E+00
   1.4324453E-04   5.8367865E+05   -1.8574991E+00
   1.4390605E-04   5.7870524E+05   -1.8570292E+00
   1.4457062E-04   5.7377546E+05   -1.8565583E+00
   1.4523826E-04   5.6888892E+05   -1.8560865E+00
   1.4590899E-04   5.6404521E+05   -1.8556138E+00
   1.4658281E-04   5.5924396E+05   -1.8551402E+00
   1.4725974E-04   5.5448480E+05   -1.8546656E+00
   1.4793981E-04   5.4976734E+05   -1.8541902E+00
   1.4862301E-04   5.4509120E+05   -1.8537138E+00
   1.4930936E-04   5.4045603E+05   -1.8532365E+00
   1.4999889E-04   5.3586146E+05   -1.8527583E+00
   1.5069160E-04   5.3130711E+05   -1.8522792E+00
   1.5138751E-04   5.2679264E+05   -1.8517991E+00
   1.5208663E-04   5.2231768E+05   -1.8513182E+00
   1.5278899E-04   5.1788188E+05   -1.8508364E+00
   1.5349458E-04   5.1348490E+05   -1.8503537E+00
   1.5420343E-04   5.0912638E+05   -1.8498701E+00
   1.5491556E-04   5.0480599E+05   -1.8493856E+00
   1.5563098E-04   5.0052337E+05   -1.8489002E+00
   1.5634970E-04   4.9627820E+05   -1.8484139E+00
   1.5707174E-04   4.9207014E+05   -1.8479268E+00
   1.5779711E-04   4.8789885E+05   -1.8474387E+00
   1.5852584E-04   4.8376401E+05   -1.8469498E+00
   1.5925792E-04   4.7966530E+05   -1.8464600E+00
   1.5999339E-04   4.7560238E+05   -1.8459694E+00
   1.6073226E-04   4.7157495E+05   -1.8454778E+00
   1.6147454E-04   4.6758268E+05   -1.8449854E+00
   1.6222024E-04   4.6362526E+05   -1.8444922E+00
   1.6296939E-04   4.5970239E+05   -1.8439981E+00
   1.6372200E-04   4.5581374E+05   -1.8435031E+00
   1.6447809E-04   4.5195902E+05   -1.8430073E+00
   1.6523767E-04   4.4813793E+05   -1.8425106E+00
   1.6600075E-04   4.4435015E+05   -1.8420130E+00
   1.6676736E-04   4.4059540E+05   -1.8415147E+00
   1.6753751E-04   4.3687339E+05   -1.8410155E+00
   1.6831122E-04   4.3318381E+05   -1.8405154E+00
   1.6908849E-04   4.2952638E+05   -1.8400145E+00
   1.6986936E-04   4.2590082E+05   -1.8395128E+00
   1.7065384E-04   4.2230684E+05   -1.8390103E+00
   1.7144193E-04   4.1874415E+05   -1.8385069E+00
   1.7223367E-04   4.1521249E+05   -1.8380027E+00
   1.7302906E-04   4.1171157E+05   -1.8374977E+00
   1.7382813E-04   4.0824111E+05   -1.8369918E+00
   1.7463089E-04   4.0480086E+05   -1.8364852E+00
   1.7543735E-04   4.0139053E+05   -1.8359777E+00
   1.7624754E-04   3.9800987E+05   -1.8354695E+00
   1.7706147E-04   3.9465861E+05   -1.8349604E+00
   1.7787916E-04   3.9133648E+05   -1.8344506E+00
   1.7870062E-04   3.8804322E+05   -1.8339399E+00
   1.7952588E-04   3.8477859E+05   -1.8334285E+00
   1.8035495E-04   3.8154233E+05   -1.8329163E+00
   1.8118785E-04   3.7833417E+05   -1.8324033E+00
   1.8202459E-04   3.7515388E+05   -1.8318895E+00
   1.8286520E-04   3.7200120E+05   -1.8313749E+00
   1.8370969E-04   3.6887590E+05   -1.8308596E+00
   1.8455808E-04   3.6577772E+05   -1.8303434E+00
   1.8541039E-04   3.6270642E+05   -1.8298266E+00
   1.8626663E-04   3.5966177E+05   -1.8293089E+00
   1.8712683E-04   3.5664353E+05   -1.8287905E+00
   1.8799100E-04   3.5365146E+05   -1.8282714E+00
   1.8885917E-04   3.5068534E+05   -1.8277515E+00
   1.8973134E-04   3.4774492E+05   -1.8272309E+00
   1.9060754E-04   3.4482999E+05   -1.8267095E+00
   1.9148778E-04   3.4194031E+05   -1.8261874E+00
   1.9237209E-04   3.3907567E+05   -1.8256645E+00
   1.9326049E-04   3.3623583E+05   -1.8251409E+00
   1.9415299E-04   3.3342058E+05   -1.8246166E+00
   1.9504960E-04   3.3062971E+05   -1.8240916E+00
   1.9595036E-04   3.2786299E+05   -1.8235658E+00
   1.9685528E-04   3.2512021E+05   -1.8230394E+00
   1.9776438E-04   3.2240115E+05   -1.8225122E+00
   1.9867768E-04   3.1970562E+05   -1.8219843E+00
   1.9959519E-04   3.1703339E+05   -1.8214557E+00
   2.0051694E-04   3.1438426E+05   -1.8209265E+00
   2.0144295E-04   3.1175804E+05   -1.8203965E+00
   2.0237324E-04   3.0915450E+05   -1.8198658E+00
   2.0330782E-04   3.0657346E+05   -1.8193345E+00
   2.0424671E-04   3.0401471E+05   -1.8188025E+00
   2.0518995E-04   3.0147805E+05   -1.8182698E+00
   2.0613754E-04   2.9896330E+05   -1.8177364E+00
   2.0708950E-04   2.9647025E+05   -1.8172024E+00
   2.0804586E-04   2.9399872E+05   -1.8166677E+00
   2.0900664E-04   2.9154850E+05   -1.8161323E+00
   2.0997185E-04   2.8911942E+05   -1.8155963E+00
   2.1094152E-04   2.8671129E+05   -1.8150596E+00
   2.1191567E-04   2.8432392E+05   -1.8145223E+00
   2.1289432E-04   2.8195713E+05   -1.8139844E+00
   2.1387749E-04   2.7961073E+05   -1.8134458E+00
   2.1486520E-04   2.7728455E+05   -1.8129066E+00
   2.1585747E-04   2.7497840E+05   -1.8123668E+00
   2.1685432E-04   2.7269211E+05   -1.8118263E+00
   2.1785578E-04   2.7042550E+05   -1.8112853E+00
   2.1886186E-04   2.6817841E+05   -1.8107436E+00
   2.1987259E-04   2.6595065E+05   -1.8102013E+00
   2.2088798E-04   2.6374205E+05   -1.8096584E+00
   2.2190807E-04   2.6155245E+05   -1.8091149E+00
   2.2293286E-04   2.5938168E+05   -1.8085708E+00
   2.2396239E-04   2.5722957E+05   -1.8080262E+00
   2.2499667E-04   2.5509596E+05   -1.8074809E+00
   2.2603573E-04   2.5298068E+05   -1.8069351E+00
   2.2707958E-04   2.5088357E+05   -1.8063887E+00
   2.2812826E-04   2.4880448E+05   -1.8058417E+00
   2.2918178E-04   2.4674323E+05   -1.8052941E+00
   2.3024017E-04   2.4469968E+05   -1.8047461E+00
   2.3130344E-04   2.4267367E+05   -1.8041974E+00
   2.3237162E-04   2.4066503E+05   -1.8036482E+00
   2.3344474E-04   2.3867364E+05   -1.8030985E+00
   2.3452281E-04   2.3669931E+05   -1.8025482E+00
   2.3560586E-04   2.3474192E+05   -1.8019974E+00
   2.3669392E-04   2.3280130E+05   -1.8014460E+00
   2.3778699E-04   2.3087731E+05   -1.8008942E+00
   2.3888512E-04   2.2896981E+05   -1.8003418E+00
   2.3998831E-04   2.2707864E+05   -1.7997889E+00
   2.4109661E-04   2.2520367E+05   -1.7992355E+00
   2.4221001E-04   2.2334475E+05   -1.7986816E+00
   2.4332857E-04   2.2150174E+05   -1.7981272E+00
   2.4445228E-04   2.1967450E+05   -1.7975723E+00
   2.4558119E-04   2.1786289E+05   -1.7970169E+00
   2.4671531E-04   2.1606677E+05   -1.7964610E+00
   2.4785467E-04   2.1428601E+05   -1.7959047E+00
   2.4899928E-04   2.1252047E+05   -1.7953478E+00
   2.5014919E-04   2.1077002E+05   -1.7947906E+00
   2.5130440E-04   2.0903452E+05   -1.7942328E+00
   2.5246495E-04   2.0731385E+05   -1.7936746E+00
   2.5363086E-04   2.0560787E+05   -1.7931160E+00
   2.5480216E-04   2.0391645E+05   -1.7925569E+00
   2.5597886E-04   2.0223947E+05   -1.7919973E+00
   2.5716100E-04   2.0057680E+05   -1.7914374E+00
   2.5834859E-04   1.9892831E+05   -1.7908770E+00
   2.5954168E-04   1.9729387E+05   -1.7903162E+00
   2.6074027E-04   1.9567337E+05   -1.7897549E+00
   2.6194439E-04   1.9406669E+05   -1.7891933E+00
   2.6315408E-04   1.9247369E+05   -1.7886312E+00
   2.6436935E-04   1.9089427E+05   -1.7880688E+00
   2.6559024E-04   1.8932830E+05   -1.7875059E+00
   2.6681676E-04   1.8777566E+05   -1.7869427E+00
   2.6804895E-04   1.8623624E+05   -1.7863791E+00
   2.6928683E-04   1.8470991E+05   -1.7858151E+00
   2.7053042E-04   1.8319658E+05   -1.7852507E+00
   2.7177976E-04   1.8169611E+05   -1.7846859E+00
   2.7303487E-04   1.8020840E+05   -1.7841208E+00
   2.7429577E-04   1.7873334E+05   -1.7835554E+00
   2.7556250E-04   1.7727082E+05   -1.7829896E+00
   2.7683507E-04   1.7582072E+05   -1.7824234E+00
   2.7811353E-04   1.7438294E+05   -1.7818569E+00
   2.7939788E-04   1.7295736E+05   -1.7812901E+00
   2.8068817E-04   1.7154389E+05   -1.7807230E+00
   2.8198442E-04   1.7014242E+05   -1.7801555E+00
   2.8328665E-04   1.6875284E+05   -1.7795877E+00
   2.8459490E-04   1.6737504E+05   -1.7790196E+00
   2.8590919E-04   1.6600893E+05   -1.7784512E+00
   2.8722955E-04   1.6465440E+05   -1.7778825E+00
   2.8855600E-04   1.6331134E+05   -1.7773135E+00
   2.8988859E-04   1.6197967E+05   -1.7767442E+00
   2.9122732E-04   1.6065928E+05   -1.7761746E+00
   2.9257224E-04   1.5935007E+05   -1.7756048E+00
   2.9392337E-04   1.5805195E+05   -1.7750347E+00
   2.9528074E-04   1.5676481E+05   -1.7744643E+00
   2.9664438E-04   1.5548856E+05   -1.7738937E+00
   2.9801431E-04   1.5422311E+05   -1.7733228E+00
   2.9939057E-04   1.5296836E+05   -1.7727516E+00
   3.0077319E-04   1.5172421E+05   -1.7721803E+00
   3.0216219E-04   1.5049059E+05   -1.7716087E+00
   3.0355761E-04   1.4926738E+05   -1.7710368E+00
   3.0495947E-04   1.4805451E+05   -1.7704648E+00
   3.0636780E-04   1.4685188E+05   -1.7698925E+00
   3.0778264E-04   1.4565941E+05   -1.7693200E+00
   3.0920401E-04   1.4447699E+05   -1.7687473E+00
   3.1063195E-04   1.4330456E+05   -1.7681744E+00
   3.1206648E-04   1.4214201E+05   -1.7676014E+00
   3.1350764E-04   1.4098927E+05   -1.7670281E+00
   3.1495545E-04   1.3984625E+05   -1.7664547E+00
   3.1640994E-04   1.3871285E+05   -1.7658810E+00
   3.1787116E-04   1.3758901E+05   -1.7653073E+00
   3.1933912E-04   1.3647464E+05   -1.7647333E+00
   3.2081386E-04   1.3536965E+05   -1.7641592E+00
   3.2229541E-04   1.3427396E+05   -1.7635849E+00
   3.2378381E-04   1.3318749E+05   -1.7630105E+00
   3.2527908E-04   1.3211016E+05   -1.7624360E+00
   3.2678125E-04   1.3104189E+05   -1.7618613E+00
   3.2829036E-04   1.2998261E+05   -1.7612865E+00
   3.2980644E-04   1.2893223E+05   -1.7607116E+00
   3.3132952E-04   1.2789067E+05   -1.7601366E+00
   3.3285963E-04   1.2685787E+05   -1.7595614E+00
   3.3439681E-04   1.2583374E+05   -1.7589862E+00
   3.3594109E-04   1.2481821E+05   -1.7584108E+00
   3.3749250E-04   1.2381120E+05   -1.7578354E+00
   3.3905108E-04   1.2281265E+05   -1.7572599E+00
   3.4061685E-04   1.2182247E+05   -1.7566843E+00
   3.4218986E-04   1.2084059E+05   -1.7561086E+00
   3.4377013E-04   1.1986695E+05   -1.7555329E+00
   3.4535769E-04   1.1890146E+05   -1.7549571E+00
   3.4695259E-04   1.1794407E+05   -1.7543813E+00
   3.4855485E-04   1.1699469E+05   -1.7538054E+00
   3.5016452E-04   1.1605327E+05   -1.7532294E+00
   3.5178161E-04   1.1511972E+05   -1.7526535E+00
   3.5340618E-04   1.1419399E+05   -1.7520775E+00
   3.5503824E-04   1.1327600E+05   -1.7515015E+00
   3.5667785E-04   1.1236569E+05   -1.7509254E+00
   3.5832502E-04   1.1146300E+05   -1.7503494E+00
   3.5997981E-04   1.1056784E+05   -1.7497733E+00
   3.6164223E-04   1.0968017E+05   -1.7491973E+00
   3.6331233E-04   1.0879991E+05   -1.7486213E+00
   3.6499015E-04   1.0792701E+05   -1.7480452E+00
   3.6667571E-04   1.0706139E+05   -1.7474692E+00
   3.6836906E-04   1.0620299E+05   -1.7468932E+00
   3.7007022E-04   1.0535176E+05   -1.7463173E+00
   3.7177925E-04   1.0450763E+05   -1.7457414E+00
   3.7349616E-04   1.0367054E+05   -1.7451655E+00
   3.7522101E-04   1.0284042E+05   -1.7445897E+00
   3.7695382E-04   1.0201722E+05   -1.7440139E+00
   3.7869463E-04   1.0120088E+05   -1.7434382E+00
   3.8044348E-04   1.0039134E+05   -1.7428626E+00
   3.8220041E-04   9.9588539E+04   -1.7422871E+00
   3.8396545E-04   9.8792419E+04   -1.7417116E+00
   3.8573864E-04   9.8002923E+04   -1.7411362E+00
   3.8752002E-04   9.7219994E+04   -1.7405609E+00
   3.8930963E-04   9.6443575E+04   -1.7399857E+00
   3.9110750E-04   9.5673611E+04   -1.7394106E+00
   3.9291368E-04   9.4910045E+04   -1.7388357E+00
   3.9472820E-04   9.4152822E+04   -1.7382608E+00
   3.9655109E-04   9.3401888E+04   -1.7376861E+00
   3.9838241E-04   9.2657189E+04   -1.7371115E+00
   4.0022218E-04   9.1918670E+04   -1.7365370E+00
   4.0207045E-04   9.1186280E+04   -1.7359627E+00
   4.0392725E-04   9.0459964E+04   -1.7353885E+00
   4.0579263E-04   8.9739671E+04   -1.7348145E+00
   4.0766662E-04   8.9025348E+04   -1.7342406E+00
   4.0954927E-04   8.8316946E+04   -1.7336669E+00
   4.1144061E-04   8.7614411E+04   -1.7330934E+00
   4.1334068E-04   8.6917695E+04   -1.7325200E+00
   4.1524953E-04   8.6226746E+04   -1.7319468E+00
   4.1716720E-04   8.5541517E+04   -1.7313739E+00
   4.1909372E-04   8.4861956E+04   -1.7308011E+00
   4.2102914E-04   8.4188016E+04   -1.7302285E+00
   4.2297350E-04   8.3519649E+04   -1.7296561E+00
   4.2492683E-04   8.2856806E+04   -1.7290840E+00
   4.2688919E-04   8.2199441E+04   -1.7285120E+00
   4.2886061E-04   8.1547506E+04   -1.7279403E+00
   4.3084113E-04   8.0900955E+04   -1.7273688E+00
   4.3283080E-04   8.0259741E+04   -1.7267976E+00
   4.3482966E-04   7.9623819E+04   -1.7262266E+00
   4.3683775E-04   7.8993143E+04   -1.7256558E+00
   4.3885511E-04   7.8367668E+04   -1.7250853E+00
   4.4088179E-04   7.7747351E+04   -1.7245151E+00
   4.4291783E-04   7.7132146E+04   -1.7239451E+00
   4.4496327E-04   7.6522010E+04   -1.7233754E+00
   4.4701816E-04   7.5916900E+04   -1.7228060E+00
   4.4908253E-04   7.5316772E+04   -1.7222369E+00
   4.5115644E-04   7.4721584E+04   -1.7216680E+00
   4.5323993E-04   7.4131294E+04   -1.7210995E+00
   4.5533304E-04   7.3545860E+04   -1.7205312E+00
   4.5743582E-04   7.2965240E+04   -1.7199633E+00
   4.5954830E-04   7.2389393E+04   -1.7193957E+00
   4.6167054E-04   7.1818278E+04   -1.7188284E+00
   4.6380259E-04   7.1251856E+04   -1.7182614E+00
   4.6594448E-04   7.0690085E+04   -1.7176947E+00
   4.6809626E-04   7.0132927E+04   -1.7171284E+00
   4.7025797E-04   6.9580342E+04   -1.7165624E+00
   4.7242967E-04   6.9032290E+04   -1.7159968E+00
   4.7461140E-04   6.8488733E+04   -1.7154315E+00
   4.7680321E-04   6.7949634E+04   -1.7148666E+00
   4.7900514E-04   6.7414953E+04   -1.7143021E+00
   4.8121723E-04   6.6884653E+04   -1.7137379E+00
   4.8343954E-04   6.6358698E+04   -1.7131741E+00
   4.8567212E-04   6.5837049E+04   -1.7126106E+00
   4.8791500E-04   6.5319671E+04   -1.7120476E+00
   4.9016825E-04   6.4806526E+04   -1.7114850E+00
   4.9243189E-04   6.4297579E+04   -1.7109227E+00
   4.9470600E-04   6.3792795E+04   -1.7103609E+00
   4.9699060E-04   6.3292137E+04   -1.7097994E+00
   4.9928575E-04   6.2795570E+04   -1.7092384E+00
   5.0159151E-04   6.2303061E+04   -1.7086778E+00
   5.0390791E-04   6.1814573E+04   -1.7081177E+00
   5.0623501E-04   6.1330074E+04   -1.7075579E+00
   5.0857286E-04   6.0849530E+04   -1.7069986E+00
   5.1092150E-04   6.0372906E+04   -1.7064397E+00
   5.1328099E-04   5.9900170E+04   -1.7058813E+00
   5.1565137E-04   5.9431288E+04   -1.7053234E+00
   5.1803270E-04   5.8966228E+04   -1.7047659E+00
   5.2042503E-04   5.8504958E+04   -1.7042088E+00
   5.2282841E-04   5.8047444E+04   -1.7036522E+00
   5.2524289E-04   5.7593656E+04   -1.7030961E+00
   5.2766851E-04   5.7143562E+04   -1.7025405E+00
   5.3010534E-04   5.6697131E+04   -1.7019854E+00
   5.3255342E-04   5.6254331E+04   -1.7014307E+00
   5.3501281E-04   5.5815132E+04   -1.7008766E+00
   5.3748356E-04   5.5379503E+04   -1.7003229E+00
   5.3996571E-04   5.4947414E+04   -1.6997698E+00
   5.4245933E-04   5.4518836E+04   -1.6992172E+00
   5.4496446E-04   5.4093738E+04   -1.6986650E+00
   5.4748117E-04   5.3672091E+04   -1.6981134E+00
   5.5000949E-04   5.3253866E+04   -1.6975624E+00
   5.5254949E-04   5.2839034E+04   -1.6970118E+00
   5.5510123E-04   5.2427566E+04   -1.6964618E+00
   5.5766474E-04   5.2019434E+04   -1.6959123E+00
   5.6024010E-04   5.1614610E+04   -1.6953634E+00
   5.6282734E-04   5.1213066E+04   -1.6948151E+00
   5.6542654E-04   5.0814774E+04   -1.6942672E+00
   5.6803774E-04   5.0419707E+04   -1.6937200E+00
   5.7066099E-04   5.0027837E+04   -1.6931733E+00
   5.7329637E-04   4.9639138E+04   -1.6926272E+00
   5.7594391E-04   4.9253584E+04   -1.6920817E+00
   5.7860368E-04   4.8871146E+04   -1.6915367E+00
   5.8127573E-04   4.8491800E+04   -1.6909923E+00
   5.8396012E-04   4.8115519E+04   -1.6904485E+00
   5.8665691E-04   4.7742277E+04   -1.6899054E+00
   5.8936616E-04   4.7372049E+04   -1.6893628E+00
   5.9208791E-04   4.7004809E+04   -1.6888208E+00
   5.9482223E-04   4.6640533E+04   -1.6882794E+00
   5.9756919E-04   4.6279195E+04   -1.6877387E+00
   6.0032882E-04   4.5920771E+04   -1.6871985E+00
   6.0310120E-04   4.5565236E+04   -1.6866590E+00
   6.0588639E-04   4.5212567E+04   -1.6861201E+00
   6.0868443E-04   4.4862738E+04   -1.6855818E+00
   6.1149540E-04   4.4515726E+04   -1.6850442E+00
   6.1431935E-04   4.4171508E+04   -1.6845072E+00
   6.1715634E-04   4.3830060E+04   -1.6839709E+00
   6.2000644E-04   4.3491358E+04   -1.6834352E+00
   6.2286969E-04   4.3155381E+04   -1.6829002E+00
