#        a       HoverH0(a)       dlogHdloga_of_a(a)
   1.0000000E-04   1.1696129E+06   -1.8619759E+00
   1.0046181E-04   1.1596229E+06   -1.8615150E+00
   1.0092575E-04   1.1497208E+06   -1.8610532E+00
   1.0139184E-04   1.1399055E+06   -1.8605904E+00
   1.0186008E-04   1.1301765E+06   -1.8601267E+00
   1.0233048E-04   1.1205330E+06   -1.8596620E+00
   1.0280305E-04   1.1109741E+06   -1.8591964E+00
   1.0327781E-04   1.1014991E+06   -1.8587299E+00
   1.0375475E-04   1.0921072E+06   -1.8582624E+00
   1.0423390E-04   1.0827978E+06   -1.8577940E+00
   1.0471527E-04   1.0735701E+06   -1.8573247E+00
   1.0519885E-04   1.0644233E+06   -1.8568544E+00
   1.0568467E-04   1.0553567E+06   -1.8563832E+00
   1.0617274E-04   1.0463696E+06   -1.8559111E+00
   1.0666305E-04   1.0374613E+06   -1.8554380E+00
   1.0715563E-04   1.0286311E+06   -1.8549641E+00
   1.0765049E-04   1.0198783E+06   -1.8544892E+00
   1.0814763E-04   1.0112021E+06   -1.8540134E+00
   1.0864707E-04   1.0026020E+06   -1.8535367E+00
   1.0914881E-04   9.9407722E+05   -1.8530591E+00
   1.0965287E-04   9.8562708E+05   -1.8525805E+00
   1.1015926E-04   9.7725093E+05   -1.8521011E+00
   1.1066799E-04   9.6894810E+05   -1.8516207E+00
   1.1117906E-04   9.6071795E+05   -1.8511395E+00
   1.1169250E-04   9.5255981E+05   -1.8506574E+00
   1.1220831E-04   9.4447305E+05   -1.8501743E+00
   1.1272650E-04   9.3645703E+05   -1.8496904E+00
   1.1324708E-04   9.2851112E+05   -1.8492056E+00
   1.1377007E-04   9.2063469E+05   -1.8487199E+00
   1.1429547E-04   9.1282711E+05   -1.8482333E+00
   1.1482330E-04   9.0508779E+05   -1.8477458E+00
   1.1535356E-04   8.9741609E+05   -1.8472575E+00
   1.1588628E-04   8.8981143E+05   -1.8467683E+00
   1.1642145E-04   8.8227320E+05   -1.8462782E+00
   1.1695910E-04   8.7480080E+05   -1.8457872E+00
   1.1749923E-04   8.6739366E+05   -1.8452954E+00
   1.1804185E-04   8.6005119E+05   -1.8448027E+00
   1.1858698E-04   8.5277280E+05   -1.8443091E+00
   1.1913463E-04   8.4555794E+05   -1.8438147E+00
   1.1968481E-04   8.3840603E+05   -1.8433194E+00
   1.2023752E-04   8.3131651E+05   -1.8428233E+00
   1.2079279E-04   8.2428883E+05   -1.8423263E+00
   1.2135063E-04   8.1732243E+05   -1.8418285E+00
   1.2191104E-04   8.1041676E+05   -1.8413298E+00
   1.2247403E-04   8.0357129E+05   -1.8408303E+00
   1.2303963E-04   7.9678548E+05   -1.8403300E+00
   1.2360784E-04   7.9005880E+05   -1.8398288E+00
   1.2417868E-04   7.8339071E+05   -1.8393268E+00
   1.2475215E-04   7.7678070E+05   -1.8388239E+00
   1.2532826E-04   7.7022825E+05   -1.8383203E+00
   1.2590704E-04   7.6373284E+05   -1.8378158E+00
   1.2648850E-04   7.5729397E+05   -1.8373105E+00
   1.2707263E-04   7.5091114E+05   -1.8368044E+00
   1.2765947E-04   7.4458384E+05   -1.8362974E+00
   1.2824901E-04   7.3831159E+05   -1.8357897E+00
   1.2884128E-04   7.3209388E+05   -1.8352812E+00
   1.2943628E-04   7.2593024E+05   -1.8347718E+00
   1.3003403E-04   7.1982018E+05   -1.8342617E+00
   1.3063454E-04   7.1376323E+05   -1.8337508E+00
   1.3123783E-04   7.0775891E+05   -1.8332391E+00
   1.3184390E-04   7.0180676E+05   -1.8327266E+00
   1.3245277E-04   6.9590631E+05   -1.8322133E+00
   1.3306445E-04   6.9005710E+05   -1.8316992E+00
   1.3367895E-04   6.8425868E+05   -1.8311844E+00
   1.3429630E-04   6.7851059E+05   -1.8306688E+00
   1.3491649E-04   6.7281238E+05   -1.8301524E+00
   1.3553955E-04   6.6716362E+05   -1.8296353E+00
   1.3616548E-04   6.6156386E+05   -1.8291174E+00
   1.3679431E-04   6.5601267E+05   -1.8285987E+00
   1.3742604E-04   6.5050962E+05   -1.8280793E+00
   1.3806069E-04   6.4505427E+05   -1.8275592E+00
   1.3869827E-04   6.3964621E+05   -1.8270383E+00
   1.3933879E-04   6.3428501E+05   -1.8265166E+00
   1.3998227E-04   6.2897025E+05   -1.8259943E+00
   1.4062872E-04   6.2370154E+05   -1.8254712E+00
   1.4127816E-04   6.1847845E+05   -1.8249473E+00
   1.4193060E-04   6.1330058E+05   -1.8244228E+00
   1.4258605E-04   6.0816753E+05   -1.8238975E+00
   1.4324453E-04   6.0307890E+05   -1.8233715E+00
   1.4390605E-04   5.9803430E+05   -1.8228448E+00
   1.4457062E-04   5.9303334E+05   -1.8223174E+00
   1.4523826E-04   5.8807562E+05   -1.8217893E+00
   1.4590899E-04   5.8316078E+05   -1.8212605E+00
   1.4658281E-04   5.7828842E+05   -1.8207309E+00
   1.4725974E-04   5.7345817E+05   -1.8202007E+00
   1.4793981E-04   5.6866965E+05   -1.8196698E+00
   1.4862301E-04   5.6392250E+05   -1.8191383E+00
   1.4930936E-04   5.5921635E+05   -1.8186060E+00
   1.4999889E-04   5.5455083E+05   -1.8180731E+00
   1.5069160E-04   5.4992559E+05   -1.8175395E+00
   1.5138751E-04   5.4534026E+05   -1.8170053E+00
   1.5208663E-04   5.4079450E+05   -1.8164703E+00
   1.5278899E-04   5.3628796E+05   -1.8159348E+00
   1.5349458E-04   5.3182028E+05   -1.8153985E+00
   1.5420343E-04   5.2739113E+05   -1.8148617E+00
   1.5491556E-04   5.2300016E+05   -1.8143242E+00
   1.5563098E-04   5.1864703E+05   -1.8137860E+00
   1.5634970E-04   5.1433141E+05   -1.8132472E+00
   1.5707174E-04   5.1005297E+05   -1.8127078E+00
   1.5779711E-04   5.0581137E+05   -1.8121678E+00
   1.5852584E-04   5.0160630E+05   -1.8116271E+00
   1.5925792E-04   4.9743743E+05   -1.8110858E+00
   1.5999339E-04   4.9330443E+05   -1.8105440E+00
   1.6073226E-04   4.8920699E+05   -1.8100015E+00
   1.6147454E-04   4.8514481E+05   -1.8094584E+00
   1.6222024E-04   4.8111755E+05   -1.8089147E+00
   1.6296939E-04   4.7712493E+05   -1.8083704E+00
   1.6372200E-04   4.7316663E+05   -1.8078256E+00
   1.6447809E-04   4.6924234E+05   -1.8072801E+00
   1.6523767E-04   4.6535177E+05   -1.8067341E+00
   1.6600075E-04   4.6149462E+05   -1.8061875E+00
   1.6676736E-04   4.5767059E+05   -1.8056404E+00
   1.6753751E-04   4.5387939E+05   -1.8050926E+00
   1.6831122E-04   4.5012074E+05   -1.8045444E+00
   1.6908849E-04   4.4639434E+05   -1.8039955E+00
   1.6986936E-04   4.4269991E+05   -1.8034462E+00
   1.7065384E-04   4.3903716E+05   -1.8028963E+00
   1.7144193E-04   4.3540583E+05   -1.8023458E+00
   1.7223367E-04   4.3180562E+05   -1.8017948E+00
   1.7302906E-04   4.2823628E+05   -1.8012433E+00
   1.7382813E-04   4.2469751E+05   -1.8006913E+00
   1.7463089E-04   4.2118906E+05   -1.8001387E+00
   1.7543735E-04   4.1771066E+05   -1.7995857E+00
   1.7624754E-04   4.1426204E+05   -1.7990321E+00
   1.7706147E-04   4.1084295E+05   -1.7984781E+00
   1.7787916E-04   4.0745311E+05   -1.7979235E+00
   1.7870062E-04   4.0409227E+05   -1.7973685E+00
   1.7952588E-04   4.0076018E+05   -1.7968129E+00
   1.8035495E-04   3.9745658E+05   -1.7962569E+00
   1.8118785E-04   3.9418123E+05   -1.7957004E+00
   1.8202459E-04   3.9093387E+05   -1.7951435E+00
   1.8286520E-04   3.8771426E+05   -1.7945860E+00
   1.8370969E-04   3.8452215E+05   -1.7940282E+00
   1.8455808E-04   3.8135731E+05   -1.7934698E+00
   1.8541039E-04   3.7821949E+05   -1.7929111E+00
   1.8626663E-04   3.7510845E+05   -1.7923518E+00
   1.8712683E-04   3.7202396E+05   -1.7917922E+00
   1.8799100E-04   3.6896578E+05   -1.7912321E+00
   1.8885917E-04   3.6593369E+05   -1.7906716E+00
   1.8973134E-04   3.6292745E+05   -1.7901106E+00
   1.9060754E-04   3.5994684E+05   -1.7895493E+00
   1.9148778E-04   3.5699164E+05   -1.7889875E+00
   1.9237209E-04   3.5406161E+05   -1.7884253E+00
   1.9326049E-04   3.5115654E+05   -1.7878628E+00
   1.9415299E-04   3.4827621E+05   -1.7872998E+00
   1.9504960E-04   3.4542040E+05   -1.7867365E+00
   1.9595036E-04   3.4258890E+05   -1.7861727E+00
   1.9685528E-04   3.3978150E+05   -1.7856086E+00
   1.9776438E-04   3.3699797E+05   -1.7850442E+00
   1.9867768E-04   3.3423812E+05   -1.7844793E+00
   1.9959519E-04   3.3150173E+05   -1.7839141E+00
   2.0051694E-04   3.2878860E+05   -1.7833486E+00
   2.0144295E-04   3.2609853E+05   -1.7827827E+00
   2.0237324E-04   3.2343130E+05   -1.7822164E+00
   2.0330782E-04   3.2078674E+05   -1.7816499E+00
   2.0424671E-04   3.1816462E+05   -1.7810829E+00
   2.0518995E-04   3.1556477E+05   -1.7805157E+00
   2.0613754E-04   3.1298697E+05   -1.7799482E+00
   2.0708950E-04   3.1043105E+05   -1.7793803E+00
   2.0804586E-04   3.0789680E+05   -1.7788121E+00
   2.0900664E-04   3.0538405E+05   -1.7782436E+00
   2.0997185E-04   3.0289259E+05   -1.7776749E+00
   2.1094152E-04   3.0042225E+05   -1.7771058E+00
   2.1191567E-04   2.9797283E+05   -1.7765364E+00
   2.1289432E-04   2.9554417E+05   -1.7759668E+00
   2.1387749E-04   2.9313606E+05   -1.7753969E+00
   2.1486520E-04   2.9074834E+05   -1.7748268E+00
   2.1585747E-04   2.8838083E+05   -1.7742563E+00
   2.1685432E-04   2.8603335E+05   -1.7736856E+00
   2.1785578E-04   2.8370572E+05   -1.7731147E+00
   2.1886186E-04   2.8139778E+05   -1.7725435E+00
   2.1987259E-04   2.7910934E+05   -1.7719721E+00
   2.2088798E-04   2.7684025E+05   -1.7714005E+00
   2.2190807E-04   2.7459033E+05   -1.7708286E+00
   2.2293286E-04   2.7235940E+05   -1.7702565E+00
   2.2396239E-04   2.7014732E+05   -1.7696842E+00
   2.2499667E-04   2.6795391E+05   -1.7691117E+00
   2.2603573E-04   2.6577901E+05   -1.7685390E+00
   2.2707958E-04   2.6362246E+05   -1.7679660E+00
   2.2812826E-04   2.6148409E+05   -1.7673929E+00
   2.2918178E-04   2.5936376E+05   -1.7668196E+00
   2.3024017E-04   2.5726130E+05   -1.7662462E+00
   2.3130344E-04   2.5517656E+05   -1.7656725E+00
   2.3237162E-04   2.5310938E+05   -1.7650987E+00
   2.3344474E-04   2.5105961E+05   -1.7645248E+00
   2.3452281E-04   2.4902710E+05   -1.7639507E+00
   2.3560586E-04   2.4701170E+05   -1.7633764E+00
   2.3669392E-04   2.4501325E+05   -1.7628020E+00
   2.3778699E-04   2.4303162E+05   -1.7622274E+00
   2.3888512E-04   2.4106665E+05   -1.7616528E+00
   2.3998831E-04   2.3911821E+05   -1.7610780E+00
   2.4109661E-04   2.3718614E+05   -1.7605031E+00
   2.4221001E-04   2.3527030E+05   -1.7599280E+00
   2.4332857E-04   2.3337056E+05   -1.7593529E+00
   2.4445228E-04   2.3148677E+05   -1.7587777E+00
   2.4558119E-04   2.2961880E+05   -1.7582023E+00
   2.4671531E-04   2.2776650E+05   -1.7576269E+00
   2.4785467E-04   2.2592975E+05   -1.7570514E+00
   2.4899928E-04   2.2410840E+05   -1.7564759E+00
   2.5014919E-04   2.2230232E+05   -1.7559002E+00
   2.5130440E-04   2.2051139E+05   -1.7553245E+00
   2.5246495E-04   2.1873546E+05   -1.7547488E+00
   2.5363086E-04   2.1697441E+05   -1.7541730E+00
   2.5480216E-04   2.1522811E+05   -1.7535971E+00
   2.5597886E-04   2.1349643E+05   -1.7530212E+00
   2.5716100E-04   2.1177924E+05   -1.7524453E+00
   2.5834859E-04   2.1007643E+05   -1.7518693E+00
   2.5954168E-04   2.0838786E+05   -1.7512934E+00
   2.6074027E-04   2.0671341E+05   -1.7507174E+00
   2.6194439E-04   2.0505296E+05   -1.7501414E+00
   2.6315408E-04   2.0340638E+05   -1.7495654E+00
   2.6436935E-04   2.0177357E+05   -1.7489894E+00
   2.6559024E-04   2.0015439E+05   -1.7484134E+00
   2.6681676E-04   1.9854874E+05   -1.7478374E+00
   2.6804895E-04   1.9695648E+05   -1.7472615E+00
   2.6928683E-04   1.9537752E+05   -1.7466856E+00
   2.7053042E-04   1.9381172E+05   -1.7461097E+00
   2.7177976E-04   1.9225899E+05   -1.7455339E+00
   2.7303487E-04   1.9071920E+05   -1.7449581E+00
   2.7429577E-04   1.8919224E+05   -1.7443823E+00
   2.7556250E-04   1.8767801E+05   -1.7438067E+00
   2.7683507E-04   1.8617639E+05   -1.7432311E+00
   2.7811353E-04   1.8468728E+05   -1.7426555E+00
   2.7939788E-04   1.8321056E+05   -1.7420800E+00
   2.8068817E-04   1.8174613E+05   -1.7415047E+00
   2.8198442E-04   1.8029388E+05   -1.7409294E+00
   2.8328665E-04   1.7885372E+05   -1.7403542E+00
   2.8459490E-04   1.7742552E+05   -1.7397791E+00
   2.8590919E-04   1.7600920E+05   -1.7392041E+00
   2.8722955E-04   1.7460465E+05   -1.7386292E+00
   2.8855600E-04   1.7321176E+05   -1.7380545E+00
   2.8988859E-04   1.7183044E+05   -1.7374798E+00
   2.9122732E-04   1.7046059E+05   -1.7369054E+00
   2.9257224E-04   1.6910210E+05   -1.7363310E+00
   2.9392337E-04   1.6775489E+05   -1.7357568E+00
   2.9528074E-04   1.6641885E+05   -1.7351827E+00
   2.9664438E-04   1.6509388E+05   -1.7346088E+00
   2.9801431E-04   1.6377990E+05   -1.7340351E+00
   2.9939057E-04   1.6247681E+05   -1.7334615E+00
   3.0077319E-04   1.6118450E+05   -1.7328881E+00
   3.0216219E-04   1.5990290E+05   -1.7323149E+00
   3.0355761E-04   1.5863191E+05   -1.7317418E+00
   3.0495947E-04   1.5737144E+05   -1.7311690E+00
   3.0636780E-04   1.5612139E+05   -1.7305964E+00
   3.0778264E-04   1.5488169E+05   -1.7300239E+00
   3.0920401E-04   1.5365223E+05   -1.7294517E+00
   3.1063195E-04   1.5243293E+05   -1.7288797E+00
   3.1206648E-04   1.5122371E+05   -1.7283079E+00
   3.1350764E-04   1.5002447E+05   -1.7277363E+00
   3.1495545E-04   1.4883514E+05   -1.7271650E+00
   3.1640994E-04   1.4765562E+05   -1.7265939E+00
   3.1787116E-04   1.4648584E+05   -1.7260231E+00
   3.1933912E-04   1.4532571E+05   -1.7254525E+00
   3.2081386E-04   1.4417514E+05   -1.7248821E+00
   3.2229541E-04   1.4303406E+05   -1.7243121E+00
   3.2378381E-04   1.4190238E+05   -1.7237423E+00
   3.2527908E-04   1.4078003E+05   -1.7231727E+00
   3.2678125E-04   1.3966692E+05   -1.7226035E+00
   3.2829036E-04   1.3856297E+05   -1.7220345E+00
   3.2980644E-04   1.3746811E+05   -1.7214659E+00
   3.3132952E-04   1.3638226E+05   -1.7208975E+00
   3.3285963E-04   1.3530534E+05   -1.7203294E+00
   3.3439681E-04   1.3423727E+05   -1.7197617E+00
   3.3594109E-04   1.3317799E+05   -1.7191942E+00
   3.3749250E-04   1.3212741E+05   -1.7186271E+00
   3.3905108E-04   1.3108545E+05   -1.7180603E+00
   3.4061685E-04   1.3005206E+05   -1.7174939E+00
   3.4218986E-04   1.2902715E+05   -1.7169278E+00
   3.4377013E-04   1.2801064E+05   -1.7163620E+00
   3.4535769E-04   1.2700248E+05   -1.7157966E+00
   3.4695259E-04   1.2600259E+05   -1.7152315E+00
   3.4855485E-04   1.2501089E+05   -1.7146668E+00
   3.5016452E-04   1.2402732E+05   -1.7141025E+00
   3.5178161E-04   1.2305181E+05   -1.7135385E+00
   3.5340618E-04   1.2208429E+05   -1.7129749E+00
   3.5503824E-04   1.2112469E+05   -1.7124117E+00
   3.5667785E-04   1.2017295E+05   -1.7118489E+00
   3.5832502E-04   1.1922899E+05   -1.7112865E+00
   3.5997981E-04   1.1829275E+05   -1.7107244E+00
   3.6164223E-04   1.1736417E+05   -1.7101628E+00
   3.6331233E-04   1.1644318E+05   -1.7096016E+00
   3.6499015E-04   1.1552972E+05   -1.7090408E+00
   3.6667571E-04   1.1462371E+05   -1.7084805E+00
   3.6836906E-04   1.1372511E+05   -1.7079205E+00
   3.7007022E-04   1.1283384E+05   -1.7073610E+00
   3.7177925E-04   1.1194985E+05   -1.7068020E+00
   3.7349616E-04   1.1107306E+05   -1.7062434E+00
   3.7522101E-04   1.1020343E+05   -1.7056852E+00
   3.7695382E-04   1.0934089E+05   -1.7051275E+00
   3.7869463E-04   1.0848538E+05   -1.7045702E+00
   3.8044348E-04   1.0763683E+05   -1.7040134E+00
   3.8220041E-04   1.0679520E+05   -1.7034571E+00
   3.8396545E-04   1.0596042E+05   -1.7029013E+00
   3.8573864E-04   1.0513243E+05   -1.7023459E+00
   3.8752002E-04   1.0431119E+05   -1.7017911E+00
   3.8930963E-04   1.0349662E+05   -1.7012367E+00
   3.9110750E-04   1.0268867E+05   -1.7006828E+00
   3.9291368E-04   1.0188729E+05   -1.7001294E+00
   3.9472820E-04   1.0109242E+05   -1.6995765E+00
   3.9655109E-04   1.0030401E+05   -1.6990242E+00
   3.9838241E-04   9.9522004E+04   -1.6984723E+00
   4.0022218E-04   9.8746343E+04   -1.6979210E+00
   4.0207045E-04   9.7976976E+04   -1.6973702E+00
   4.0392725E-04   9.7213850E+04   -1.6968200E+00
   4.0579263E-04   9.6456912E+04   -1.6962703E+00
   4.0766662E-04   9.5706111E+04   -1.6957211E+00
   4.0954927E-04   9.4961394E+04   -1.6951725E+00
   4.1144061E-04   9.4222709E+04   -1.6946244E+00
   4.1334068E-04   9.3490007E+04   -1.6940769E+00
   4.1524953E-04   9.2763236E+04   -1.6935299E+00
   4.1716720E-04   9.2042346E+04   -1.6929835E+00
   4.1909372E-04   9.1327289E+04   -1.6924377E+00
   4.2102914E-04   9.0618015E+04   -1.6918925E+00
   4.2297350E-04   8.9914474E+04   -1.6913478E+00
   4.2492683E-04   8.9216620E+04   -1.6908038E+00
   4.2688919E-04   8.8524404E+04   -1.6902603E+00
   4.2886061E-04   8.7837778E+04   -1.6897174E+00
   4.3084113E-04   8.7156696E+04   -1.6891752E+00
   4.3283080E-04   8.6481112E+04   -1.6886335E+00
   4.3482966E-04   8.5810977E+04   -1.6880925E+00
   4.3683775E-04   8.5146248E+04   -1.6875520E+00
   4.3885511E-04   8.4486878E+04   -1.6870122E+00
   4.4088179E-04   8.3832823E+04   -1.6864730E+00
   4.4291783E-04   8.3184038E+04   -1.6859345E+00
   4.4496327E-04   8.2540478E+04   -1.6853965E+00
   4.4701816E-04   8.1902100E+04   -1.6848592E+00
   4.4908253E-04   8.1268860E+04   -1.6843226E+00
   4.5115644E-04   8.0640716E+04   -1.6837866E+00
   4.5323993E-04   8.0017624E+04   -1.6832513E+00
   4.5533304E-04   7.9399543E+04   -1.6827166E+00
   4.5743582E-04   7.8786430E+04   -1.6821826E+00
   4.5954830E-04   7.8178243E+04   -1.6816492E+00
   4.6167054E-04   7.7574942E+04   -1.6811165E+00
   4.6380259E-04   7.6976485E+04   -1.6805845E+00
   4.6594448E-04   7.6382832E+04   -1.6800532E+00
   4.6809626E-04   7.5793943E+04   -1.6795225E+00
   4.7025797E-04   7.5209778E+04   -1.6789926E+00
   4.7242967E-04   7.4630297E+04   -1.6784633E+00
   4.7461140E-04   7.4055461E+04   -1.6779347E+00
   4.7680321E-04   7.3485232E+04   -1.6774069E+00
   4.7900514E-04   7.2919571E+04   -1.6768797E+00
   4.8121723E-04   7.2358440E+04   -1.6763533E+00
   4.8343954E-04   7.1801801E+04   -1.6758275E+00
   4.8567212E-04   7.1249617E+04   -1.6753025E+00
   4.8791500E-04   7.0701850E+04   -1.6747782E+00
   4.9016825E-04   7.0158464E+04   -1.6742546E+00
   4.9243189E-04   6.9619421E+04   -1.6737318E+00
   4.9470600E-04   6.9084687E+04   -1.6732096E+00
   4.9699060E-04   6.8554225E+04   -1.6726883E+00
   4.9928575E-04   6.8027998E+04   -1.6721676E+00
   5.0159151E-04   6.7505974E+04   -1.6716477E+00
   5.0390791E-04   6.6988115E+04   -1.6711286E+00
   5.0623501E-04   6.6474388E+04   -1.6706102E+00
   5.0857286E-04   6.5964758E+04   -1.6700926E+00
   5.1092150E-04   6.5459191E+04   -1.6695757E+00
   5.1328099E-04   6.4957653E+04   -1.6690596E+00
   5.1565137E-04   6.4460112E+04   -1.6685443E+00
   5.1803270E-04   6.3966533E+04   -1.6680297E+00
   5.2042503E-04   6.3476884E+04   -1.6675159E+00
   5.2282841E-04   6.2991132E+04   -1.6670029E+00
   5.2524289E-04   6.2509245E+04   -1.6664907E+00
   5.2766851E-04   6.2031190E+04   -1.6659792E+00
   5.3010534E-04   6.1556937E+04   -1.6654686E+00
   5.3255342E-04   6.1086453E+04   -1.6649587E+00
   5.3501281E-04   6.0619707E+04   -1.6644497E+00
   5.3748356E-04   6.0156668E+04   -1.6639414E+00
   5.3996571E-04   5.9697306E+04   -1.6634340E+00
   5.4245933E-04   5.9241591E+04   -1.6629273E+00
   5.4496446E-04   5.8789491E+04   -1.6624215E+00
   5.4748117E-04   5.8340977E+04   -1.6619165E+00
   5.5000949E-04   5.7896020E+04   -1.6614123E+00
   5.5254949E-04   5.7454589E+04   -1.6609089E+00
   5.5510123E-04   5.7016657E+04   -1.6604063E+00
   5.5766474E-04   5.6582193E+04   -1.6599046E+00
   5.6024010E-04   5.6151170E+04   -1.6594037E+00
   5.6282734E-04   5.5723558E+04   -1.6589036E+00
   5.6542654E-04   5.5299331E+04   -1.6584044E+00
   5.6803774E-04   5.4878459E+04   -1.6579060E+00
   5.7066099E-04   5.4460915E+04   -1.6574085E+00
   5.7329637E-04   5.4046671E+04   -1.6569118E+00
   5.7594391E-04   5.3635702E+04   -1.6564160E+00
   5.7860368E-04   5.3227979E+04   -1.6559210E+00
   5.8127573E-04   5.2823475E+04   -1.6554268E+00
   5.8396012E-04   5.2422165E+04   -1.6549336E+00
   5.8665691E-04   5.2024022E+04   -1.6544412E+00
   5.8936616E-04   5.1629020E+04   -1.6539496E+00
   5.9208791E-04   5.1237133E+04   -1.6534589E+00
   5.9482223E-04   5.0848335E+04   -1.6529691E+00
   5.9756919E-04   5.0462601E+04   -1.6524802E+00
   6.0032882E-04   5.0079906E+04   -1.6519922E+00
   6.0310120E-04   4.9700225E+04   -1.6515050E+00
   6.0588639E-04   4.9323533E+04   -1.6510187E+00
   6.0868443E-04   4.8949806E+04   -1.6505333E+00
   6.1149540E-04   4.8579019E+04   -1.6500488E+00
   6.1431935E-04   4.8211149E+04   -1.6495651E+00
   6.1715634E-04   4.7846170E+04   -1.6490824E+00
   6.2000644E-04   4.7484061E+04   -1.6486006E+00
   6.2286969E-04   4.7124796E+04   -1.6481196E+00
