#        a       HoverH0(a)       dlogHdloga_of_a(a)
   1.0000000E-04   1.2071468E+06   -1.8662100E+00
   1.0046181E-04   1.1968129E+06   -1.8657580E+00
   1.0092575E-04   1.1865699E+06   -1.8653051E+00
   1.0139184E-04   1.1764171E+06   -1.8648512E+00
   1.0186008E-04   1.1663535E+06   -1.8643963E+00
   1.0233048E-04   1.1563785E+06   -1.8639405E+00
   1.0280305E-04   1.1464912E+06   -1.8634837E+00
   1.0327781E-04   1.1366908E+06   -1.8630259E+00
   1.0375475E-04   1.1269766E+06   -1.8625672E+00
   1.0423390E-04   1.1173477E+06   -1.8621076E+00
   1.0471527E-04   1.1078035E+06   -1.8616469E+00
   1.0519885E-04   1.0983431E+06   -1.8611854E+00
   1.0568467E-04   1.0889659E+06   -1.8607229E+00
   1.0617274E-04   1.0796709E+06   -1.8602594E+00
   1.0666305E-04   1.0704577E+06   -1.8597950E+00
   1.0715563E-04   1.0613253E+06   -1.8593297E+00
   1.0765049E-04   1.0522731E+06   -1.8588634E+00
   1.0814763E-04   1.0433003E+06   -1.8583962E+00
   1.0864707E-04   1.0344063E+06   -1.8579281E+00
   1.0914881E-04   1.0255903E+06   -1.8574590E+00
   1.0965287E-04   1.0168517E+06   -1.8569890E+00
   1.1015926E-04   1.0081897E+06   -1.8565181E+00
   1.1066799E-04   9.9960363E+05   -1.8560462E+00
   1.1117906E-04   9.9109286E+05   -1.8555734E+00
   1.1169250E-04   9.8265669E+05   -1.8550997E+00
   1.1220831E-04   9.7429446E+05   -1.8546251E+00
   1.1272650E-04   9.6600551E+05   -1.8541496E+00
   1.1324708E-04   9.5778918E+05   -1.8536731E+00
   1.1377007E-04   9.4964482E+05   -1.8531958E+00
   1.1429547E-04   9.4157179E+05   -1.8527175E+00
   1.1482330E-04   9.3356944E+05   -1.8522383E+00
   1.1535356E-04   9.2563716E+05   -1.8517582E+00
   1.1588628E-04   9.1777430E+05   -1.8512772E+00
   1.1642145E-04   9.0998025E+05   -1.8507954E+00
   1.1695910E-04   9.0225440E+05   -1.8503126E+00
   1.1749923E-04   8.9459613E+05   -1.8498289E+00
   1.1804185E-04   8.8700484E+05   -1.8493443E+00
   1.1858698E-04   8.7947994E+05   -1.8488589E+00
   1.1913463E-04   8.7202082E+05   -1.8483726E+00
   1.1968481E-04   8.6462691E+05   -1.8478853E+00
   1.2023752E-04   8.5729761E+05   -1.8473972E+00
   1.2079279E-04   8.5003237E+05   -1.8469083E+00
   1.2135063E-04   8.4283059E+05   -1.8464184E+00
   1.2191104E-04   8.3569171E+05   -1.8459277E+00
   1.2247403E-04   8.2861518E+05   -1.8454361E+00
   1.2303963E-04   8.2160043E+05   -1.8449437E+00
   1.2360784E-04   8.1464692E+05   -1.8444503E+00
   1.2417868E-04   8.0775410E+05   -1.8439562E+00
   1.2475215E-04   8.0092142E+05   -1.8434611E+00
   1.2532826E-04   7.9414835E+05   -1.8429652E+00
   1.2590704E-04   7.8743435E+05   -1.8424685E+00
   1.2648850E-04   7.8077891E+05   -1.8419709E+00
   1.2707263E-04   7.7418150E+05   -1.8414725E+00
   1.2765947E-04   7.6764160E+05   -1.8409732E+00
   1.2824901E-04   7.6115869E+05   -1.8404731E+00
   1.2884128E-04   7.5473228E+05   -1.8399722E+00
   1.2943628E-04   7.4836186E+05   -1.8394704E+00
   1.3003403E-04   7.4204692E+05   -1.8389678E+00
   1.3063454E-04   7.3578697E+05   -1.8384644E+00
   1.3123783E-04   7.2958153E+05   -1.8379601E+00
   1.3184390E-04   7.2343010E+05   -1.8374550E+00
   1.3245277E-04   7.1733221E+05   -1.8369492E+00
   1.3306445E-04   7.1128738E+05   -1.8364425E+00
   1.3367895E-04   7.0529514E+05   -1.8359350E+00
   1.3429630E-04   6.9935501E+05   -1.8354267E+00
   1.3491649E-04   6.9346654E+05   -1.8349175E+00
   1.3553955E-04   6.8762926E+05   -1.8344076E+00
   1.3616548E-04   6.8184272E+05   -1.8338969E+00
   1.3679431E-04   6.7610647E+05   -1.8333855E+00
   1.3742604E-04   6.7042006E+05   -1.8328732E+00
   1.3806069E-04   6.6478304E+05   -1.8323601E+00
   1.3869827E-04   6.5919499E+05   -1.8318463E+00
   1.3933879E-04   6.5365545E+05   -1.8313317E+00
   1.3998227E-04   6.4816400E+05   -1.8308163E+00
   1.4062872E-04   6.4272021E+05   -1.8303001E+00
   1.4127816E-04   6.3732366E+05   -1.8297832E+00
   1.4193060E-04   6.3197393E+05   -1.8292655E+00
   1.4258605E-04   6.2667060E+05   -1.8287471E+00
   1.4324453E-04   6.2141326E+05   -1.8282279E+00
   1.4390605E-04   6.1620150E+05   -1.8277079E+00
   1.4457062E-04   6.1103491E+05   -1.8271873E+00
   1.4523826E-04   6.0591310E+05   -1.8266658E+00
   1.4590899E-04   6.0083567E+05   -1.8261437E+00
   1.4658281E-04   5.9580222E+05   -1.8256208E+00
   1.4725974E-04   5.9081236E+05   -1.8250971E+00
   1.4793981E-04   5.8586571E+05   -1.8245728E+00
   1.4862301E-04   5.8096187E+05   -1.8240477E+00
   1.4930936E-04   5.7610048E+05   -1.8235219E+00
   1.4999889E-04   5.7128115E+05   -1.8229954E+00
   1.5069160E-04   5.6650351E+05   -1.8224682E+00
   1.5138751E-04   5.6176720E+05   -1.8219403E+00
   1.5208663E-04   5.5707183E+05   -1.8214117E+00
   1.5278899E-04   5.5241706E+05   -1.8208823E+00
   1.5349458E-04   5.4780252E+05   -1.8203523E+00
   1.5420343E-04   5.4322786E+05   -1.8198216E+00
   1.5491556E-04   5.3869272E+05   -1.8192903E+00
   1.5563098E-04   5.3419674E+05   -1.8187582E+00
   1.5634970E-04   5.2973959E+05   -1.8182255E+00
   1.5707174E-04   5.2532092E+05   -1.8176921E+00
   1.5779711E-04   5.2094039E+05   -1.8171580E+00
   1.5852584E-04   5.1659765E+05   -1.8166233E+00
   1.5925792E-04   5.1229238E+05   -1.8160879E+00
   1.5999339E-04   5.0802425E+05   -1.8155518E+00
   1.6073226E-04   5.0379292E+05   -1.8150151E+00
   1.6147454E-04   4.9959807E+05   -1.8144778E+00
   1.6222024E-04   4.9543937E+05   -1.8139398E+00
   1.6296939E-04   4.9131651E+05   -1.8134012E+00
   1.6372200E-04   4.8722917E+05   -1.8128620E+00
   1.6447809E-04   4.8317704E+05   -1.8123221E+00
   1.6523767E-04   4.7915980E+05   -1.8117817E+00
   1.6600075E-04   4.7517714E+05   -1.8112406E+00
   1.6676736E-04   4.7122876E+05   -1.8106988E+00
   1.6753751E-04   4.6731435E+05   -1.8101565E+00
   1.6831122E-04   4.6343362E+05   -1.8096136E+00
   1.6908849E-04   4.5958627E+05   -1.8090701E+00
   1.6986936E-04   4.5577200E+05   -1.8085260E+00
   1.7065384E-04   4.5199051E+05   -1.8079813E+00
   1.7144193E-04   4.4824153E+05   -1.8074360E+00
   1.7223367E-04   4.4452476E+05   -1.8068902E+00
   1.7302906E-04   4.4083992E+05   -1.8063437E+00
   1.7382813E-04   4.3718673E+05   -1.8057967E+00
   1.7463089E-04   4.3356490E+05   -1.8052492E+00
   1.7543735E-04   4.2997417E+05   -1.8047011E+00
   1.7624754E-04   4.2641425E+05   -1.8041524E+00
   1.7706147E-04   4.2288487E+05   -1.8036032E+00
   1.7787916E-04   4.1938576E+05   -1.8030534E+00
   1.7870062E-04   4.1591667E+05   -1.8025031E+00
   1.7952588E-04   4.1247731E+05   -1.8019523E+00
   1.8035495E-04   4.0906744E+05   -1.8014009E+00
   1.8118785E-04   4.0568678E+05   -1.8008490E+00
   1.8202459E-04   4.0233509E+05   -1.8002966E+00
   1.8286520E-04   3.9901210E+05   -1.7997437E+00
   1.8370969E-04   3.9571757E+05   -1.7991903E+00
   1.8455808E-04   3.9245124E+05   -1.7986364E+00
   1.8541039E-04   3.8921287E+05   -1.7980819E+00
   1.8626663E-04   3.8600220E+05   -1.7975270E+00
   1.8712683E-04   3.8281900E+05   -1.7969716E+00
   1.8799100E-04   3.7966302E+05   -1.7964158E+00
   1.8885917E-04   3.7653403E+05   -1.7958594E+00
   1.8973134E-04   3.7343178E+05   -1.7953026E+00
   1.9060754E-04   3.7035603E+05   -1.7947453E+00
   1.9148778E-04   3.6730657E+05   -1.7941875E+00
   1.9237209E-04   3.6428315E+05   -1.7936293E+00
   1.9326049E-04   3.6128555E+05   -1.7930707E+00
   1.9415299E-04   3.5831354E+05   -1.7925116E+00
   1.9504960E-04   3.5536689E+05   -1.7919520E+00
   1.9595036E-04   3.5244538E+05   -1.7913921E+00
   1.9685528E-04   3.4954879E+05   -1.7908317E+00
   1.9776438E-04   3.4667691E+05   -1.7902708E+00
   1.9867768E-04   3.4382950E+05   -1.7897096E+00
   1.9959519E-04   3.4100637E+05   -1.7891479E+00
   2.0051694E-04   3.3820729E+05   -1.7885859E+00
   2.0144295E-04   3.3543206E+05   -1.7880234E+00
   2.0237324E-04   3.3268046E+05   -1.7874606E+00
   2.0330782E-04   3.2995229E+05   -1.7868973E+00
   2.0424671E-04   3.2724735E+05   -1.7863337E+00
   2.0518995E-04   3.2456542E+05   -1.7857697E+00
   2.0613754E-04   3.2190630E+05   -1.7852053E+00
   2.0708950E-04   3.1926981E+05   -1.7846406E+00
   2.0804586E-04   3.1665573E+05   -1.7840755E+00
   2.0900664E-04   3.1406387E+05   -1.7835101E+00
   2.0997185E-04   3.1149404E+05   -1.7829442E+00
   2.1094152E-04   3.0894604E+05   -1.7823781E+00
   2.1191567E-04   3.0641969E+05   -1.7818116E+00
   2.1289432E-04   3.0391478E+05   -1.7812448E+00
   2.1387749E-04   3.0143114E+05   -1.7806776E+00
   2.1486520E-04   2.9896858E+05   -1.7801102E+00
   2.1585747E-04   2.9652691E+05   -1.7795424E+00
   2.1685432E-04   2.9410596E+05   -1.7789743E+00
   2.1785578E-04   2.9170553E+05   -1.7784059E+00
   2.1886186E-04   2.8932545E+05   -1.7778372E+00
   2.1987259E-04   2.8696554E+05   -1.7772682E+00
   2.2088798E-04   2.8462563E+05   -1.7766990E+00
   2.2190807E-04   2.8230554E+05   -1.7761294E+00
   2.2293286E-04   2.8000510E+05   -1.7755596E+00
   2.2396239E-04   2.7772413E+05   -1.7749895E+00
   2.2499667E-04   2.7546246E+05   -1.7744191E+00
   2.2603573E-04   2.7321994E+05   -1.7738485E+00
   2.2707958E-04   2.7099638E+05   -1.7732776E+00
   2.2812826E-04   2.6879162E+05   -1.7727065E+00
   2.2918178E-04   2.6660550E+05   -1.7721352E+00
   2.3024017E-04   2.6443786E+05   -1.7715636E+00
   2.3130344E-04   2.6228854E+05   -1.7709918E+00
   2.3237162E-04   2.6015737E+05   -1.7704197E+00
   2.3344474E-04   2.5804419E+05   -1.7698475E+00
   2.3452281E-04   2.5594886E+05   -1.7692750E+00
   2.3560586E-04   2.5387121E+05   -1.7687024E+00
   2.3669392E-04   2.5181109E+05   -1.7681295E+00
   2.3778699E-04   2.4976835E+05   -1.7675564E+00
   2.3888512E-04   2.4774283E+05   -1.7669832E+00
   2.3998831E-04   2.4573438E+05   -1.7664098E+00
   2.4109661E-04   2.4374287E+05   -1.7658362E+00
   2.4221001E-04   2.4176813E+05   -1.7652624E+00
   2.4332857E-04   2.3981002E+05   -1.7646885E+00
   2.4445228E-04   2.3786841E+05   -1.7641144E+00
   2.4558119E-04   2.3594313E+05   -1.7635402E+00
   2.4671531E-04   2.3403406E+05   -1.7629658E+00
   2.4785467E-04   2.3214105E+05   -1.7623913E+00
   2.4899928E-04   2.3026397E+05   -1.7618167E+00
   2.5014919E-04   2.2840266E+05   -1.7612419E+00
   2.5130440E-04   2.2655700E+05   -1.7606670E+00
   2.5246495E-04   2.2472685E+05   -1.7600920E+00
   2.5363086E-04   2.2291208E+05   -1.7595169E+00
   2.5480216E-04   2.2111255E+05   -1.7589417E+00
   2.5597886E-04   2.1932812E+05   -1.7583664E+00
   2.5716100E-04   2.1755867E+05   -1.7577910E+00
   2.5834859E-04   2.1580407E+05   -1.7572155E+00
   2.5954168E-04   2.1406419E+05   -1.7566400E+00
   2.6074027E-04   2.1233890E+05   -1.7560643E+00
   2.6194439E-04   2.1062807E+05   -1.7554886E+00
   2.6315408E-04   2.0893158E+05   -1.7549129E+00
   2.6436935E-04   2.0724931E+05   -1.7543371E+00
   2.6559024E-04   2.0558112E+05   -1.7537613E+00
   2.6681676E-04   2.0392691E+05   -1.7531854E+00
   2.6804895E-04   2.0228654E+05   -1.7526094E+00
   2.6928683E-04   2.0065990E+05   -1.7520335E+00
   2.7053042E-04   1.9904687E+05   -1.7514575E+00
   2.7177976E-04   1.9744733E+05   -1.7508815E+00
   2.7303487E-04   1.9586116E+05   -1.7503055E+00
   2.7429577E-04   1.9428825E+05   -1.7497295E+00
   2.7556250E-04   1.9272848E+05   -1.7491535E+00
   2.7683507E-04   1.9118174E+05   -1.7485775E+00
   2.7811353E-04   1.8964792E+05   -1.7480016E+00
   2.7939788E-04   1.8812690E+05   -1.7474256E+00
   2.8068817E-04   1.8661858E+05   -1.7468497E+00
   2.8198442E-04   1.8512285E+05   -1.7462738E+00
   2.8328665E-04   1.8363958E+05   -1.7456979E+00
   2.8459490E-04   1.8216869E+05   -1.7451221E+00
   2.8590919E-04   1.8071006E+05   -1.7445464E+00
   2.8722955E-04   1.7926358E+05   -1.7439707E+00
   2.8855600E-04   1.7782915E+05   -1.7433950E+00
   2.8988859E-04   1.7640666E+05   -1.7428195E+00
   2.9122732E-04   1.7499602E+05   -1.7422440E+00
   2.9257224E-04   1.7359712E+05   -1.7416686E+00
   2.9392337E-04   1.7220986E+05   -1.7410932E+00
   2.9528074E-04   1.7083414E+05   -1.7405180E+00
   2.9664438E-04   1.6946986E+05   -1.7399429E+00
   2.9801431E-04   1.6811692E+05   -1.7393678E+00
   2.9939057E-04   1.6677522E+05   -1.7387929E+00
   3.0077319E-04   1.6544466E+05   -1.7382181E+00
   3.0216219E-04   1.6412516E+05   -1.7376435E+00
   3.0355761E-04   1.6281661E+05   -1.7370689E+00
   3.0495947E-04   1.6151892E+05   -1.7364945E+00
   3.0636780E-04   1.6023200E+05   -1.7359203E+00
   3.0778264E-04   1.5895576E+05   -1.7353462E+00
   3.0920401E-04   1.5769009E+05   -1.7347722E+00
   3.1063195E-04   1.5643492E+05   -1.7341984E+00
   3.1206648E-04   1.5519015E+05   -1.7336248E+00
   3.1350764E-04   1.5395568E+05   -1.7330513E+00
   3.1495545E-04   1.5273145E+05   -1.7324780E+00
   3.1640994E-04   1.5151734E+05   -1.7319049E+00
   3.1787116E-04   1.5031329E+05   -1.7313320E+00
   3.1933912E-04   1.4911920E+05   -1.7307593E+00
   3.2081386E-04   1.4793498E+05   -1.7301868E+00
   3.2229541E-04   1.4676056E+05   -1.7296145E+00
   3.2378381E-04   1.4559584E+05   -1.7290424E+00
   3.2527908E-04   1.4444075E+05   -1.7284706E+00
   3.2678125E-04   1.4329519E+05   -1.7278989E+00
   3.2829036E-04   1.4215910E+05   -1.7273275E+00
   3.2980644E-04   1.4103239E+05   -1.7267564E+00
   3.3132952E-04   1.3991497E+05   -1.7261855E+00
   3.3285963E-04   1.3880677E+05   -1.7256148E+00
   3.3439681E-04   1.3770772E+05   -1.7250444E+00
   3.3594109E-04   1.3661772E+05   -1.7244742E+00
   3.3749250E-04   1.3553671E+05   -1.7239043E+00
   3.3905108E-04   1.3446460E+05   -1.7233347E+00
   3.4061685E-04   1.3340132E+05   -1.7227654E+00
   3.4218986E-04   1.3234680E+05   -1.7221963E+00
   3.4377013E-04   1.3130096E+05   -1.7216276E+00
   3.4535769E-04   1.3026373E+05   -1.7210591E+00
   3.4695259E-04   1.2923502E+05   -1.7204910E+00
   3.4855485E-04   1.2821478E+05   -1.7199231E+00
   3.5016452E-04   1.2720292E+05   -1.7193556E+00
   3.5178161E-04   1.2619938E+05   -1.7187884E+00
   3.5340618E-04   1.2520409E+05   -1.7182215E+00
   3.5503824E-04   1.2421696E+05   -1.7176549E+00
   3.5667785E-04   1.2323794E+05   -1.7170887E+00
   3.5832502E-04   1.2226696E+05   -1.7165228E+00
   3.5997981E-04   1.2130394E+05   -1.7159573E+00
   3.6164223E-04   1.2034882E+05   -1.7153921E+00
   3.6331233E-04   1.1940154E+05   -1.7148273E+00
   3.6499015E-04   1.1846201E+05   -1.7142628E+00
   3.6667571E-04   1.1753019E+05   -1.7136987E+00
   3.6836906E-04   1.1660600E+05   -1.7131350E+00
   3.7007022E-04   1.1568937E+05   -1.7125717E+00
   3.7177925E-04   1.1478025E+05   -1.7120088E+00
   3.7349616E-04   1.1387857E+05   -1.7114462E+00
   3.7522101E-04   1.1298426E+05   -1.7108841E+00
   3.7695382E-04   1.1209727E+05   -1.7103224E+00
   3.7869463E-04   1.1121753E+05   -1.7097610E+00
   3.8044348E-04   1.1034498E+05   -1.7092001E+00
   3.8220041E-04   1.0947956E+05   -1.7086396E+00
   3.8396545E-04   1.0862120E+05   -1.7080796E+00
   3.8573864E-04   1.0776985E+05   -1.7075199E+00
   3.8752002E-04   1.0692545E+05   -1.7069607E+00
   3.8930963E-04   1.0608794E+05   -1.7064020E+00
   3.9110750E-04   1.0525727E+05   -1.7058437E+00
   3.9291368E-04   1.0443336E+05   -1.7052858E+00
   3.9472820E-04   1.0361617E+05   -1.7047284E+00
   3.9655109E-04   1.0280564E+05   -1.7041715E+00
   3.9838241E-04   1.0200170E+05   -1.7036150E+00
   4.0022218E-04   1.0120432E+05   -1.7030591E+00
   4.0207045E-04   1.0041343E+05   -1.7025036E+00
   4.0392725E-04   9.9628968E+04   -1.7019485E+00
   4.0579263E-04   9.8850891E+04   -1.7013940E+00
   4.0766662E-04   9.8079141E+04   -1.7008400E+00
   4.0954927E-04   9.7313664E+04   -1.7002864E+00
   4.1144061E-04   9.6554408E+04   -1.6997334E+00
   4.1334068E-04   9.5801319E+04   -1.6991809E+00
   4.1524953E-04   9.5054346E+04   -1.6986289E+00
   4.1716720E-04   9.4313438E+04   -1.6980774E+00
   4.1909372E-04   9.3578541E+04   -1.6975265E+00
   4.2102914E-04   9.2849607E+04   -1.6969761E+00
   4.2297350E-04   9.2126584E+04   -1.6964262E+00
   4.2492683E-04   9.1409423E+04   -1.6958768E+00
   4.2688919E-04   9.0698075E+04   -1.6953280E+00
   4.2886061E-04   8.9992489E+04   -1.6947798E+00
   4.3084113E-04   8.9292619E+04   -1.6942321E+00
   4.3283080E-04   8.8598414E+04   -1.6936850E+00
   4.3482966E-04   8.7909828E+04   -1.6931384E+00
   4.3683775E-04   8.7226813E+04   -1.6925925E+00
   4.3885511E-04   8.6549323E+04   -1.6920470E+00
   4.4088179E-04   8.5877310E+04   -1.6915022E+00
   4.4291783E-04   8.5210729E+04   -1.6909580E+00
   4.4496327E-04   8.4549534E+04   -1.6904143E+00
   4.4701816E-04   8.3893679E+04   -1.6898713E+00
   4.4908253E-04   8.3243120E+04   -1.6893288E+00
   4.5115644E-04   8.2597812E+04   -1.6887870E+00
   4.5323993E-04   8.1957711E+04   -1.6882457E+00
   4.5533304E-04   8.1322773E+04   -1.6877051E+00
   4.5743582E-04   8.0692956E+04   -1.6871651E+00
   4.5954830E-04   8.0068215E+04   -1.6866257E+00
   4.6167054E-04   7.9448508E+04   -1.6860870E+00
   4.6380259E-04   7.8833793E+04   -1.6855489E+00
   4.6594448E-04   7.8224028E+04   -1.6850114E+00
   4.6809626E-04   7.7619172E+04   -1.6844746E+00
   4.7025797E-04   7.7019183E+04   -1.6839384E+00
   4.7242967E-04   7.6424021E+04   -1.6834028E+00
   4.7461140E-04   7.5833644E+04   -1.6828679E+00
   4.7680321E-04   7.5248014E+04   -1.6823337E+00
   4.7900514E-04   7.4667090E+04   -1.6818002E+00
   4.8121723E-04   7.4090833E+04   -1.6812673E+00
   4.8343954E-04   7.3519203E+04   -1.6807351E+00
   4.8567212E-04   7.2952163E+04   -1.6802035E+00
   4.8791500E-04   7.2389673E+04   -1.6796727E+00
   4.9016825E-04   7.1831696E+04   -1.6791425E+00
   4.9243189E-04   7.1278194E+04   -1.6786130E+00
   4.9470600E-04   7.0729129E+04   -1.6780843E+00
   4.9699060E-04   7.0184465E+04   -1.6775562E+00
   4.9928575E-04   6.9644164E+04   -1.6770288E+00
   5.0159151E-04   6.9108190E+04   -1.6765021E+00
   5.0390791E-04   6.8576508E+04   -1.6759762E+00
   5.0623501E-04   6.8049080E+04   -1.6754509E+00
   5.0857286E-04   6.7525873E+04   -1.6749264E+00
   5.1092150E-04   6.7006850E+04   -1.6744026E+00
   5.1328099E-04   6.6491977E+04   -1.6738795E+00
   5.1565137E-04   6.5981219E+04   -1.6733572E+00
   5.1803270E-04   6.5474542E+04   -1.6728356E+00
   5.2042503E-04   6.4971912E+04   -1.6723147E+00
   5.2282841E-04   6.4473295E+04   -1.6717946E+00
   5.2524289E-04   6.3978657E+04   -1.6712753E+00
   5.2766851E-04   6.3487967E+04   -1.6707566E+00
   5.3010534E-04   6.3001190E+04   -1.6702388E+00
   5.3255342E-04   6.2518294E+04   -1.6697217E+00
   5.3501281E-04   6.2039248E+04   -1.6692054E+00
   5.3748356E-04   6.1564018E+04   -1.6686898E+00
   5.3996571E-04   6.1092574E+04   -1.6681750E+00
   5.4245933E-04   6.0624884E+04   -1.6676610E+00
   5.4496446E-04   6.0160916E+04   -1.6671477E+00
   5.4748117E-04   5.9700641E+04   -1.6666353E+00
   5.5000949E-04   5.9244026E+04   -1.6661236E+00
   5.5254949E-04   5.8791043E+04   -1.6656127E+00
   5.5510123E-04   5.8341660E+04   -1.6651026E+00
   5.5766474E-04   5.7895848E+04   -1.6645933E+00
   5.6024010E-04   5.7453578E+04   -1.6640848E+00
   5.6282734E-04   5.7014819E+04   -1.6635771E+00
   5.6542654E-04   5.6579544E+04   -1.6630702E+00
   5.6803774E-04   5.6147722E+04   -1.6625641E+00
   5.7066099E-04   5.5719326E+04   -1.6620589E+00
   5.7329637E-04   5.5294327E+04   -1.6615544E+00
   5.7594391E-04   5.4872698E+04   -1.6610508E+00
   5.7860368E-04   5.4454409E+04   -1.6605480E+00
   5.8127573E-04   5.4039435E+04   -1.6600460E+00
   5.8396012E-04   5.3627746E+04   -1.6595449E+00
   5.8665691E-04   5.3219317E+04   -1.6590446E+00
   5.8936616E-04   5.2814120E+04   -1.6585451E+00
   5.9208791E-04   5.2412129E+04   -1.6580464E+00
   5.9482223E-04   5.2013316E+04   -1.6575486E+00
   5.9756919E-04   5.1617657E+04   -1.6570517E+00
   6.0032882E-04   5.1225124E+04   -1.6565556E+00
   6.0310120E-04   5.0835693E+04   -1.6560604E+00
   6.0588639E-04   5.0449337E+04   -1.6555660E+00
   6.0868443E-04   5.0066032E+04   -1.6550724E+00
   6.1149540E-04   4.9685751E+04   -1.6545798E+00
   6.1431935E-04   4.9308471E+04   -1.6540880E+00
   6.1715634E-04   4.8934167E+04   -1.6535970E+00
   6.2000644E-04   4.8562814E+04   -1.6531070E+00
   6.2286969E-04   4.8194388E+04   -1.6526178E+00
