#        a       HoverH0(a)       dlogHdloga_of_a(a)
   1.0000000E-04   1.0933484E+06   -1.8649808E+00
   1.0046181E-04   1.0839948E+06   -1.8645262E+00
   1.0092575E-04   1.0747235E+06   -1.8640706E+00
   1.0139184E-04   1.0655337E+06   -1.8636141E+00
   1.0186008E-04   1.0564247E+06   -1.8631566E+00
   1.0233048E-04   1.0473958E+06   -1.8626982E+00
   1.0280305E-04   1.0384463E+06   -1.8622388E+00
   1.0327781E-04   1.0295754E+06   -1.8617784E+00
   1.0375475E-04   1.0207825E+06   -1.8613172E+00
   1.0423390E-04   1.0120668E+06   -1.8608549E+00
   1.0471527E-04   1.0034276E+06   -1.8603917E+00
   1.0519885E-04   9.9486437E+05   -1.8599276E+00
   1.0568467E-04   9.8637629E+05   -1.8594626E+00
   1.0617274E-04   9.7796273E+05   -1.8589966E+00
   1.0666305E-04   9.6962302E+05   -1.8585296E+00
   1.0715563E-04   9.6135650E+05   -1.8580617E+00
   1.0765049E-04   9.5316252E+05   -1.8575929E+00
   1.0814763E-04   9.4504041E+05   -1.8571232E+00
   1.0864707E-04   9.3698955E+05   -1.8566525E+00
   1.0914881E-04   9.2900929E+05   -1.8561809E+00
   1.0965287E-04   9.2109900E+05   -1.8557084E+00
   1.1015926E-04   9.1325806E+05   -1.8552350E+00
   1.1066799E-04   9.0548583E+05   -1.8547606E+00
   1.1117906E-04   8.9778172E+05   -1.8542853E+00
   1.1169250E-04   8.9014511E+05   -1.8538091E+00
   1.1220831E-04   8.8257539E+05   -1.8533320E+00
   1.1272650E-04   8.7507197E+05   -1.8528540E+00
   1.1324708E-04   8.6763425E+05   -1.8523751E+00
   1.1377007E-04   8.6026165E+05   -1.8518953E+00
   1.1429547E-04   8.5295359E+05   -1.8514146E+00
   1.1482330E-04   8.4570949E+05   -1.8509329E+00
   1.1535356E-04   8.3852877E+05   -1.8504504E+00
   1.1588628E-04   8.3141088E+05   -1.8499670E+00
   1.1642145E-04   8.2435524E+05   -1.8494827E+00
   1.1695910E-04   8.1736130E+05   -1.8489975E+00
   1.1749923E-04   8.1042851E+05   -1.8485114E+00
   1.1804185E-04   8.0355633E+05   -1.8480244E+00
   1.1858698E-04   7.9674421E+05   -1.8475366E+00
   1.1913463E-04   7.8999162E+05   -1.8470479E+00
   1.1968481E-04   7.8329802E+05   -1.8465583E+00
   1.2023752E-04   7.7666289E+05   -1.8460678E+00
   1.2079279E-04   7.7008571E+05   -1.8455765E+00
   1.2135063E-04   7.6356596E+05   -1.8450842E+00
   1.2191104E-04   7.5710312E+05   -1.8445912E+00
   1.2247403E-04   7.5069669E+05   -1.8440972E+00
   1.2303963E-04   7.4434617E+05   -1.8436025E+00
   1.2360784E-04   7.3805105E+05   -1.8431068E+00
   1.2417868E-04   7.3181085E+05   -1.8426103E+00
   1.2475215E-04   7.2562507E+05   -1.8421130E+00
   1.2532826E-04   7.1949322E+05   -1.8416148E+00
   1.2590704E-04   7.1341483E+05   -1.8411158E+00
   1.2648850E-04   7.0738942E+05   -1.8406159E+00
   1.2707263E-04   7.0141651E+05   -1.8401152E+00
   1.2765947E-04   6.9549565E+05   -1.8396136E+00
   1.2824901E-04   6.8962636E+05   -1.8391113E+00
   1.2884128E-04   6.8380818E+05   -1.8386081E+00
   1.2943628E-04   6.7804067E+05   -1.8381041E+00
   1.3003403E-04   6.7232336E+05   -1.8375992E+00
   1.3063454E-04   6.6665581E+05   -1.8370936E+00
   1.3123783E-04   6.6103758E+05   -1.8365871E+00
   1.3184390E-04   6.5546823E+05   -1.8360798E+00
   1.3245277E-04   6.4994732E+05   -1.8355718E+00
   1.3306445E-04   6.4447442E+05   -1.8350629E+00
   1.3367895E-04   6.3904911E+05   -1.8345532E+00
   1.3429630E-04   6.3367096E+05   -1.8340427E+00
   1.3491649E-04   6.2833954E+05   -1.8335315E+00
   1.3553955E-04   6.2305446E+05   -1.8330194E+00
   1.3616548E-04   6.1781528E+05   -1.8325066E+00
   1.3679431E-04   6.1262162E+05   -1.8319930E+00
   1.3742604E-04   6.0747305E+05   -1.8314786E+00
   1.3806069E-04   6.0236917E+05   -1.8309634E+00
   1.3869827E-04   5.9730960E+05   -1.8304475E+00
   1.3933879E-04   5.9229394E+05   -1.8299308E+00
   1.3998227E-04   5.8732179E+05   -1.8294133E+00
   1.4062872E-04   5.8239277E+05   -1.8288951E+00
   1.4127816E-04   5.7750649E+05   -1.8283761E+00
   1.4193060E-04   5.7266259E+05   -1.8278564E+00
   1.4258605E-04   5.6786067E+05   -1.8273359E+00
   1.4324453E-04   5.6310037E+05   -1.8268147E+00
   1.4390605E-04   5.5838131E+05   -1.8262927E+00
   1.4457062E-04   5.5370314E+05   -1.8257700E+00
   1.4523826E-04   5.4906548E+05   -1.8252466E+00
   1.4590899E-04   5.4446799E+05   -1.8247225E+00
   1.4658281E-04   5.3991029E+05   -1.8241976E+00
   1.4725974E-04   5.3539204E+05   -1.8236720E+00
   1.4793981E-04   5.3091289E+05   -1.8231457E+00
   1.4862301E-04   5.2647248E+05   -1.8226187E+00
   1.4930936E-04   5.2207049E+05   -1.8220910E+00
   1.4999889E-04   5.1770656E+05   -1.8215626E+00
   1.5069160E-04   5.1338036E+05   -1.8210335E+00
   1.5138751E-04   5.0909155E+05   -1.8205037E+00
   1.5208663E-04   5.0483981E+05   -1.8199732E+00
   1.5278899E-04   5.0062479E+05   -1.8194420E+00
   1.5349458E-04   4.9644619E+05   -1.8189101E+00
   1.5420343E-04   4.9230367E+05   -1.8183776E+00
   1.5491556E-04   4.8819692E+05   -1.8178444E+00
   1.5563098E-04   4.8412562E+05   -1.8173105E+00
   1.5634970E-04   4.8008945E+05   -1.8167759E+00
   1.5707174E-04   4.7608810E+05   -1.8162407E+00
   1.5779711E-04   4.7212127E+05   -1.8157049E+00
   1.5852584E-04   4.6818864E+05   -1.8151684E+00
   1.5925792E-04   4.6428992E+05   -1.8146312E+00
   1.5999339E-04   4.6042481E+05   -1.8140934E+00
   1.6073226E-04   4.5659300E+05   -1.8135550E+00
   1.6147454E-04   4.5279421E+05   -1.8130159E+00
   1.6222024E-04   4.4902814E+05   -1.8124763E+00
   1.6296939E-04   4.4529451E+05   -1.8119360E+00
   1.6372200E-04   4.4159301E+05   -1.8113950E+00
   1.6447809E-04   4.3792338E+05   -1.8108535E+00
   1.6523767E-04   4.3428533E+05   -1.8103114E+00
   1.6600075E-04   4.3067857E+05   -1.8097686E+00
   1.6676736E-04   4.2710284E+05   -1.8092253E+00
   1.6753751E-04   4.2355786E+05   -1.8086813E+00
   1.6831122E-04   4.2004336E+05   -1.8081368E+00
   1.6908849E-04   4.1655906E+05   -1.8075917E+00
   1.6986936E-04   4.1310470E+05   -1.8070460E+00
   1.7065384E-04   4.0968002E+05   -1.8064997E+00
   1.7144193E-04   4.0628475E+05   -1.8059529E+00
   1.7223367E-04   4.0291864E+05   -1.8054055E+00
   1.7302906E-04   3.9958142E+05   -1.8048575E+00
   1.7382813E-04   3.9627285E+05   -1.8043090E+00
   1.7463089E-04   3.9299266E+05   -1.8037600E+00
   1.7543735E-04   3.8974062E+05   -1.8032104E+00
   1.7624754E-04   3.8651646E+05   -1.8026602E+00
   1.7706147E-04   3.8331995E+05   -1.8021095E+00
   1.7787916E-04   3.8015084E+05   -1.8015583E+00
   1.7870062E-04   3.7700888E+05   -1.8010066E+00
   1.7952588E-04   3.7389385E+05   -1.8004543E+00
   1.8035495E-04   3.7080550E+05   -1.7999016E+00
   1.8118785E-04   3.6774359E+05   -1.7993483E+00
   1.8202459E-04   3.6470790E+05   -1.7987945E+00
   1.8286520E-04   3.6169819E+05   -1.7982402E+00
   1.8370969E-04   3.5871423E+05   -1.7976855E+00
   1.8455808E-04   3.5575580E+05   -1.7971302E+00
   1.8541039E-04   3.5282268E+05   -1.7965745E+00
   1.8626663E-04   3.4991463E+05   -1.7960182E+00
   1.8712683E-04   3.4703144E+05   -1.7954616E+00
   1.8799100E-04   3.4417290E+05   -1.7949044E+00
   1.8885917E-04   3.4133877E+05   -1.7943468E+00
   1.8973134E-04   3.3852885E+05   -1.7937887E+00
   1.9060754E-04   3.3574293E+05   -1.7932302E+00
   1.9148778E-04   3.3298079E+05   -1.7926712E+00
   1.9237209E-04   3.3024223E+05   -1.7921118E+00
   1.9326049E-04   3.2752703E+05   -1.7915519E+00
   1.9415299E-04   3.2483499E+05   -1.7909917E+00
   1.9504960E-04   3.2216592E+05   -1.7904310E+00
   1.9595036E-04   3.1951960E+05   -1.7898698E+00
   1.9685528E-04   3.1689584E+05   -1.7893083E+00
   1.9776438E-04   3.1429444E+05   -1.7887464E+00
   1.9867768E-04   3.1171519E+05   -1.7881840E+00
   1.9959519E-04   3.0915792E+05   -1.7876213E+00
   2.0051694E-04   3.0662242E+05   -1.7870582E+00
   2.0144295E-04   3.0410851E+05   -1.7864946E+00
   2.0237324E-04   3.0161599E+05   -1.7859308E+00
   2.0330782E-04   2.9914467E+05   -1.7853665E+00
   2.0424671E-04   2.9669438E+05   -1.7848019E+00
   2.0518995E-04   2.9426492E+05   -1.7842369E+00
   2.0613754E-04   2.9185612E+05   -1.7836715E+00
   2.0708950E-04   2.8946779E+05   -1.7831058E+00
   2.0804586E-04   2.8709975E+05   -1.7825398E+00
   2.0900664E-04   2.8475182E+05   -1.7819734E+00
   2.0997185E-04   2.8242384E+05   -1.7814066E+00
   2.1094152E-04   2.8011562E+05   -1.7808396E+00
   2.1191567E-04   2.7782699E+05   -1.7802722E+00
   2.1289432E-04   2.7555778E+05   -1.7797045E+00
   2.1387749E-04   2.7330782E+05   -1.7791365E+00
   2.1486520E-04   2.7107694E+05   -1.7785682E+00
   2.1585747E-04   2.6886497E+05   -1.7779996E+00
   2.1685432E-04   2.6667175E+05   -1.7774307E+00
   2.1785578E-04   2.6449712E+05   -1.7768615E+00
   2.1886186E-04   2.6234090E+05   -1.7762920E+00
   2.1987259E-04   2.6020295E+05   -1.7757223E+00
   2.2088798E-04   2.5808310E+05   -1.7751523E+00
   2.2190807E-04   2.5598119E+05   -1.7745820E+00
   2.2293286E-04   2.5389707E+05   -1.7740114E+00
   2.2396239E-04   2.5183058E+05   -1.7734406E+00
   2.2499667E-04   2.4978156E+05   -1.7728696E+00
   2.2603573E-04   2.4774987E+05   -1.7722983E+00
   2.2707958E-04   2.4573535E+05   -1.7717268E+00
   2.2812826E-04   2.4373786E+05   -1.7711550E+00
   2.2918178E-04   2.4175723E+05   -1.7705831E+00
   2.3024017E-04   2.3979334E+05   -1.7700109E+00
   2.3130344E-04   2.3784602E+05   -1.7694385E+00
   2.3237162E-04   2.3591514E+05   -1.7688659E+00
   2.3344474E-04   2.3400055E+05   -1.7682931E+00
   2.3452281E-04   2.3210212E+05   -1.7677201E+00
   2.3560586E-04   2.3021969E+05   -1.7671469E+00
   2.3669392E-04   2.2835314E+05   -1.7665735E+00
   2.3778699E-04   2.2650231E+05   -1.7660000E+00
   2.3888512E-04   2.2466708E+05   -1.7654263E+00
   2.3998831E-04   2.2284731E+05   -1.7648524E+00
   2.4109661E-04   2.2104287E+05   -1.7642784E+00
   2.4221001E-04   2.1925361E+05   -1.7637042E+00
   2.4332857E-04   2.1747942E+05   -1.7631298E+00
   2.4445228E-04   2.1572015E+05   -1.7625554E+00
   2.4558119E-04   2.1397568E+05   -1.7619808E+00
   2.4671531E-04   2.1224588E+05   -1.7614060E+00
   2.4785467E-04   2.1053062E+05   -1.7608312E+00
   2.4899928E-04   2.0882977E+05   -1.7602562E+00
   2.5014919E-04   2.0714322E+05   -1.7596811E+00
   2.5130440E-04   2.0547083E+05   -1.7591060E+00
   2.5246495E-04   2.0381248E+05   -1.7585307E+00
   2.5363086E-04   2.0216805E+05   -1.7579553E+00
   2.5480216E-04   2.0053743E+05   -1.7573799E+00
   2.5597886E-04   1.9892048E+05   -1.7568043E+00
   2.5716100E-04   1.9731709E+05   -1.7562287E+00
   2.5834859E-04   1.9572715E+05   -1.7556531E+00
   2.5954168E-04   1.9415053E+05   -1.7550773E+00
   2.6074027E-04   1.9258712E+05   -1.7545015E+00
   2.6194439E-04   1.9103681E+05   -1.7539257E+00
   2.6315408E-04   1.8949948E+05   -1.7533498E+00
   2.6436935E-04   1.8797503E+05   -1.7527739E+00
   2.6559024E-04   1.8646333E+05   -1.7521980E+00
   2.6681676E-04   1.8496428E+05   -1.7516220E+00
   2.6804895E-04   1.8347776E+05   -1.7510460E+00
   2.6928683E-04   1.8200368E+05   -1.7504700E+00
   2.7053042E-04   1.8054192E+05   -1.7498940E+00
   2.7177976E-04   1.7909237E+05   -1.7493180E+00
   2.7303487E-04   1.7765494E+05   -1.7487421E+00
   2.7429577E-04   1.7622951E+05   -1.7481661E+00
   2.7556250E-04   1.7481598E+05   -1.7475901E+00
   2.7683507E-04   1.7341424E+05   -1.7470142E+00
   2.7811353E-04   1.7202421E+05   -1.7464383E+00
   2.7939788E-04   1.7064577E+05   -1.7458624E+00
   2.8068817E-04   1.6927882E+05   -1.7452866E+00
   2.8198442E-04   1.6792327E+05   -1.7447108E+00
   2.8328665E-04   1.6657901E+05   -1.7441351E+00
   2.8459490E-04   1.6524596E+05   -1.7435594E+00
   2.8590919E-04   1.6392401E+05   -1.7429839E+00
   2.8722955E-04   1.6261306E+05   -1.7424083E+00
   2.8855600E-04   1.6131303E+05   -1.7418329E+00
   2.8988859E-04   1.6002381E+05   -1.7412576E+00
   2.9122732E-04   1.5874532E+05   -1.7406823E+00
   2.9257224E-04   1.5747746E+05   -1.7401071E+00
   2.9392337E-04   1.5622014E+05   -1.7395321E+00
   2.9528074E-04   1.5497327E+05   -1.7389572E+00
   2.9664438E-04   1.5373675E+05   -1.7383823E+00
   2.9801431E-04   1.5251051E+05   -1.7378076E+00
   2.9939057E-04   1.5129445E+05   -1.7372330E+00
   3.0077319E-04   1.5008848E+05   -1.7366586E+00
   3.0216219E-04   1.4889252E+05   -1.7360843E+00
   3.0355761E-04   1.4770648E+05   -1.7355102E+00
   3.0495947E-04   1.4653028E+05   -1.7349362E+00
   3.0636780E-04   1.4536383E+05   -1.7343623E+00
   3.0778264E-04   1.4420704E+05   -1.7337886E+00
   3.0920401E-04   1.4305984E+05   -1.7332151E+00
   3.1063195E-04   1.4192213E+05   -1.7326418E+00
   3.1206648E-04   1.4079385E+05   -1.7320687E+00
   3.1350764E-04   1.3967491E+05   -1.7314957E+00
   3.1495545E-04   1.3856522E+05   -1.7309229E+00
   3.1640994E-04   1.3746471E+05   -1.7303504E+00
   3.1787116E-04   1.3637331E+05   -1.7297780E+00
   3.1933912E-04   1.3529092E+05   -1.7292059E+00
   3.2081386E-04   1.3421748E+05   -1.7286340E+00
   3.2229541E-04   1.3315291E+05   -1.7280623E+00
   3.2378381E-04   1.3209713E+05   -1.7274908E+00
   3.2527908E-04   1.3105007E+05   -1.7269196E+00
   3.2678125E-04   1.3001164E+05   -1.7263486E+00
   3.2829036E-04   1.2898179E+05   -1.7257778E+00
   3.2980644E-04   1.2796043E+05   -1.7252073E+00
   3.3132952E-04   1.2694749E+05   -1.7246371E+00
   3.3285963E-04   1.2594290E+05   -1.7240672E+00
   3.3439681E-04   1.2494659E+05   -1.7234975E+00
   3.3594109E-04   1.2395848E+05   -1.7229281E+00
   3.3749250E-04   1.2297851E+05   -1.7223589E+00
   3.3905108E-04   1.2200661E+05   -1.7217901E+00
   3.4061685E-04   1.2104271E+05   -1.7212215E+00
   3.4218986E-04   1.2008673E+05   -1.7206533E+00
   3.4377013E-04   1.1913862E+05   -1.7200854E+00
   3.4535769E-04   1.1819831E+05   -1.7195177E+00
   3.4695259E-04   1.1726572E+05   -1.7189504E+00
   3.4855485E-04   1.1634079E+05   -1.7183835E+00
   3.5016452E-04   1.1542346E+05   -1.7178168E+00
   3.5178161E-04   1.1451366E+05   -1.7172505E+00
   3.5340618E-04   1.1361133E+05   -1.7166845E+00
   3.5503824E-04   1.1271641E+05   -1.7161189E+00
   3.5667785E-04   1.1182882E+05   -1.7155536E+00
   3.5832502E-04   1.1094851E+05   -1.7149887E+00
   3.5997981E-04   1.1007542E+05   -1.7144241E+00
   3.6164223E-04   1.0920948E+05   -1.7138599E+00
   3.6331233E-04   1.0835064E+05   -1.7132961E+00
   3.6499015E-04   1.0749883E+05   -1.7127327E+00
   3.6667571E-04   1.0665400E+05   -1.7121697E+00
   3.6836906E-04   1.0581607E+05   -1.7116070E+00
   3.7007022E-04   1.0498501E+05   -1.7110448E+00
   3.7177925E-04   1.0416074E+05   -1.7104829E+00
   3.7349616E-04   1.0334320E+05   -1.7099215E+00
   3.7522101E-04   1.0253235E+05   -1.7093604E+00
   3.7695382E-04   1.0172813E+05   -1.7087998E+00
   3.7869463E-04   1.0093047E+05   -1.7082396E+00
   3.8044348E-04   1.0013933E+05   -1.7076799E+00
   3.8220041E-04   9.9354645E+04   -1.7071206E+00
   3.8396545E-04   9.8576362E+04   -1.7065617E+00
   3.8573864E-04   9.7804427E+04   -1.7060032E+00
   3.8752002E-04   9.7038787E+04   -1.7054453E+00
   3.8930963E-04   9.6279388E+04   -1.7048877E+00
   3.9110750E-04   9.5526177E+04   -1.7043307E+00
   3.9291368E-04   9.4779101E+04   -1.7037741E+00
   3.9472820E-04   9.4038109E+04   -1.7032180E+00
   3.9655109E-04   9.3303150E+04   -1.7026623E+00
   3.9838241E-04   9.2574171E+04   -1.7021072E+00
   4.0022218E-04   9.1851123E+04   -1.7015525E+00
   4.0207045E-04   9.1133955E+04   -1.7009983E+00
   4.0392725E-04   9.0422617E+04   -1.7004447E+00
   4.0579263E-04   8.9717061E+04   -1.6998915E+00
   4.0766662E-04   8.9017236E+04   -1.6993388E+00
   4.0954927E-04   8.8323095E+04   -1.6987867E+00
   4.1144061E-04   8.7634590E+04   -1.6982351E+00
   4.1334068E-04   8.6951673E+04   -1.6976840E+00
   4.1524953E-04   8.6274297E+04   -1.6971334E+00
   4.1716720E-04   8.5602414E+04   -1.6965834E+00
   4.1909372E-04   8.4935979E+04   -1.6960339E+00
   4.2102914E-04   8.4274946E+04   -1.6954849E+00
   4.2297350E-04   8.3619268E+04   -1.6949365E+00
   4.2492683E-04   8.2968902E+04   -1.6943887E+00
   4.2688919E-04   8.2323802E+04   -1.6938414E+00
   4.2886061E-04   8.1683923E+04   -1.6932947E+00
   4.3084113E-04   8.1049222E+04   -1.6927486E+00
   4.3283080E-04   8.0419655E+04   -1.6922030E+00
   4.3482966E-04   7.9795179E+04   -1.6916580E+00
   4.3683775E-04   7.9175751E+04   -1.6911136E+00
   4.3885511E-04   7.8561328E+04   -1.6905698E+00
   4.4088179E-04   7.7951868E+04   -1.6900266E+00
   4.4291783E-04   7.7347330E+04   -1.6894839E+00
   4.4496327E-04   7.6747672E+04   -1.6889419E+00
   4.4701816E-04   7.6152853E+04   -1.6884005E+00
   4.4908253E-04   7.5562833E+04   -1.6878597E+00
   4.5115644E-04   7.4977570E+04   -1.6873195E+00
   4.5323993E-04   7.4397026E+04   -1.6867800E+00
   4.5533304E-04   7.3821160E+04   -1.6862411E+00
   4.5743582E-04   7.3249934E+04   -1.6857028E+00
   4.5954830E-04   7.2683308E+04   -1.6851651E+00
   4.6167054E-04   7.2121243E+04   -1.6846281E+00
   4.6380259E-04   7.1563702E+04   -1.6840917E+00
   4.6594448E-04   7.1010647E+04   -1.6835560E+00
   4.6809626E-04   7.0462039E+04   -1.6830209E+00
   4.7025797E-04   6.9917842E+04   -1.6824865E+00
   4.7242967E-04   6.9378019E+04   -1.6819528E+00
   4.7461140E-04   6.8842532E+04   -1.6814197E+00
   4.7680321E-04   6.8311347E+04   -1.6808873E+00
   4.7900514E-04   6.7784426E+04   -1.6803556E+00
   4.8121723E-04   6.7261735E+04   -1.6798245E+00
   4.8343954E-04   6.6743237E+04   -1.6792942E+00
   4.8567212E-04   6.6228898E+04   -1.6787645E+00
   4.8791500E-04   6.5718682E+04   -1.6782355E+00
   4.9016825E-04   6.5212557E+04   -1.6777072E+00
   4.9243189E-04   6.4710486E+04   -1.6771797E+00
   4.9470600E-04   6.4212437E+04   -1.6766528E+00
   4.9699060E-04   6.3718376E+04   -1.6761266E+00
   4.9928575E-04   6.3228269E+04   -1.6756012E+00
   5.0159151E-04   6.2742084E+04   -1.6750765E+00
   5.0390791E-04   6.2259787E+04   -1.6745525E+00
   5.0623501E-04   6.1781347E+04   -1.6740292E+00
   5.0857286E-04   6.1306732E+04   -1.6735067E+00
   5.1092150E-04   6.0835909E+04   -1.6729849E+00
   5.1328099E-04   6.0368846E+04   -1.6724638E+00
   5.1565137E-04   5.9905514E+04   -1.6719435E+00
   5.1803270E-04   5.9445880E+04   -1.6714239E+00
   5.2042503E-04   5.8989913E+04   -1.6709051E+00
   5.2282841E-04   5.8537584E+04   -1.6703870E+00
   5.2524289E-04   5.8088862E+04   -1.6698697E+00
   5.2766851E-04   5.7643717E+04   -1.6693531E+00
   5.3010534E-04   5.7202119E+04   -1.6688373E+00
   5.3255342E-04   5.6764038E+04   -1.6683223E+00
   5.3501281E-04   5.6329447E+04   -1.6678081E+00
   5.3748356E-04   5.5898315E+04   -1.6672946E+00
   5.3996571E-04   5.5470613E+04   -1.6667819E+00
   5.4245933E-04   5.5046315E+04   -1.6662700E+00
   5.4496446E-04   5.4625390E+04   -1.6657589E+00
   5.4748117E-04   5.4207812E+04   -1.6652486E+00
   5.5000949E-04   5.3793553E+04   -1.6647391E+00
   5.5254949E-04   5.3382584E+04   -1.6642304E+00
   5.5510123E-04   5.2974879E+04   -1.6637224E+00
   5.5766474E-04   5.2570411E+04   -1.6632153E+00
   5.6024010E-04   5.2169153E+04   -1.6627090E+00
   5.6282734E-04   5.1771078E+04   -1.6622035E+00
   5.6542654E-04   5.1376161E+04   -1.6616988E+00
   5.6803774E-04   5.0984374E+04   -1.6611950E+00
   5.7066099E-04   5.0595692E+04   -1.6606919E+00
   5.7329637E-04   5.0210090E+04   -1.6601897E+00
   5.7594391E-04   4.9827541E+04   -1.6596884E+00
   5.7860368E-04   4.9448022E+04   -1.6591878E+00
   5.8127573E-04   4.9071506E+04   -1.6586881E+00
   5.8396012E-04   4.8697969E+04   -1.6581892E+00
   5.8665691E-04   4.8327387E+04   -1.6576912E+00
   5.8936616E-04   4.7959735E+04   -1.6571940E+00
   5.9208791E-04   4.7594988E+04   -1.6566977E+00
   5.9482223E-04   4.7233123E+04   -1.6562022E+00
   5.9756919E-04   4.6874117E+04   -1.6557076E+00
   6.0032882E-04   4.6517945E+04   -1.6552138E+00
   6.0310120E-04   4.6164584E+04   -1.6547209E+00
   6.0588639E-04   4.5814012E+04   -1.6542288E+00
   6.0868443E-04   4.5466205E+04   -1.6537377E+00
   6.1149540E-04   4.5121140E+04   -1.6532473E+00
   6.1431935E-04   4.4778795E+04   -1.6527579E+00
   6.1715634E-04   4.4439148E+04   -1.6522693E+00
   6.2000644E-04   4.4102176E+04   -1.6517817E+00
   6.2286969E-04   4.3767858E+04   -1.6512948E+00
