#        a       HoverH0(a)       dlogHdloga_of_a(a)
   1.0000000E-04   1.0655467E+06   -1.8546284E+00
   1.0046181E-04   1.0564814E+06   -1.8541529E+00
   1.0092575E-04   1.0474955E+06   -1.8536765E+00
   1.0139184E-04   1.0385883E+06   -1.8531991E+00
   1.0186008E-04   1.0297591E+06   -1.8527209E+00
   1.0233048E-04   1.0210073E+06   -1.8522417E+00
   1.0280305E-04   1.0123320E+06   -1.8517616E+00
   1.0327781E-04   1.0037327E+06   -1.8512806E+00
   1.0375475E-04   9.9520868E+05   -1.8507988E+00
   1.0423390E-04   9.8675922E+05   -1.8503160E+00
   1.0471527E-04   9.7838366E+05   -1.8498323E+00
   1.0519885E-04   9.7008136E+05   -1.8493478E+00
   1.0568467E-04   9.6185166E+05   -1.8488623E+00
   1.0617274E-04   9.5369391E+05   -1.8483760E+00
   1.0666305E-04   9.4560747E+05   -1.8478888E+00
   1.0715563E-04   9.3759171E+05   -1.8474007E+00
   1.0765049E-04   9.2964599E+05   -1.8469118E+00
   1.0814763E-04   9.2176968E+05   -1.8464219E+00
   1.0864707E-04   9.1396217E+05   -1.8459312E+00
   1.0914881E-04   9.0622283E+05   -1.8454396E+00
   1.0965287E-04   8.9855107E+05   -1.8449472E+00
   1.1015926E-04   8.9094628E+05   -1.8444539E+00
   1.1066799E-04   8.8340787E+05   -1.8439597E+00
   1.1117906E-04   8.7593523E+05   -1.8434647E+00
   1.1169250E-04   8.6852778E+05   -1.8429688E+00
   1.1220831E-04   8.6118495E+05   -1.8424721E+00
   1.1272650E-04   8.5390614E+05   -1.8419745E+00
   1.1324708E-04   8.4669081E+05   -1.8414761E+00
   1.1377007E-04   8.3953837E+05   -1.8409768E+00
   1.1429547E-04   8.3244827E+05   -1.8404767E+00
   1.1482330E-04   8.2541995E+05   -1.8399758E+00
   1.1535356E-04   8.1845286E+05   -1.8394740E+00
   1.1588628E-04   8.1154646E+05   -1.8389714E+00
   1.1642145E-04   8.0470020E+05   -1.8384680E+00
   1.1695910E-04   7.9791354E+05   -1.8379638E+00
   1.1749923E-04   7.9118597E+05   -1.8374587E+00
   1.1804185E-04   7.8451694E+05   -1.8369528E+00
   1.1858698E-04   7.7790594E+05   -1.8364462E+00
   1.1913463E-04   7.7135245E+05   -1.8359387E+00
   1.1968481E-04   7.6485597E+05   -1.8354304E+00
   1.2023752E-04   7.5841597E+05   -1.8349213E+00
   1.2079279E-04   7.5203197E+05   -1.8344114E+00
   1.2135063E-04   7.4570346E+05   -1.8339007E+00
   1.2191104E-04   7.3942994E+05   -1.8333892E+00
   1.2247403E-04   7.3321093E+05   -1.8328769E+00
   1.2303963E-04   7.2704595E+05   -1.8323639E+00
   1.2360784E-04   7.2093450E+05   -1.8318501E+00
   1.2417868E-04   7.1487613E+05   -1.8313355E+00
   1.2475215E-04   7.0887034E+05   -1.8308201E+00
   1.2532826E-04   7.0291668E+05   -1.8303039E+00
   1.2590704E-04   6.9701468E+05   -1.8297870E+00
   1.2648850E-04   6.9116389E+05   -1.8292694E+00
   1.2707263E-04   6.8536384E+05   -1.8287509E+00
   1.2765947E-04   6.7961409E+05   -1.8282318E+00
   1.2824901E-04   6.7391420E+05   -1.8277118E+00
   1.2884128E-04   6.6826370E+05   -1.8271911E+00
   1.2943628E-04   6.6266218E+05   -1.8266697E+00
   1.3003403E-04   6.5710919E+05   -1.8261476E+00
   1.3063454E-04   6.5160430E+05   -1.8256247E+00
   1.3123783E-04   6.4614709E+05   -1.8251011E+00
   1.3184390E-04   6.4073712E+05   -1.8245767E+00
   1.3245277E-04   6.3537399E+05   -1.8240517E+00
   1.3306445E-04   6.3005728E+05   -1.8235259E+00
   1.3367895E-04   6.2478656E+05   -1.8229994E+00
   1.3429630E-04   6.1956145E+05   -1.8224722E+00
   1.3491649E-04   6.1438152E+05   -1.8219443E+00
   1.3553955E-04   6.0924639E+05   -1.8214157E+00
   1.3616548E-04   6.0415565E+05   -1.8208864E+00
   1.3679431E-04   5.9910890E+05   -1.8203564E+00
   1.3742604E-04   5.9410577E+05   -1.8198257E+00
   1.3806069E-04   5.8914586E+05   -1.8192943E+00
   1.3869827E-04   5.8422879E+05   -1.8187623E+00
   1.3933879E-04   5.7935418E+05   -1.8182295E+00
   1.3998227E-04   5.7452165E+05   -1.8176962E+00
   1.4062872E-04   5.6973083E+05   -1.8171621E+00
   1.4127816E-04   5.6498135E+05   -1.8166274E+00
   1.4193060E-04   5.6027285E+05   -1.8160920E+00
   1.4258605E-04   5.5560496E+05   -1.8155560E+00
   1.4324453E-04   5.5097732E+05   -1.8150193E+00
   1.4390605E-04   5.4638957E+05   -1.8144820E+00
   1.4457062E-04   5.4184137E+05   -1.8139440E+00
   1.4523826E-04   5.3733236E+05   -1.8134054E+00
   1.4590899E-04   5.3286220E+05   -1.8128662E+00
   1.4658281E-04   5.2843054E+05   -1.8123263E+00
   1.4725974E-04   5.2403704E+05   -1.8117859E+00
   1.4793981E-04   5.1968136E+05   -1.8112448E+00
   1.4862301E-04   5.1536317E+05   -1.8107031E+00
   1.4930936E-04   5.1108214E+05   -1.8101608E+00
   1.4999889E-04   5.0683794E+05   -1.8096179E+00
   1.5069160E-04   5.0263024E+05   -1.8090744E+00
   1.5138751E-04   4.9845872E+05   -1.8085303E+00
   1.5208663E-04   4.9432306E+05   -1.8079856E+00
   1.5278899E-04   4.9022295E+05   -1.8074403E+00
   1.5349458E-04   4.8615807E+05   -1.8068945E+00
   1.5420343E-04   4.8212810E+05   -1.8063480E+00
   1.5491556E-04   4.7813275E+05   -1.8058011E+00
   1.5563098E-04   4.7417170E+05   -1.8052535E+00
   1.5634970E-04   4.7024465E+05   -1.8047054E+00
   1.5707174E-04   4.6635131E+05   -1.8041567E+00
   1.5779711E-04   4.6249137E+05   -1.8036075E+00
   1.5852584E-04   4.5866453E+05   -1.8030578E+00
   1.5925792E-04   4.5487052E+05   -1.8025075E+00
   1.5999339E-04   4.5110903E+05   -1.8019567E+00
   1.6073226E-04   4.4737979E+05   -1.8014053E+00
   1.6147454E-04   4.4368250E+05   -1.8008535E+00
   1.6222024E-04   4.4001688E+05   -1.8003011E+00
   1.6296939E-04   4.3638266E+05   -1.7997482E+00
   1.6372200E-04   4.3277957E+05   -1.7991948E+00
   1.6447809E-04   4.2920731E+05   -1.7986408E+00
   1.6523767E-04   4.2566563E+05   -1.7980864E+00
   1.6600075E-04   4.2215425E+05   -1.7975315E+00
   1.6676736E-04   4.1867291E+05   -1.7969761E+00
   1.6753751E-04   4.1522134E+05   -1.7964203E+00
   1.6831122E-04   4.1179928E+05   -1.7958639E+00
   1.6908849E-04   4.0840648E+05   -1.7953071E+00
   1.6986936E-04   4.0504266E+05   -1.7947498E+00
   1.7065384E-04   4.0170758E+05   -1.7941921E+00
   1.7144193E-04   3.9840099E+05   -1.7936339E+00
   1.7223367E-04   3.9512263E+05   -1.7930753E+00
   1.7302906E-04   3.9187226E+05   -1.7925162E+00
   1.7382813E-04   3.8864963E+05   -1.7919566E+00
   1.7463089E-04   3.8545449E+05   -1.7913967E+00
   1.7543735E-04   3.8228661E+05   -1.7908363E+00
   1.7624754E-04   3.7914574E+05   -1.7902755E+00
   1.7706147E-04   3.7603165E+05   -1.7897143E+00
   1.7787916E-04   3.7294410E+05   -1.7891526E+00
   1.7870062E-04   3.6988286E+05   -1.7885906E+00
   1.7952588E-04   3.6684770E+05   -1.7880281E+00
   1.8035495E-04   3.6383839E+05   -1.7874653E+00
   1.8118785E-04   3.6085470E+05   -1.7869021E+00
   1.8202459E-04   3.5789640E+05   -1.7863385E+00
   1.8286520E-04   3.5496328E+05   -1.7857745E+00
   1.8370969E-04   3.5205512E+05   -1.7852101E+00
   1.8455808E-04   3.4917169E+05   -1.7846454E+00
   1.8541039E-04   3.4631278E+05   -1.7840803E+00
   1.8626663E-04   3.4347816E+05   -1.7835148E+00
   1.8712683E-04   3.4066764E+05   -1.7829491E+00
   1.8799100E-04   3.3788100E+05   -1.7823829E+00
   1.8885917E-04   3.3511803E+05   -1.7818164E+00
   1.8973134E-04   3.3237851E+05   -1.7812496E+00
   1.9060754E-04   3.2966226E+05   -1.7806825E+00
   1.9148778E-04   3.2696905E+05   -1.7801150E+00
   1.9237209E-04   3.2429870E+05   -1.7795473E+00
   1.9326049E-04   3.2165099E+05   -1.7789792E+00
   1.9415299E-04   3.1902574E+05   -1.7784108E+00
   1.9504960E-04   3.1642274E+05   -1.7778421E+00
   1.9595036E-04   3.1384181E+05   -1.7772732E+00
   1.9685528E-04   3.1128274E+05   -1.7767039E+00
   1.9776438E-04   3.0874535E+05   -1.7761344E+00
   1.9867768E-04   3.0622945E+05   -1.7755645E+00
   1.9959519E-04   3.0373485E+05   -1.7749945E+00
   2.0051694E-04   3.0126136E+05   -1.7744241E+00
   2.0144295E-04   2.9880879E+05   -1.7738535E+00
   2.0237324E-04   2.9637698E+05   -1.7732826E+00
   2.0330782E-04   2.9396572E+05   -1.7727115E+00
   2.0424671E-04   2.9157486E+05   -1.7721402E+00
   2.0518995E-04   2.8920419E+05   -1.7715686E+00
   2.0613754E-04   2.8685356E+05   -1.7709968E+00
   2.0708950E-04   2.8452279E+05   -1.7704248E+00
   2.0804586E-04   2.8221170E+05   -1.7698526E+00
   2.0900664E-04   2.7992011E+05   -1.7692801E+00
   2.0997185E-04   2.7764787E+05   -1.7687075E+00
   2.1094152E-04   2.7539480E+05   -1.7681346E+00
   2.1191567E-04   2.7316074E+05   -1.7675616E+00
   2.1289432E-04   2.7094551E+05   -1.7669883E+00
   2.1387749E-04   2.6874895E+05   -1.7664149E+00
   2.1486520E-04   2.6657091E+05   -1.7658414E+00
   2.1585747E-04   2.6441122E+05   -1.7652676E+00
   2.1685432E-04   2.6226972E+05   -1.7646937E+00
   2.1785578E-04   2.6014625E+05   -1.7641196E+00
   2.1886186E-04   2.5804066E+05   -1.7635454E+00
   2.1987259E-04   2.5595279E+05   -1.7629711E+00
   2.2088798E-04   2.5388248E+05   -1.7623966E+00
   2.2190807E-04   2.5182959E+05   -1.7618219E+00
   2.2293286E-04   2.4979396E+05   -1.7612472E+00
   2.2396239E-04   2.4777543E+05   -1.7606723E+00
   2.2499667E-04   2.4577387E+05   -1.7600973E+00
   2.2603573E-04   2.4378913E+05   -1.7595222E+00
   2.2707958E-04   2.4182105E+05   -1.7589470E+00
   2.2812826E-04   2.3986950E+05   -1.7583717E+00
   2.2918178E-04   2.3793432E+05   -1.7577964E+00
   2.3024017E-04   2.3601539E+05   -1.7572209E+00
   2.3130344E-04   2.3411255E+05   -1.7566454E+00
   2.3237162E-04   2.3222567E+05   -1.7560697E+00
   2.3344474E-04   2.3035461E+05   -1.7554941E+00
   2.3452281E-04   2.2849923E+05   -1.7549183E+00
   2.3560586E-04   2.2665939E+05   -1.7543425E+00
   2.3669392E-04   2.2483497E+05   -1.7537667E+00
   2.3778699E-04   2.2302582E+05   -1.7531908E+00
   2.3888512E-04   2.2123182E+05   -1.7526149E+00
   2.3998831E-04   2.1945283E+05   -1.7520390E+00
   2.4109661E-04   2.1768872E+05   -1.7514630E+00
   2.4221001E-04   2.1593937E+05   -1.7508871E+00
   2.4332857E-04   2.1420464E+05   -1.7503111E+00
   2.4445228E-04   2.1248441E+05   -1.7497351E+00
   2.4558119E-04   2.1077856E+05   -1.7491591E+00
   2.4671531E-04   2.0908695E+05   -1.7485831E+00
   2.4785467E-04   2.0740948E+05   -1.7480072E+00
   2.4899928E-04   2.0574600E+05   -1.7474312E+00
   2.5014919E-04   2.0409642E+05   -1.7468553E+00
   2.5130440E-04   2.0246059E+05   -1.7462794E+00
   2.5246495E-04   2.0083841E+05   -1.7457036E+00
   2.5363086E-04   1.9922975E+05   -1.7451278E+00
   2.5480216E-04   1.9763450E+05   -1.7445520E+00
   2.5597886E-04   1.9605255E+05   -1.7439764E+00
   2.5716100E-04   1.9448377E+05   -1.7434007E+00
   2.5834859E-04   1.9292806E+05   -1.7428252E+00
   2.5954168E-04   1.9138530E+05   -1.7422497E+00
   2.6074027E-04   1.8985538E+05   -1.7416743E+00
   2.6194439E-04   1.8833819E+05   -1.7410990E+00
   2.6315408E-04   1.8683362E+05   -1.7405238E+00
   2.6436935E-04   1.8534156E+05   -1.7399487E+00
   2.6559024E-04   1.8386191E+05   -1.7393737E+00
   2.6681676E-04   1.8239454E+05   -1.7387988E+00
   2.6804895E-04   1.8093937E+05   -1.7382240E+00
   2.6928683E-04   1.7949629E+05   -1.7376493E+00
   2.7053042E-04   1.7806518E+05   -1.7370748E+00
   2.7177976E-04   1.7664595E+05   -1.7365004E+00
   2.7303487E-04   1.7523850E+05   -1.7359262E+00
   2.7429577E-04   1.7384272E+05   -1.7353521E+00
   2.7556250E-04   1.7245852E+05   -1.7347781E+00
   2.7683507E-04   1.7108579E+05   -1.7342043E+00
   2.7811353E-04   1.6972443E+05   -1.7336307E+00
   2.7939788E-04   1.6837435E+05   -1.7330573E+00
   2.8068817E-04   1.6703546E+05   -1.7324840E+00
   2.8198442E-04   1.6570764E+05   -1.7319109E+00
   2.8328665E-04   1.6439082E+05   -1.7313381E+00
   2.8459490E-04   1.6308489E+05   -1.7307654E+00
   2.8590919E-04   1.6178976E+05   -1.7301929E+00
   2.8722955E-04   1.6050534E+05   -1.7296206E+00
   2.8855600E-04   1.5923154E+05   -1.7290485E+00
   2.8988859E-04   1.5796826E+05   -1.7284767E+00
   2.9122732E-04   1.5671542E+05   -1.7279051E+00
   2.9257224E-04   1.5547292E+05   -1.7273337E+00
   2.9392337E-04   1.5424068E+05   -1.7267625E+00
   2.9528074E-04   1.5301861E+05   -1.7261916E+00
   2.9664438E-04   1.5180662E+05   -1.7256210E+00
   2.9801431E-04   1.5060463E+05   -1.7250506E+00
   2.9939057E-04   1.4941254E+05   -1.7244804E+00
   3.0077319E-04   1.4823028E+05   -1.7239105E+00
   3.0216219E-04   1.4705777E+05   -1.7233410E+00
   3.0355761E-04   1.4589491E+05   -1.7227716E+00
   3.0495947E-04   1.4474162E+05   -1.7222026E+00
   3.0636780E-04   1.4359783E+05   -1.7216339E+00
   3.0778264E-04   1.4246345E+05   -1.7210654E+00
   3.0920401E-04   1.4133840E+05   -1.7204973E+00
   3.1063195E-04   1.4022260E+05   -1.7199294E+00
   3.1206648E-04   1.3911598E+05   -1.7193619E+00
   3.1350764E-04   1.3801845E+05   -1.7187947E+00
   3.1495545E-04   1.3692993E+05   -1.7182278E+00
   3.1640994E-04   1.3585036E+05   -1.7176613E+00
   3.1787116E-04   1.3477964E+05   -1.7170951E+00
   3.1933912E-04   1.3371772E+05   -1.7165292E+00
   3.2081386E-04   1.3266451E+05   -1.7159637E+00
   3.2229541E-04   1.3161994E+05   -1.7153986E+00
   3.2378381E-04   1.3058393E+05   -1.7148338E+00
   3.2527908E-04   1.2955641E+05   -1.7142693E+00
   3.2678125E-04   1.2853731E+05   -1.7137053E+00
   3.2829036E-04   1.2752656E+05   -1.7131416E+00
   3.2980644E-04   1.2652409E+05   -1.7125783E+00
   3.3132952E-04   1.2552982E+05   -1.7120153E+00
   3.3285963E-04   1.2454369E+05   -1.7114528E+00
   3.3439681E-04   1.2356563E+05   -1.7108907E+00
   3.3594109E-04   1.2259556E+05   -1.7103290E+00
   3.3749250E-04   1.2163343E+05   -1.7097677E+00
   3.3905108E-04   1.2067916E+05   -1.7092068E+00
   3.4061685E-04   1.1973268E+05   -1.7086463E+00
   3.4218986E-04   1.1879393E+05   -1.7080862E+00
   3.4377013E-04   1.1786285E+05   -1.7075266E+00
   3.4535769E-04   1.1693937E+05   -1.7069675E+00
   3.4695259E-04   1.1602342E+05   -1.7064087E+00
   3.4855485E-04   1.1511494E+05   -1.7058504E+00
   3.5016452E-04   1.1421387E+05   -1.7052926E+00
   3.5178161E-04   1.1332014E+05   -1.7047352E+00
   3.5340618E-04   1.1243369E+05   -1.7041783E+00
   3.5503824E-04   1.1155447E+05   -1.7036219E+00
   3.5667785E-04   1.1068240E+05   -1.7030659E+00
   3.5832502E-04   1.0981744E+05   -1.7025104E+00
   3.5997981E-04   1.0895951E+05   -1.7019554E+00
   3.6164223E-04   1.0810856E+05   -1.7014009E+00
   3.6331233E-04   1.0726453E+05   -1.7008469E+00
   3.6499015E-04   1.0642736E+05   -1.7002934E+00
   3.6667571E-04   1.0559699E+05   -1.6997404E+00
   3.6836906E-04   1.0477337E+05   -1.6991879E+00
   3.7007022E-04   1.0395644E+05   -1.6986359E+00
   3.7177925E-04   1.0314614E+05   -1.6980844E+00
   3.7349616E-04   1.0234242E+05   -1.6975335E+00
   3.7522101E-04   1.0154521E+05   -1.6969831E+00
   3.7695382E-04   1.0075447E+05   -1.6964332E+00
   3.7869463E-04   9.9970145E+04   -1.6958839E+00
   3.8044348E-04   9.9192174E+04   -1.6953351E+00
   3.8220041E-04   9.8420505E+04   -1.6947869E+00
   3.8396545E-04   9.7655086E+04   -1.6942392E+00
   3.8573864E-04   9.6895865E+04   -1.6936921E+00
   3.8752002E-04   9.6142788E+04   -1.6931456E+00
   3.8930963E-04   9.5395804E+04   -1.6925996E+00
   3.9110750E-04   9.4654862E+04   -1.6920543E+00
   3.9291368E-04   9.3919910E+04   -1.6915094E+00
   3.9472820E-04   9.3190899E+04   -1.6909652E+00
   3.9655109E-04   9.2467778E+04   -1.6904216E+00
   3.9838241E-04   9.1750498E+04   -1.6898786E+00
   4.0022218E-04   9.1039010E+04   -1.6893361E+00
   4.0207045E-04   9.0333265E+04   -1.6887943E+00
   4.0392725E-04   8.9633214E+04   -1.6882531E+00
   4.0579263E-04   8.8938810E+04   -1.6877125E+00
   4.0766662E-04   8.8250006E+04   -1.6871725E+00
   4.0954927E-04   8.7566754E+04   -1.6866331E+00
   4.1144061E-04   8.6889007E+04   -1.6860944E+00
   4.1334068E-04   8.6216720E+04   -1.6855563E+00
   4.1524953E-04   8.5549847E+04   -1.6850189E+00
   4.1716720E-04   8.4888342E+04   -1.6844820E+00
   4.1909372E-04   8.4232160E+04   -1.6839459E+00
   4.2102914E-04   8.3581257E+04   -1.6834104E+00
   4.2297350E-04   8.2935588E+04   -1.6828755E+00
   4.2492683E-04   8.2295109E+04   -1.6823413E+00
   4.2688919E-04   8.1659778E+04   -1.6818078E+00
   4.2886061E-04   8.1029551E+04   -1.6812749E+00
   4.3084113E-04   8.0404384E+04   -1.6807427E+00
   4.3283080E-04   7.9784237E+04   -1.6802112E+00
   4.3482966E-04   7.9169067E+04   -1.6796804E+00
   4.3683775E-04   7.8558831E+04   -1.6791502E+00
   4.3885511E-04   7.7953490E+04   -1.6786208E+00
   4.4088179E-04   7.7353002E+04   -1.6780920E+00
   4.4291783E-04   7.6757326E+04   -1.6775639E+00
   4.4496327E-04   7.6166423E+04   -1.6770366E+00
   4.4701816E-04   7.5580252E+04   -1.6765099E+00
   4.4908253E-04   7.4998774E+04   -1.6759840E+00
   4.5115644E-04   7.4421950E+04   -1.6754588E+00
   4.5323993E-04   7.3849741E+04   -1.6749343E+00
   4.5533304E-04   7.3282108E+04   -1.6744105E+00
   4.5743582E-04   7.2719014E+04   -1.6738875E+00
   4.5954830E-04   7.2160421E+04   -1.6733651E+00
   4.6167054E-04   7.1606290E+04   -1.6728436E+00
   4.6380259E-04   7.1056586E+04   -1.6723227E+00
   4.6594448E-04   7.0511270E+04   -1.6718026E+00
   4.6809626E-04   6.9970307E+04   -1.6712833E+00
   4.7025797E-04   6.9433660E+04   -1.6707647E+00
   4.7242967E-04   6.8901294E+04   -1.6702469E+00
   4.7461140E-04   6.8373172E+04   -1.6697298E+00
   4.7680321E-04   6.7849260E+04   -1.6692135E+00
   4.7900514E-04   6.7329522E+04   -1.6686979E+00
   4.8121723E-04   6.6813925E+04   -1.6681832E+00
   4.8343954E-04   6.6302432E+04   -1.6676692E+00
   4.8567212E-04   6.5795012E+04   -1.6671559E+00
   4.8791500E-04   6.5291629E+04   -1.6666435E+00
   4.9016825E-04   6.4792250E+04   -1.6661318E+00
   4.9243189E-04   6.4296842E+04   -1.6656210E+00
   4.9470600E-04   6.3805372E+04   -1.6651109E+00
   4.9699060E-04   6.3317807E+04   -1.6646016E+00
   4.9928575E-04   6.2834115E+04   -1.6640932E+00
   5.0159151E-04   6.2354265E+04   -1.6635855E+00
   5.0390791E-04   6.1878223E+04   -1.6630786E+00
   5.0623501E-04   6.1405959E+04   -1.6625726E+00
   5.0857286E-04   6.0937441E+04   -1.6620673E+00
   5.1092150E-04   6.0472639E+04   -1.6615629E+00
   5.1328099E-04   6.0011522E+04   -1.6610593E+00
   5.1565137E-04   5.9554058E+04   -1.6605565E+00
   5.1803270E-04   5.9100219E+04   -1.6600546E+00
   5.2042503E-04   5.8649974E+04   -1.6595534E+00
   5.2282841E-04   5.8203293E+04   -1.6590532E+00
   5.2524289E-04   5.7760147E+04   -1.6585537E+00
   5.2766851E-04   5.7320507E+04   -1.6580551E+00
   5.3010534E-04   5.6884344E+04   -1.6575573E+00
   5.3255342E-04   5.6451629E+04   -1.6570604E+00
   5.3501281E-04   5.6022333E+04   -1.6565643E+00
   5.3748356E-04   5.5596430E+04   -1.6560691E+00
   5.3996571E-04   5.5173890E+04   -1.6555748E+00
   5.4245933E-04   5.4754685E+04   -1.6550813E+00
   5.4496446E-04   5.4338790E+04   -1.6545886E+00
   5.4748117E-04   5.3926176E+04   -1.6540968E+00
   5.5000949E-04   5.3516816E+04   -1.6536059E+00
   5.5254949E-04   5.3110684E+04   -1.6531159E+00
   5.5510123E-04   5.2707752E+04   -1.6526267E+00
   5.5766474E-04   5.2307996E+04   -1.6521384E+00
   5.6024010E-04   5.1911387E+04   -1.6516510E+00
   5.6282734E-04   5.1517902E+04   -1.6511645E+00
   5.6542654E-04   5.1127514E+04   -1.6506788E+00
   5.6803774E-04   5.0740197E+04   -1.6501941E+00
   5.7066099E-04   5.0355927E+04   -1.6497102E+00
   5.7329637E-04   4.9974678E+04   -1.6492272E+00
   5.7594391E-04   4.9596426E+04   -1.6487451E+00
   5.7860368E-04   4.9221146E+04   -1.6482640E+00
   5.8127573E-04   4.8848815E+04   -1.6477837E+00
   5.8396012E-04   4.8479406E+04   -1.6473043E+00
   5.8665691E-04   4.8112898E+04   -1.6468258E+00
   5.8936616E-04   4.7749265E+04   -1.6463483E+00
   5.9208791E-04   4.7388485E+04   -1.6458716E+00
   5.9482223E-04   4.7030535E+04   -1.6453959E+00
   5.9756919E-04   4.6675390E+04   -1.6449210E+00
   6.0032882E-04   4.6323028E+04   -1.6444471E+00
   6.0310120E-04   4.5973426E+04   -1.6439741E+00
   6.0588639E-04   4.5626563E+04   -1.6435021E+00
   6.0868443E-04   4.5282414E+04   -1.6430309E+00
   6.1149540E-04   4.4940959E+04   -1.6425607E+00
   6.1431935E-04   4.4602176E+04   -1.6420914E+00
   6.1715634E-04   4.4266042E+04   -1.6416230E+00
   6.2000644E-04   4.3932535E+04   -1.6411556E+00
   6.2286969E-04   4.3601636E+04   -1.6406891E+00
