#        a       HoverH0(a)       dlogHdloga_of_a(a)
   1.0000000E-04   1.0985209E+06   -1.8350519E+00
   1.0046181E-04   1.0892734E+06   -1.8345422E+00
   1.0092575E-04   1.0801063E+06   -1.8340317E+00
   1.0139184E-04   1.0710188E+06   -1.8335204E+00
   1.0186008E-04   1.0620103E+06   -1.8330084E+00
   1.0233048E-04   1.0530801E+06   -1.8324955E+00
   1.0280305E-04   1.0442274E+06   -1.8319819E+00
   1.0327781E-04   1.0354516E+06   -1.8314675E+00
   1.0375475E-04   1.0267520E+06   -1.8309523E+00
   1.0423390E-04   1.0181279E+06   -1.8304364E+00
   1.0471527E-04   1.0095786E+06   -1.8299197E+00
   1.0519885E-04   1.0011035E+06   -1.8294022E+00
   1.0568467E-04   9.9270194E+05   -1.8288840E+00
   1.0617274E-04   9.8437323E+05   -1.8283650E+00
   1.0666305E-04   9.7611672E+05   -1.8278453E+00
   1.0715563E-04   9.6793179E+05   -1.8273248E+00
   1.0765049E-04   9.5981780E+05   -1.8268036E+00
   1.0814763E-04   9.5177411E+05   -1.8262816E+00
   1.0864707E-04   9.4380010E+05   -1.8257589E+00
   1.0914881E-04   9.3589516E+05   -1.8252355E+00
   1.0965287E-04   9.2805866E+05   -1.8247113E+00
   1.1015926E-04   9.2029000E+05   -1.8241865E+00
   1.1066799E-04   9.1258858E+05   -1.8236609E+00
   1.1117906E-04   9.0495381E+05   -1.8231346E+00
   1.1169250E-04   8.9738508E+05   -1.8226076E+00
   1.1220831E-04   8.8988182E+05   -1.8220798E+00
   1.1272650E-04   8.8244344E+05   -1.8215514E+00
   1.1324708E-04   8.7506937E+05   -1.8210223E+00
   1.1377007E-04   8.6775904E+05   -1.8204925E+00
   1.1429547E-04   8.6051188E+05   -1.8199620E+00
   1.1482330E-04   8.5332734E+05   -1.8194308E+00
   1.1535356E-04   8.4620485E+05   -1.8188989E+00
   1.1588628E-04   8.3914387E+05   -1.8183664E+00
   1.1642145E-04   8.3214385E+05   -1.8178332E+00
   1.1695910E-04   8.2520425E+05   -1.8172993E+00
   1.1749923E-04   8.1832454E+05   -1.8167647E+00
   1.1804185E-04   8.1150418E+05   -1.8162295E+00
   1.1858698E-04   8.0474265E+05   -1.8156937E+00
   1.1913463E-04   7.9803943E+05   -1.8151572E+00
   1.1968481E-04   7.9139401E+05   -1.8146200E+00
   1.2023752E-04   7.8480587E+05   -1.8140822E+00
   1.2079279E-04   7.7827450E+05   -1.8135438E+00
   1.2135063E-04   7.7179940E+05   -1.8130047E+00
   1.2191104E-04   7.6538008E+05   -1.8124651E+00
   1.2247403E-04   7.5901604E+05   -1.8119248E+00
   1.2303963E-04   7.5270679E+05   -1.8113838E+00
   1.2360784E-04   7.4645184E+05   -1.8108423E+00
   1.2417868E-04   7.4025072E+05   -1.8103002E+00
   1.2475215E-04   7.3410295E+05   -1.8097574E+00
   1.2532826E-04   7.2800806E+05   -1.8092141E+00
   1.2590704E-04   7.2196558E+05   -1.8086701E+00
   1.2648850E-04   7.1597505E+05   -1.8081256E+00
   1.2707263E-04   7.1003601E+05   -1.8075805E+00
   1.2765947E-04   7.0414800E+05   -1.8070348E+00
   1.2824901E-04   6.9831057E+05   -1.8064885E+00
   1.2884128E-04   6.9252329E+05   -1.8059417E+00
   1.2943628E-04   6.8678569E+05   -1.8053943E+00
   1.3003403E-04   6.8109735E+05   -1.8048464E+00
   1.3063454E-04   6.7545784E+05   -1.8042979E+00
   1.3123783E-04   6.6986671E+05   -1.8037488E+00
   1.3184390E-04   6.6432354E+05   -1.8031992E+00
   1.3245277E-04   6.5882791E+05   -1.8026491E+00
   1.3306445E-04   6.5337940E+05   -1.8020984E+00
   1.3367895E-04   6.4797759E+05   -1.8015472E+00
   1.3429630E-04   6.4262208E+05   -1.8009954E+00
   1.3491649E-04   6.3731245E+05   -1.8004432E+00
   1.3553955E-04   6.3204830E+05   -1.7998904E+00
   1.3616548E-04   6.2682923E+05   -1.7993372E+00
   1.3679431E-04   6.2165484E+05   -1.7987834E+00
   1.3742604E-04   6.1652474E+05   -1.7982291E+00
   1.3806069E-04   6.1143853E+05   -1.7976743E+00
   1.3869827E-04   6.0639584E+05   -1.7971191E+00
   1.3933879E-04   6.0139628E+05   -1.7965634E+00
   1.3998227E-04   5.9643946E+05   -1.7960071E+00
   1.4062872E-04   5.9152501E+05   -1.7954505E+00
   1.4127816E-04   5.8665256E+05   -1.7948933E+00
   1.4193060E-04   5.8182174E+05   -1.7943357E+00
   1.4258605E-04   5.7703219E+05   -1.7937776E+00
   1.4324453E-04   5.7228353E+05   -1.7932191E+00
   1.4390605E-04   5.6757541E+05   -1.7926601E+00
   1.4457062E-04   5.6290748E+05   -1.7921007E+00
   1.4523826E-04   5.5827938E+05   -1.7915409E+00
   1.4590899E-04   5.5369076E+05   -1.7909806E+00
   1.4658281E-04   5.4914127E+05   -1.7904199E+00
   1.4725974E-04   5.4463057E+05   -1.7898588E+00
   1.4793981E-04   5.4015831E+05   -1.7892973E+00
   1.4862301E-04   5.3572417E+05   -1.7887354E+00
   1.4930936E-04   5.3132781E+05   -1.7881730E+00
   1.4999889E-04   5.2696888E+05   -1.7876103E+00
   1.5069160E-04   5.2264708E+05   -1.7870472E+00
   1.5138751E-04   5.1836206E+05   -1.7864837E+00
   1.5208663E-04   5.1411351E+05   -1.7859198E+00
   1.5278899E-04   5.0990111E+05   -1.7853556E+00
   1.5349458E-04   5.0572453E+05   -1.7847909E+00
   1.5420343E-04   5.0158347E+05   -1.7842260E+00
   1.5491556E-04   4.9747762E+05   -1.7836606E+00
   1.5563098E-04   4.9340666E+05   -1.7830949E+00
   1.5634970E-04   4.8937029E+05   -1.7825289E+00
   1.5707174E-04   4.8536821E+05   -1.7819625E+00
   1.5779711E-04   4.8140011E+05   -1.7813958E+00
   1.5852584E-04   4.7746570E+05   -1.7808288E+00
   1.5925792E-04   4.7356469E+05   -1.7802614E+00
   1.5999339E-04   4.6969677E+05   -1.7796937E+00
   1.6073226E-04   4.6586166E+05   -1.7791257E+00
   1.6147454E-04   4.6205908E+05   -1.7785574E+00
   1.6222024E-04   4.5828874E+05   -1.7779888E+00
   1.6296939E-04   4.5455035E+05   -1.7774199E+00
   1.6372200E-04   4.5084364E+05   -1.7768508E+00
   1.6447809E-04   4.4716833E+05   -1.7762813E+00
   1.6523767E-04   4.4352415E+05   -1.7757116E+00
   1.6600075E-04   4.3991082E+05   -1.7751416E+00
   1.6676736E-04   4.3632807E+05   -1.7745713E+00
   1.6753751E-04   4.3277564E+05   -1.7740008E+00
   1.6831122E-04   4.2925326E+05   -1.7734300E+00
   1.6908849E-04   4.2576067E+05   -1.7728590E+00
   1.6986936E-04   4.2229760E+05   -1.7722877E+00
   1.7065384E-04   4.1886381E+05   -1.7717162E+00
   1.7144193E-04   4.1545903E+05   -1.7711445E+00
   1.7223367E-04   4.1208302E+05   -1.7705725E+00
   1.7302906E-04   4.0873551E+05   -1.7700004E+00
   1.7382813E-04   4.0541627E+05   -1.7694280E+00
   1.7463089E-04   4.0212504E+05   -1.7688554E+00
   1.7543735E-04   3.9886159E+05   -1.7682826E+00
   1.7624754E-04   3.9562566E+05   -1.7677096E+00
   1.7706147E-04   3.9241702E+05   -1.7671365E+00
   1.7787916E-04   3.8923544E+05   -1.7665631E+00
   1.7870062E-04   3.8608066E+05   -1.7659896E+00
   1.7952588E-04   3.8295247E+05   -1.7654159E+00
   1.8035495E-04   3.7985063E+05   -1.7648420E+00
   1.8118785E-04   3.7677491E+05   -1.7642680E+00
   1.8202459E-04   3.7372509E+05   -1.7636939E+00
   1.8286520E-04   3.7070093E+05   -1.7631195E+00
   1.8370969E-04   3.6770221E+05   -1.7625451E+00
   1.8455808E-04   3.6472872E+05   -1.7619705E+00
   1.8541039E-04   3.6178024E+05   -1.7613958E+00
   1.8626663E-04   3.5885654E+05   -1.7608210E+00
   1.8712683E-04   3.5595741E+05   -1.7602460E+00
   1.8799100E-04   3.5308263E+05   -1.7596710E+00
   1.8885917E-04   3.5023200E+05   -1.7590958E+00
   1.8973134E-04   3.4740531E+05   -1.7585206E+00
   1.9060754E-04   3.4460234E+05   -1.7579452E+00
   1.9148778E-04   3.4182290E+05   -1.7573698E+00
   1.9237209E-04   3.3906677E+05   -1.7567943E+00
   1.9326049E-04   3.3633376E+05   -1.7562187E+00
   1.9415299E-04   3.3362366E+05   -1.7556431E+00
   1.9504960E-04   3.3093627E+05   -1.7550674E+00
   1.9595036E-04   3.2827141E+05   -1.7544916E+00
   1.9685528E-04   3.2562887E+05   -1.7539158E+00
   1.9776438E-04   3.2300845E+05   -1.7533400E+00
   1.9867768E-04   3.2040998E+05   -1.7527641E+00
   1.9959519E-04   3.1783325E+05   -1.7521882E+00
   2.0051694E-04   3.1527808E+05   -1.7516122E+00
   2.0144295E-04   3.1274428E+05   -1.7510363E+00
   2.0237324E-04   3.1023166E+05   -1.7504603E+00
   2.0330782E-04   3.0774005E+05   -1.7498843E+00
   2.0424671E-04   3.0526927E+05   -1.7493084E+00
   2.0518995E-04   3.0281912E+05   -1.7487324E+00
   2.0613754E-04   3.0038943E+05   -1.7481565E+00
   2.0708950E-04   2.9798004E+05   -1.7475805E+00
   2.0804586E-04   2.9559075E+05   -1.7470046E+00
   2.0900664E-04   2.9322139E+05   -1.7464287E+00
   2.0997185E-04   2.9087181E+05   -1.7458529E+00
   2.1094152E-04   2.8854181E+05   -1.7452771E+00
   2.1191567E-04   2.8623124E+05   -1.7447014E+00
   2.1289432E-04   2.8393992E+05   -1.7441257E+00
   2.1387749E-04   2.8166769E+05   -1.7435501E+00
   2.1486520E-04   2.7941439E+05   -1.7429745E+00
   2.1585747E-04   2.7717985E+05   -1.7423990E+00
   2.1685432E-04   2.7496390E+05   -1.7418236E+00
   2.1785578E-04   2.7276640E+05   -1.7412483E+00
   2.1886186E-04   2.7058717E+05   -1.7406731E+00
   2.1987259E-04   2.6842607E+05   -1.7400980E+00
   2.2088798E-04   2.6628293E+05   -1.7395229E+00
   2.2190807E-04   2.6415761E+05   -1.7389480E+00
   2.2293286E-04   2.6204994E+05   -1.7383732E+00
   2.2396239E-04   2.5995977E+05   -1.7377986E+00
   2.2499667E-04   2.5788696E+05   -1.7372240E+00
   2.2603573E-04   2.5583136E+05   -1.7366496E+00
   2.2707958E-04   2.5379281E+05   -1.7360754E+00
   2.2812826E-04   2.5177117E+05   -1.7355013E+00
   2.2918178E-04   2.4976630E+05   -1.7349273E+00
   2.3024017E-04   2.4777804E+05   -1.7343535E+00
   2.3130344E-04   2.4580627E+05   -1.7337798E+00
   2.3237162E-04   2.4385083E+05   -1.7332064E+00
   2.3344474E-04   2.4191158E+05   -1.7326331E+00
   2.3452281E-04   2.3998839E+05   -1.7320600E+00
   2.3560586E-04   2.3808112E+05   -1.7314871E+00
   2.3669392E-04   2.3618963E+05   -1.7309143E+00
   2.3778699E-04   2.3431378E+05   -1.7303418E+00
   2.3888512E-04   2.3245345E+05   -1.7297695E+00
   2.3998831E-04   2.3060849E+05   -1.7291974E+00
   2.4109661E-04   2.2877878E+05   -1.7286255E+00
   2.4221001E-04   2.2696419E+05   -1.7280539E+00
   2.4332857E-04   2.2516458E+05   -1.7274824E+00
   2.4445228E-04   2.2337982E+05   -1.7269112E+00
   2.4558119E-04   2.2160980E+05   -1.7263403E+00
   2.4671531E-04   2.1985438E+05   -1.7257696E+00
   2.4785467E-04   2.1811344E+05   -1.7251991E+00
   2.4899928E-04   2.1638686E+05   -1.7246290E+00
   2.5014919E-04   2.1467450E+05   -1.7240590E+00
   2.5130440E-04   2.1297626E+05   -1.7234894E+00
   2.5246495E-04   2.1129200E+05   -1.7229200E+00
   2.5363086E-04   2.0962162E+05   -1.7223509E+00
   2.5480216E-04   2.0796498E+05   -1.7217821E+00
   2.5597886E-04   2.0632198E+05   -1.7212136E+00
   2.5716100E-04   2.0469249E+05   -1.7206454E+00
   2.5834859E-04   2.0307641E+05   -1.7200776E+00
   2.5954168E-04   2.0147361E+05   -1.7195100E+00
   2.6074027E-04   1.9988398E+05   -1.7189427E+00
   2.6194439E-04   1.9830741E+05   -1.7183758E+00
   2.6315408E-04   1.9674379E+05   -1.7178092E+00
   2.6436935E-04   1.9519302E+05   -1.7172429E+00
   2.6559024E-04   1.9365497E+05   -1.7166770E+00
   2.6681676E-04   1.9212954E+05   -1.7161114E+00
   2.6804895E-04   1.9061662E+05   -1.7155462E+00
   2.6928683E-04   1.8911611E+05   -1.7149813E+00
   2.7053042E-04   1.8762789E+05   -1.7144168E+00
   2.7177976E-04   1.8615188E+05   -1.7138526E+00
   2.7303487E-04   1.8468795E+05   -1.7132889E+00
   2.7429577E-04   1.8323601E+05   -1.7127255E+00
   2.7556250E-04   1.8179596E+05   -1.7121625E+00
   2.7683507E-04   1.8036770E+05   -1.7115999E+00
   2.7811353E-04   1.7895111E+05   -1.7110377E+00
   2.7939788E-04   1.7754612E+05   -1.7104759E+00
   2.8068817E-04   1.7615261E+05   -1.7099145E+00
   2.8198442E-04   1.7477049E+05   -1.7093535E+00
   2.8328665E-04   1.7339966E+05   -1.7087930E+00
   2.8459490E-04   1.7204003E+05   -1.7082328E+00
   2.8590919E-04   1.7069150E+05   -1.7076731E+00
   2.8722955E-04   1.6935398E+05   -1.7071139E+00
   2.8855600E-04   1.6802737E+05   -1.7065550E+00
   2.8988859E-04   1.6671158E+05   -1.7059967E+00
   2.9122732E-04   1.6540652E+05   -1.7054387E+00
   2.9257224E-04   1.6411210E+05   -1.7048813E+00
   2.9392337E-04   1.6282822E+05   -1.7043243E+00
   2.9528074E-04   1.6155481E+05   -1.7037677E+00
   2.9664438E-04   1.6029176E+05   -1.7032117E+00
   2.9801431E-04   1.5903900E+05   -1.7026561E+00
   2.9939057E-04   1.5779643E+05   -1.7021010E+00
   3.0077319E-04   1.5656397E+05   -1.7015464E+00
   3.0216219E-04   1.5534153E+05   -1.7009922E+00
   3.0355761E-04   1.5412903E+05   -1.7004386E+00
   3.0495947E-04   1.5292639E+05   -1.6998855E+00
   3.0636780E-04   1.5173351E+05   -1.6993329E+00
   3.0778264E-04   1.5055032E+05   -1.6987808E+00
   3.0920401E-04   1.4937674E+05   -1.6982293E+00
   3.1063195E-04   1.4821269E+05   -1.6976782E+00
   3.1206648E-04   1.4705807E+05   -1.6971277E+00
   3.1350764E-04   1.4591283E+05   -1.6965777E+00
   3.1495545E-04   1.4477687E+05   -1.6960283E+00
   3.1640994E-04   1.4365011E+05   -1.6954794E+00
   3.1787116E-04   1.4253249E+05   -1.6949311E+00
   3.1933912E-04   1.4142391E+05   -1.6943833E+00
   3.2081386E-04   1.4032432E+05   -1.6938361E+00
   3.2229541E-04   1.3923362E+05   -1.6932894E+00
   3.2378381E-04   1.3815175E+05   -1.6927433E+00
   3.2527908E-04   1.3707863E+05   -1.6921978E+00
   3.2678125E-04   1.3601419E+05   -1.6916529E+00
   3.2829036E-04   1.3495835E+05   -1.6911086E+00
   3.2980644E-04   1.3391104E+05   -1.6905648E+00
   3.3132952E-04   1.3287220E+05   -1.6900216E+00
   3.3285963E-04   1.3184174E+05   -1.6894791E+00
   3.3439681E-04   1.3081960E+05   -1.6889371E+00
   3.3594109E-04   1.2980571E+05   -1.6883958E+00
   3.3749250E-04   1.2880000E+05   -1.6878551E+00
   3.3905108E-04   1.2780240E+05   -1.6873149E+00
   3.4061685E-04   1.2681284E+05   -1.6867755E+00
   3.4218986E-04   1.2583125E+05   -1.6862366E+00
   3.4377013E-04   1.2485758E+05   -1.6856984E+00
   3.4535769E-04   1.2389174E+05   -1.6851608E+00
   3.4695259E-04   1.2293368E+05   -1.6846238E+00
   3.4855485E-04   1.2198333E+05   -1.6840875E+00
   3.5016452E-04   1.2104063E+05   -1.6835519E+00
   3.5178161E-04   1.2010550E+05   -1.6830169E+00
   3.5340618E-04   1.1917790E+05   -1.6824825E+00
   3.5503824E-04   1.1825775E+05   -1.6819488E+00
   3.5667785E-04   1.1734499E+05   -1.6814158E+00
   3.5832502E-04   1.1643957E+05   -1.6808835E+00
   3.5997981E-04   1.1554141E+05   -1.6803518E+00
   3.6164223E-04   1.1465046E+05   -1.6798209E+00
   3.6331233E-04   1.1376666E+05   -1.6792906E+00
   3.6499015E-04   1.1288995E+05   -1.6787610E+00
   3.6667571E-04   1.1202027E+05   -1.6782321E+00
   3.6836906E-04   1.1115756E+05   -1.6777039E+00
   3.7007022E-04   1.1030176E+05   -1.6771764E+00
   3.7177925E-04   1.0945282E+05   -1.6766496E+00
   3.7349616E-04   1.0861067E+05   -1.6761235E+00
   3.7522101E-04   1.0777526E+05   -1.6755981E+00
   3.7695382E-04   1.0694654E+05   -1.6750735E+00
   3.7869463E-04   1.0612445E+05   -1.6745495E+00
   3.8044348E-04   1.0530893E+05   -1.6740263E+00
   3.8220041E-04   1.0449993E+05   -1.6735039E+00
   3.8396545E-04   1.0369739E+05   -1.6729821E+00
   3.8573864E-04   1.0290127E+05   -1.6724611E+00
   3.8752002E-04   1.0211150E+05   -1.6719409E+00
   3.8930963E-04   1.0132803E+05   -1.6714214E+00
   3.9110750E-04   1.0055082E+05   -1.6709026E+00
   3.9291368E-04   9.9779806E+04   -1.6703846E+00
   3.9472820E-04   9.9014941E+04   -1.6698674E+00
   3.9655109E-04   9.8256173E+04   -1.6693509E+00
   3.9838241E-04   9.7503451E+04   -1.6688352E+00
   4.0022218E-04   9.6756725E+04   -1.6683203E+00
   4.0207045E-04   9.6015946E+04   -1.6678061E+00
   4.0392725E-04   9.5281064E+04   -1.6672927E+00
   4.0579263E-04   9.4552031E+04   -1.6667801E+00
   4.0766662E-04   9.3828796E+04   -1.6662683E+00
   4.0954927E-04   9.3111313E+04   -1.6657573E+00
   4.1144061E-04   9.2399534E+04   -1.6652470E+00
   4.1334068E-04   9.1693412E+04   -1.6647376E+00
   4.1524953E-04   9.0992899E+04   -1.6642289E+00
   4.1716720E-04   9.0297949E+04   -1.6637211E+00
   4.1909372E-04   8.9608516E+04   -1.6632140E+00
   4.2102914E-04   8.8924555E+04   -1.6627078E+00
   4.2297350E-04   8.8246020E+04   -1.6622024E+00
   4.2492683E-04   8.7572866E+04   -1.6616978E+00
   4.2688919E-04   8.6905049E+04   -1.6611940E+00
   4.2886061E-04   8.6242525E+04   -1.6606911E+00
   4.3084113E-04   8.5585250E+04   -1.6601890E+00
   4.3283080E-04   8.4933180E+04   -1.6596877E+00
   4.3482966E-04   8.4286273E+04   -1.6591872E+00
   4.3683775E-04   8.3644486E+04   -1.6586876E+00
   4.3885511E-04   8.3007777E+04   -1.6581888E+00
   4.4088179E-04   8.2376103E+04   -1.6576908E+00
   4.4291783E-04   8.1749424E+04   -1.6571937E+00
   4.4496327E-04   8.1127698E+04   -1.6566975E+00
   4.4701816E-04   8.0510884E+04   -1.6562021E+00
   4.4908253E-04   7.9898942E+04   -1.6557075E+00
   4.5115644E-04   7.9291832E+04   -1.6552138E+00
   4.5323993E-04   7.8689513E+04   -1.6547210E+00
   4.5533304E-04   7.8091948E+04   -1.6542291E+00
   4.5743582E-04   7.7499095E+04   -1.6537380E+00
   4.5954830E-04   7.6910918E+04   -1.6532477E+00
   4.6167054E-04   7.6327376E+04   -1.6527584E+00
   4.6380259E-04   7.5748433E+04   -1.6522699E+00
   4.6594448E-04   7.5174050E+04   -1.6517823E+00
   4.6809626E-04   7.4604190E+04   -1.6512956E+00
   4.7025797E-04   7.4038815E+04   -1.6508098E+00
   4.7242967E-04   7.3477890E+04   -1.6503248E+00
   4.7461140E-04   7.2921377E+04   -1.6498408E+00
   4.7680321E-04   7.2369240E+04   -1.6493576E+00
   4.7900514E-04   7.1821443E+04   -1.6488753E+00
   4.8121723E-04   7.1277951E+04   -1.6483940E+00
   4.8343954E-04   7.0738729E+04   -1.6479135E+00
   4.8567212E-04   7.0203741E+04   -1.6474339E+00
   4.8791500E-04   6.9672953E+04   -1.6469552E+00
   4.9016825E-04   6.9146331E+04   -1.6464775E+00
   4.9243189E-04   6.8623840E+04   -1.6460006E+00
   4.9470600E-04   6.8105446E+04   -1.6455247E+00
   4.9699060E-04   6.7591117E+04   -1.6450497E+00
   4.9928575E-04   6.7080818E+04   -1.6445756E+00
   5.0159151E-04   6.6574518E+04   -1.6441024E+00
   5.0390791E-04   6.6072182E+04   -1.6436301E+00
   5.0623501E-04   6.5573780E+04   -1.6431588E+00
   5.0857286E-04   6.5079278E+04   -1.6426884E+00
   5.1092150E-04   6.4588646E+04   -1.6422189E+00
   5.1328099E-04   6.4101850E+04   -1.6417503E+00
   5.1565137E-04   6.3618861E+04   -1.6412827E+00
   5.1803270E-04   6.3139647E+04   -1.6408160E+00
   5.2042503E-04   6.2664178E+04   -1.6403503E+00
   5.2282841E-04   6.2192422E+04   -1.6398855E+00
   5.2524289E-04   6.1724349E+04   -1.6394216E+00
   5.2766851E-04   6.1259931E+04   -1.6389587E+00
   5.3010534E-04   6.0799136E+04   -1.6384967E+00
   5.3255342E-04   6.0341935E+04   -1.6380357E+00
   5.3501281E-04   5.9888300E+04   -1.6375756E+00
   5.3748356E-04   5.9438201E+04   -1.6371165E+00
   5.3996571E-04   5.8991609E+04   -1.6366583E+00
   5.4245933E-04   5.8548496E+04   -1.6362011E+00
   5.4496446E-04   5.8108834E+04   -1.6357448E+00
   5.4748117E-04   5.7672595E+04   -1.6352895E+00
   5.5000949E-04   5.7239750E+04   -1.6348352E+00
   5.5254949E-04   5.6810273E+04   -1.6343818E+00
   5.5510123E-04   5.6384137E+04   -1.6339294E+00
   5.5766474E-04   5.5961313E+04   -1.6334779E+00
   5.6024010E-04   5.5541775E+04   -1.6330274E+00
   5.6282734E-04   5.5125497E+04   -1.6325779E+00
   5.6542654E-04   5.4712451E+04   -1.6321294E+00
   5.6803774E-04   5.4302613E+04   -1.6316818E+00
   5.7066099E-04   5.3895956E+04   -1.6312352E+00
   5.7329637E-04   5.3492454E+04   -1.6307896E+00
   5.7594391E-04   5.3092082E+04   -1.6303450E+00
   5.7860368E-04   5.2694815E+04   -1.6299013E+00
   5.8127573E-04   5.2300626E+04   -1.6294586E+00
   5.8396012E-04   5.1909493E+04   -1.6290169E+00
   5.8665691E-04   5.1521389E+04   -1.6285762E+00
   5.8936616E-04   5.1136291E+04   -1.6281364E+00
   5.9208791E-04   5.0754174E+04   -1.6276977E+00
   5.9482223E-04   5.0375013E+04   -1.6272599E+00
   5.9756919E-04   4.9998787E+04   -1.6268232E+00
   6.0032882E-04   4.9625469E+04   -1.6263874E+00
   6.0310120E-04   4.9255038E+04   -1.6259526E+00
   6.0588639E-04   4.8887470E+04   -1.6255188E+00
   6.0868443E-04   4.8522741E+04   -1.6250860E+00
   6.1149540E-04   4.8160830E+04   -1.6246541E+00
   6.1431935E-04   4.7801713E+04   -1.6242233E+00
   6.1715634E-04   4.7445368E+04   -1.6237935E+00
   6.2000644E-04   4.7091773E+04   -1.6233647E+00
   6.2286969E-04   4.6740905E+04   -1.6229368E+00
