#        a       HoverH0(a)       dlogHdloga_of_a(a)
   1.0000000E-04   1.1134423E+06   -1.8708060E+00
   1.0046181E-04   1.1038871E+06   -1.8703640E+00
   1.0092575E-04   1.0944162E+06   -1.8699211E+00
   1.0139184E-04   1.0850287E+06   -1.8694772E+00
   1.0186008E-04   1.0757240E+06   -1.8690323E+00
   1.0233048E-04   1.0665013E+06   -1.8685864E+00
   1.0280305E-04   1.0573598E+06   -1.8681395E+00
   1.0327781E-04   1.0482988E+06   -1.8676917E+00
   1.0375475E-04   1.0393176E+06   -1.8672429E+00
   1.0423390E-04   1.0304155E+06   -1.8667932E+00
   1.0471527E-04   1.0215917E+06   -1.8663424E+00
   1.0519885E-04   1.0128456E+06   -1.8658907E+00
   1.0568467E-04   1.0041765E+06   -1.8654381E+00
   1.0617274E-04   9.9558370E+05   -1.8649844E+00
   1.0666305E-04   9.8706646E+05   -1.8645298E+00
   1.0715563E-04   9.7862415E+05   -1.8640743E+00
   1.0765049E-04   9.7025608E+05   -1.8636178E+00
   1.0814763E-04   9.6196159E+05   -1.8631603E+00
   1.0864707E-04   9.5374002E+05   -1.8627019E+00
   1.0914881E-04   9.4559071E+05   -1.8622425E+00
   1.0965287E-04   9.3751302E+05   -1.8617821E+00
   1.1015926E-04   9.2950631E+05   -1.8613209E+00
   1.1066799E-04   9.2156994E+05   -1.8608586E+00
   1.1117906E-04   9.1370328E+05   -1.8603955E+00
   1.1169250E-04   9.0590571E+05   -1.8599313E+00
   1.1220831E-04   8.9817660E+05   -1.8594663E+00
   1.1272650E-04   8.9051535E+05   -1.8590003E+00
   1.1324708E-04   8.8292135E+05   -1.8585333E+00
   1.1377007E-04   8.7539399E+05   -1.8580655E+00
   1.1429547E-04   8.6793268E+05   -1.8575967E+00
   1.1482330E-04   8.6053682E+05   -1.8571269E+00
   1.1535356E-04   8.5320584E+05   -1.8566563E+00
   1.1588628E-04   8.4593914E+05   -1.8561847E+00
   1.1642145E-04   8.3873616E+05   -1.8557122E+00
   1.1695910E-04   8.3159632E+05   -1.8552387E+00
   1.1749923E-04   8.2451906E+05   -1.8547644E+00
   1.1804185E-04   8.1750382E+05   -1.8542891E+00
   1.1858698E-04   8.1055004E+05   -1.8538129E+00
   1.1913463E-04   8.0365718E+05   -1.8533358E+00
   1.1968481E-04   7.9682468E+05   -1.8528578E+00
   1.2023752E-04   7.9005202E+05   -1.8523789E+00
   1.2079279E-04   7.8333865E+05   -1.8518991E+00
   1.2135063E-04   7.7668405E+05   -1.8514184E+00
   1.2191104E-04   7.7008769E+05   -1.8509368E+00
   1.2247403E-04   7.6354905E+05   -1.8504542E+00
   1.2303963E-04   7.5706761E+05   -1.8499708E+00
   1.2360784E-04   7.5064286E+05   -1.8494865E+00
   1.2417868E-04   7.4427429E+05   -1.8490013E+00
   1.2475215E-04   7.3796141E+05   -1.8485153E+00
   1.2532826E-04   7.3170371E+05   -1.8480283E+00
   1.2590704E-04   7.2550071E+05   -1.8475404E+00
   1.2648850E-04   7.1935191E+05   -1.8470517E+00
   1.2707263E-04   7.1325683E+05   -1.8465621E+00
   1.2765947E-04   7.0721499E+05   -1.8460717E+00
   1.2824901E-04   7.0122591E+05   -1.8455803E+00
   1.2884128E-04   6.9528913E+05   -1.8450881E+00
   1.2943628E-04   6.8940418E+05   -1.8445951E+00
   1.3003403E-04   6.8357060E+05   -1.8441011E+00
   1.3063454E-04   6.7778791E+05   -1.8436063E+00
   1.3123783E-04   6.7205569E+05   -1.8431107E+00
   1.3184390E-04   6.6637346E+05   -1.8426142E+00
   1.3245277E-04   6.6074079E+05   -1.8421169E+00
   1.3306445E-04   6.5515723E+05   -1.8416187E+00
   1.3367895E-04   6.4962235E+05   -1.8411197E+00
   1.3429630E-04   6.4413571E+05   -1.8406198E+00
   1.3491649E-04   6.3869688E+05   -1.8401191E+00
   1.3553955E-04   6.3330544E+05   -1.8396176E+00
   1.3616548E-04   6.2796096E+05   -1.8391152E+00
   1.3679431E-04   6.2266302E+05   -1.8386120E+00
   1.3742604E-04   6.1741122E+05   -1.8381080E+00
   1.3806069E-04   6.1220513E+05   -1.8376032E+00
   1.3869827E-04   6.0704436E+05   -1.8370975E+00
   1.3933879E-04   6.0192849E+05   -1.8365911E+00
   1.3998227E-04   5.9685714E+05   -1.8360838E+00
   1.4062872E-04   5.9182989E+05   -1.8355757E+00
   1.4127816E-04   5.8684636E+05   -1.8350669E+00
   1.4193060E-04   5.8190616E+05   -1.8345572E+00
   1.4258605E-04   5.7700890E+05   -1.8340467E+00
   1.4324453E-04   5.7215421E+05   -1.8335354E+00
   1.4390605E-04   5.6734170E+05   -1.8330234E+00
   1.4457062E-04   5.6257099E+05   -1.8325106E+00
   1.4523826E-04   5.5784173E+05   -1.8319970E+00
   1.4590899E-04   5.5315353E+05   -1.8314826E+00
   1.4658281E-04   5.4850603E+05   -1.8309674E+00
   1.4725974E-04   5.4389887E+05   -1.8304515E+00
   1.4793981E-04   5.3933169E+05   -1.8299348E+00
   1.4862301E-04   5.3480413E+05   -1.8294173E+00
   1.4930936E-04   5.3031585E+05   -1.8288991E+00
   1.4999889E-04   5.2586649E+05   -1.8283801E+00
   1.5069160E-04   5.2145571E+05   -1.8278604E+00
   1.5138751E-04   5.1708316E+05   -1.8273399E+00
   1.5208663E-04   5.1274851E+05   -1.8268187E+00
   1.5278899E-04   5.0845142E+05   -1.8262968E+00
   1.5349458E-04   5.0419156E+05   -1.8257741E+00
   1.5420343E-04   4.9996859E+05   -1.8252506E+00
   1.5491556E-04   4.9578218E+05   -1.8247265E+00
   1.5563098E-04   4.9163202E+05   -1.8242016E+00
   1.5634970E-04   4.8751778E+05   -1.8236761E+00
   1.5707174E-04   4.8343914E+05   -1.8231498E+00
   1.5779711E-04   4.7939579E+05   -1.8226227E+00
   1.5852584E-04   4.7538741E+05   -1.8220950E+00
   1.5925792E-04   4.7141369E+05   -1.8215666E+00
   1.5999339E-04   4.6747432E+05   -1.8210375E+00
   1.6073226E-04   4.6356901E+05   -1.8205077E+00
   1.6147454E-04   4.5969744E+05   -1.8199772E+00
   1.6222024E-04   4.5585933E+05   -1.8194460E+00
   1.6296939E-04   4.5205436E+05   -1.8189141E+00
   1.6372200E-04   4.4828226E+05   -1.8183816E+00
   1.6447809E-04   4.4454272E+05   -1.8178484E+00
   1.6523767E-04   4.4083546E+05   -1.8173145E+00
   1.6600075E-04   4.3716019E+05   -1.8167800E+00
   1.6676736E-04   4.3351663E+05   -1.8162448E+00
   1.6753751E-04   4.2990450E+05   -1.8157089E+00
   1.6831122E-04   4.2632352E+05   -1.8151724E+00
   1.6908849E-04   4.2277342E+05   -1.8146353E+00
   1.6986936E-04   4.1925391E+05   -1.8140975E+00
   1.7065384E-04   4.1576474E+05   -1.8135591E+00
   1.7144193E-04   4.1230562E+05   -1.8130200E+00
   1.7223367E-04   4.0887631E+05   -1.8124803E+00
   1.7302906E-04   4.0547652E+05   -1.8119400E+00
   1.7382813E-04   4.0210601E+05   -1.8113991E+00
   1.7463089E-04   3.9876450E+05   -1.8108576E+00
   1.7543735E-04   3.9545176E+05   -1.8103154E+00
   1.7624754E-04   3.9216751E+05   -1.8097727E+00
   1.7706147E-04   3.8891151E+05   -1.8092293E+00
   1.7787916E-04   3.8568351E+05   -1.8086854E+00
   1.7870062E-04   3.8248326E+05   -1.8081409E+00
   1.7952588E-04   3.7931052E+05   -1.8075958E+00
   1.8035495E-04   3.7616504E+05   -1.8070501E+00
   1.8118785E-04   3.7304659E+05   -1.8065038E+00
   1.8202459E-04   3.6995492E+05   -1.8059570E+00
   1.8286520E-04   3.6688979E+05   -1.8054096E+00
   1.8370969E-04   3.6385098E+05   -1.8048616E+00
   1.8455808E-04   3.6083826E+05   -1.8043131E+00
   1.8541039E-04   3.5785138E+05   -1.8037640E+00
   1.8626663E-04   3.5489012E+05   -1.8032144E+00
   1.8712683E-04   3.5195426E+05   -1.8026643E+00
   1.8799100E-04   3.4904357E+05   -1.8021136E+00
   1.8885917E-04   3.4615784E+05   -1.8015624E+00
   1.8973134E-04   3.4329683E+05   -1.8010107E+00
   1.9060754E-04   3.4046034E+05   -1.8004584E+00
   1.9148778E-04   3.3764814E+05   -1.7999056E+00
   1.9237209E-04   3.3486002E+05   -1.7993524E+00
   1.9326049E-04   3.3209577E+05   -1.7987986E+00
   1.9415299E-04   3.2935518E+05   -1.7982443E+00
   1.9504960E-04   3.2663805E+05   -1.7976895E+00
   1.9595036E-04   3.2394416E+05   -1.7971343E+00
   1.9685528E-04   3.2127330E+05   -1.7965785E+00
   1.9776438E-04   3.1862529E+05   -1.7960223E+00
   1.9867768E-04   3.1599991E+05   -1.7954656E+00
   1.9959519E-04   3.1339697E+05   -1.7949084E+00
   2.0051694E-04   3.1081626E+05   -1.7943508E+00
   2.0144295E-04   3.0825760E+05   -1.7937927E+00
   2.0237324E-04   3.0572079E+05   -1.7932342E+00
   2.0330782E-04   3.0320564E+05   -1.7926752E+00
   2.0424671E-04   3.0071195E+05   -1.7921158E+00
   2.0518995E-04   2.9823954E+05   -1.7915560E+00
   2.0613754E-04   2.9578822E+05   -1.7909957E+00
   2.0708950E-04   2.9335781E+05   -1.7904350E+00
   2.0804586E-04   2.9094812E+05   -1.7898739E+00
   2.0900664E-04   2.8855897E+05   -1.7893123E+00
   2.0997185E-04   2.8619018E+05   -1.7887504E+00
   2.1094152E-04   2.8384157E+05   -1.7881881E+00
   2.1191567E-04   2.8151296E+05   -1.7876253E+00
   2.1289432E-04   2.7920418E+05   -1.7870622E+00
   2.1387749E-04   2.7691506E+05   -1.7864987E+00
   2.1486520E-04   2.7464541E+05   -1.7859348E+00
   2.1585747E-04   2.7239508E+05   -1.7853705E+00
   2.1685432E-04   2.7016389E+05   -1.7848059E+00
   2.1785578E-04   2.6795167E+05   -1.7842409E+00
   2.1886186E-04   2.6575825E+05   -1.7836755E+00
   2.1987259E-04   2.6358348E+05   -1.7831098E+00
   2.2088798E-04   2.6142719E+05   -1.7825438E+00
   2.2190807E-04   2.5928921E+05   -1.7819774E+00
   2.2293286E-04   2.5716939E+05   -1.7814106E+00
   2.2396239E-04   2.5506757E+05   -1.7808436E+00
   2.2499667E-04   2.5298359E+05   -1.7802762E+00
   2.2603573E-04   2.5091728E+05   -1.7797085E+00
   2.2707958E-04   2.4886851E+05   -1.7791405E+00
   2.2812826E-04   2.4683711E+05   -1.7785722E+00
   2.2918178E-04   2.4482294E+05   -1.7780036E+00
   2.3024017E-04   2.4282583E+05   -1.7774347E+00
   2.3130344E-04   2.4084565E+05   -1.7768655E+00
   2.3237162E-04   2.3888224E+05   -1.7762960E+00
   2.3344474E-04   2.3693546E+05   -1.7757262E+00
   2.3452281E-04   2.3500517E+05   -1.7751562E+00
   2.3560586E-04   2.3309121E+05   -1.7745859E+00
   2.3669392E-04   2.3119344E+05   -1.7740154E+00
   2.3778699E-04   2.2931174E+05   -1.7734446E+00
   2.3888512E-04   2.2744594E+05   -1.7728735E+00
   2.3998831E-04   2.2559592E+05   -1.7723022E+00
   2.4109661E-04   2.2376154E+05   -1.7717307E+00
   2.4221001E-04   2.2194265E+05   -1.7711590E+00
   2.4332857E-04   2.2013913E+05   -1.7705870E+00
   2.4445228E-04   2.1835085E+05   -1.7700148E+00
   2.4558119E-04   2.1657766E+05   -1.7694424E+00
   2.4671531E-04   2.1481943E+05   -1.7688698E+00
   2.4785467E-04   2.1307605E+05   -1.7682970E+00
   2.4899928E-04   2.1134737E+05   -1.7677240E+00
   2.5014919E-04   2.0963327E+05   -1.7671508E+00
   2.5130440E-04   2.0793362E+05   -1.7665774E+00
   2.5246495E-04   2.0624829E+05   -1.7660038E+00
   2.5363086E-04   2.0457717E+05   -1.7654301E+00
   2.5480216E-04   2.0292012E+05   -1.7648562E+00
   2.5597886E-04   2.0127702E+05   -1.7642822E+00
   2.5716100E-04   1.9964776E+05   -1.7637080E+00
   2.5834859E-04   1.9803221E+05   -1.7631337E+00
   2.5954168E-04   1.9643026E+05   -1.7625592E+00
   2.6074027E-04   1.9484177E+05   -1.7619846E+00
   2.6194439E-04   1.9326665E+05   -1.7614099E+00
   2.6315408E-04   1.9170477E+05   -1.7608350E+00
   2.6436935E-04   1.9015601E+05   -1.7602600E+00
   2.6559024E-04   1.8862026E+05   -1.7596849E+00
   2.6681676E-04   1.8709742E+05   -1.7591098E+00
   2.6804895E-04   1.8558736E+05   -1.7585345E+00
   2.6928683E-04   1.8408998E+05   -1.7579591E+00
   2.7053042E-04   1.8260516E+05   -1.7573836E+00
   2.7177976E-04   1.8113280E+05   -1.7568081E+00
   2.7303487E-04   1.7967278E+05   -1.7562325E+00
   2.7429577E-04   1.7822501E+05   -1.7556568E+00
   2.7556250E-04   1.7678937E+05   -1.7550811E+00
   2.7683507E-04   1.7536576E+05   -1.7545053E+00
   2.7811353E-04   1.7395408E+05   -1.7539294E+00
   2.7939788E-04   1.7255422E+05   -1.7533536E+00
   2.8068817E-04   1.7116608E+05   -1.7527776E+00
   2.8198442E-04   1.6978955E+05   -1.7522017E+00
   2.8328665E-04   1.6842455E+05   -1.7516257E+00
   2.8459490E-04   1.6707096E+05   -1.7510497E+00
   2.8590919E-04   1.6572868E+05   -1.7504737E+00
   2.8722955E-04   1.6439763E+05   -1.7498977E+00
   2.8855600E-04   1.6307770E+05   -1.7493217E+00
   2.8988859E-04   1.6176880E+05   -1.7487457E+00
   2.9122732E-04   1.6047083E+05   -1.7481697E+00
   2.9257224E-04   1.5918370E+05   -1.7475938E+00
   2.9392337E-04   1.5790731E+05   -1.7470178E+00
   2.9528074E-04   1.5664157E+05   -1.7464419E+00
   2.9664438E-04   1.5538639E+05   -1.7458660E+00
   2.9801431E-04   1.5414167E+05   -1.7452902E+00
   2.9939057E-04   1.5290733E+05   -1.7447144E+00
   3.0077319E-04   1.5168328E+05   -1.7441387E+00
   3.0216219E-04   1.5046943E+05   -1.7435630E+00
   3.0355761E-04   1.4926569E+05   -1.7429874E+00
   3.0495947E-04   1.4807196E+05   -1.7424119E+00
   3.0636780E-04   1.4688818E+05   -1.7418365E+00
   3.0778264E-04   1.4571424E+05   -1.7412611E+00
   3.0920401E-04   1.4455007E+05   -1.7406858E+00
   3.1063195E-04   1.4339558E+05   -1.7401107E+00
   3.1206648E-04   1.4225069E+05   -1.7395356E+00
   3.1350764E-04   1.4111532E+05   -1.7389606E+00
   3.1495545E-04   1.3998937E+05   -1.7383858E+00
   3.1640994E-04   1.3887278E+05   -1.7378111E+00
   3.1787116E-04   1.3776546E+05   -1.7372365E+00
   3.1933912E-04   1.3666733E+05   -1.7366621E+00
   3.2081386E-04   1.3557831E+05   -1.7360878E+00
   3.2229541E-04   1.3449833E+05   -1.7355136E+00
   3.2378381E-04   1.3342730E+05   -1.7349396E+00
   3.2527908E-04   1.3236515E+05   -1.7343657E+00
   3.2678125E-04   1.3131180E+05   -1.7337920E+00
   3.2829036E-04   1.3026718E+05   -1.7332185E+00
   3.2980644E-04   1.2923121E+05   -1.7326452E+00
   3.3132952E-04   1.2820382E+05   -1.7320720E+00
   3.3285963E-04   1.2718493E+05   -1.7314991E+00
   3.3439681E-04   1.2617448E+05   -1.7309263E+00
   3.3594109E-04   1.2517238E+05   -1.7303537E+00
   3.3749250E-04   1.2417856E+05   -1.7297813E+00
   3.3905108E-04   1.2319297E+05   -1.7292092E+00
   3.4061685E-04   1.2221551E+05   -1.7286373E+00
   3.4218986E-04   1.2124614E+05   -1.7280655E+00
   3.4377013E-04   1.2028476E+05   -1.7274941E+00
   3.4535769E-04   1.1933133E+05   -1.7269228E+00
   3.4695259E-04   1.1838576E+05   -1.7263518E+00
   3.4855485E-04   1.1744800E+05   -1.7257811E+00
   3.5016452E-04   1.1651797E+05   -1.7252106E+00
   3.5178161E-04   1.1559560E+05   -1.7246403E+00
   3.5340618E-04   1.1468084E+05   -1.7240704E+00
   3.5503824E-04   1.1377362E+05   -1.7235007E+00
   3.5667785E-04   1.1287387E+05   -1.7229312E+00
   3.5832502E-04   1.1198153E+05   -1.7223621E+00
   3.5997981E-04   1.1109654E+05   -1.7217932E+00
   3.6164223E-04   1.1021883E+05   -1.7212247E+00
   3.6331233E-04   1.0934834E+05   -1.7206564E+00
   3.6499015E-04   1.0848501E+05   -1.7200885E+00
   3.6667571E-04   1.0762877E+05   -1.7195208E+00
   3.6836906E-04   1.0677958E+05   -1.7189535E+00
   3.7007022E-04   1.0593736E+05   -1.7183865E+00
   3.7177925E-04   1.0510206E+05   -1.7178199E+00
   3.7349616E-04   1.0427361E+05   -1.7172535E+00
   3.7522101E-04   1.0345197E+05   -1.7166875E+00
   3.7695382E-04   1.0263707E+05   -1.7161219E+00
   3.7869463E-04   1.0182885E+05   -1.7155566E+00
   3.8044348E-04   1.0102726E+05   -1.7149917E+00
   3.8220041E-04   1.0023224E+05   -1.7144271E+00
   3.8396545E-04   9.9443738E+04   -1.7138629E+00
   3.8573864E-04   9.8661693E+04   -1.7132991E+00
   3.8752002E-04   9.7886053E+04   -1.7127356E+00
   3.8930963E-04   9.7116762E+04   -1.7121726E+00
   3.9110750E-04   9.6353767E+04   -1.7116099E+00
   3.9291368E-04   9.5597015E+04   -1.7110476E+00
   3.9472820E-04   9.4846451E+04   -1.7104858E+00
   3.9655109E-04   9.4102024E+04   -1.7099243E+00
   3.9838241E-04   9.3363681E+04   -1.7093633E+00
   4.0022218E-04   9.2631370E+04   -1.7088026E+00
   4.0207045E-04   9.1905041E+04   -1.7082424E+00
   4.0392725E-04   9.1184643E+04   -1.7076827E+00
   4.0579263E-04   9.0470125E+04   -1.7071233E+00
   4.0766662E-04   8.9761436E+04   -1.7065644E+00
   4.0954927E-04   8.9058529E+04   -1.7060060E+00
   4.1144061E-04   8.8361353E+04   -1.7054480E+00
   4.1334068E-04   8.7669860E+04   -1.7048905E+00
   4.1524953E-04   8.6984001E+04   -1.7043334E+00
   4.1716720E-04   8.6303730E+04   -1.7037768E+00
   4.1909372E-04   8.5628999E+04   -1.7032206E+00
   4.2102914E-04   8.4959760E+04   -1.7026650E+00
   4.2297350E-04   8.4295967E+04   -1.7021098E+00
   4.2492683E-04   8.3637574E+04   -1.7015551E+00
   4.2688919E-04   8.2984536E+04   -1.7010009E+00
   4.2886061E-04   8.2336807E+04   -1.7004472E+00
   4.3084113E-04   8.1694342E+04   -1.6998941E+00
   4.3283080E-04   8.1057097E+04   -1.6993414E+00
   4.3482966E-04   8.0425027E+04   -1.6987892E+00
   4.3683775E-04   7.9798089E+04   -1.6982376E+00
   4.3885511E-04   7.9176239E+04   -1.6976865E+00
   4.4088179E-04   7.8559434E+04   -1.6971359E+00
   4.4291783E-04   7.7947632E+04   -1.6965858E+00
   4.4496327E-04   7.7340791E+04   -1.6960363E+00
   4.4701816E-04   7.6738868E+04   -1.6954873E+00
   4.4908253E-04   7.6141822E+04   -1.6949389E+00
   4.5115644E-04   7.5549612E+04   -1.6943911E+00
   4.5323993E-04   7.4962197E+04   -1.6938438E+00
   4.5533304E-04   7.4379538E+04   -1.6932970E+00
   4.5743582E-04   7.3801592E+04   -1.6927509E+00
   4.5954830E-04   7.3228322E+04   -1.6922053E+00
   4.6167054E-04   7.2659688E+04   -1.6916603E+00
   4.6380259E-04   7.2095649E+04   -1.6911159E+00
   4.6594448E-04   7.1536169E+04   -1.6905720E+00
   4.6809626E-04   7.0981208E+04   -1.6900288E+00
   4.7025797E-04   7.0430729E+04   -1.6894861E+00
   4.7242967E-04   6.9884693E+04   -1.6889441E+00
   4.7461140E-04   6.9343063E+04   -1.6884027E+00
   4.7680321E-04   6.8805803E+04   -1.6878619E+00
   4.7900514E-04   6.8272876E+04   -1.6873217E+00
   4.8121723E-04   6.7744245E+04   -1.6867821E+00
   4.8343954E-04   6.7219874E+04   -1.6862431E+00
   4.8567212E-04   6.6699728E+04   -1.6857048E+00
   4.8791500E-04   6.6183770E+04   -1.6851672E+00
   4.9016825E-04   6.5671966E+04   -1.6846301E+00
   4.9243189E-04   6.5164282E+04   -1.6840937E+00
   4.9470600E-04   6.4660681E+04   -1.6835580E+00
   4.9699060E-04   6.4161131E+04   -1.6830229E+00
   4.9928575E-04   6.3665597E+04   -1.6824885E+00
   5.0159151E-04   6.3174046E+04   -1.6819547E+00
   5.0390791E-04   6.2686443E+04   -1.6814216E+00
   5.0623501E-04   6.2202757E+04   -1.6808892E+00
   5.0857286E-04   6.1722955E+04   -1.6803574E+00
   5.1092150E-04   6.1247003E+04   -1.6798264E+00
   5.1328099E-04   6.0774870E+04   -1.6792960E+00
   5.1565137E-04   6.0306524E+04   -1.6787663E+00
   5.1803270E-04   5.9841934E+04   -1.6782373E+00
   5.2042503E-04   5.9381066E+04   -1.6777090E+00
   5.2282841E-04   5.8923892E+04   -1.6771814E+00
   5.2524289E-04   5.8470379E+04   -1.6766545E+00
   5.2766851E-04   5.8020498E+04   -1.6761283E+00
   5.3010534E-04   5.7574217E+04   -1.6756029E+00
   5.3255342E-04   5.7131508E+04   -1.6750781E+00
   5.3501281E-04   5.6692339E+04   -1.6745541E+00
   5.3748356E-04   5.6256682E+04   -1.6740308E+00
   5.3996571E-04   5.5824508E+04   -1.6735082E+00
   5.4245933E-04   5.5395787E+04   -1.6729864E+00
   5.4496446E-04   5.4970490E+04   -1.6724653E+00
   5.4748117E-04   5.4548590E+04   -1.6719450E+00
   5.5000949E-04   5.4130057E+04   -1.6714254E+00
   5.5254949E-04   5.3714864E+04   -1.6709065E+00
   5.5510123E-04   5.3302983E+04   -1.6703884E+00
   5.5766474E-04   5.2894387E+04   -1.6698711E+00
   5.6024010E-04   5.2489047E+04   -1.6693545E+00
   5.6282734E-04   5.2086938E+04   -1.6688387E+00
   5.6542654E-04   5.1688032E+04   -1.6683237E+00
   5.6803774E-04   5.1292302E+04   -1.6678094E+00
   5.7066099E-04   5.0899723E+04   -1.6672959E+00
   5.7329637E-04   5.0510268E+04   -1.6667832E+00
   5.7594391E-04   5.0123911E+04   -1.6662713E+00
   5.7860368E-04   4.9740627E+04   -1.6657602E+00
   5.8127573E-04   4.9360389E+04   -1.6652498E+00
   5.8396012E-04   4.8983174E+04   -1.6647403E+00
   5.8665691E-04   4.8608955E+04   -1.6642315E+00
   5.8936616E-04   4.8237708E+04   -1.6637236E+00
   5.9208791E-04   4.7869408E+04   -1.6632164E+00
   5.9482223E-04   4.7504032E+04   -1.6627101E+00
   5.9756919E-04   4.7141554E+04   -1.6622046E+00
   6.0032882E-04   4.6781951E+04   -1.6616999E+00
   6.0310120E-04   4.6425198E+04   -1.6611960E+00
   6.0588639E-04   4.6071273E+04   -1.6606929E+00
   6.0868443E-04   4.5720153E+04   -1.6601907E+00
   6.1149540E-04   4.5371813E+04   -1.6596893E+00
   6.1431935E-04   4.5026231E+04   -1.6591887E+00
   6.1715634E-04   4.4683384E+04   -1.6586890E+00
   6.2000644E-04   4.4343250E+04   -1.6581901E+00
   6.2286969E-04   4.4005806E+04   -1.6576920E+00
