#        a       HoverH0(a)       dlogHdloga_of_a(a)
   1.0000000E-04   1.1740716E+06   -1.8823536E+00
   1.0046181E-04   1.1639342E+06   -1.8819386E+00
   1.0092575E-04   1.1538864E+06   -1.8815225E+00
   1.0139184E-04   1.1439277E+06   -1.8811055E+00
   1.0186008E-04   1.1340570E+06   -1.8806874E+00
   1.0233048E-04   1.1242737E+06   -1.8802684E+00
   1.0280305E-04   1.1145769E+06   -1.8798483E+00
   1.0327781E-04   1.1049660E+06   -1.8794272E+00
   1.0375475E-04   1.0954400E+06   -1.8790051E+00
   1.0423390E-04   1.0859982E+06   -1.8785820E+00
   1.0471527E-04   1.0766400E+06   -1.8781579E+00
   1.0519885E-04   1.0673644E+06   -1.8777328E+00
   1.0568467E-04   1.0581709E+06   -1.8773067E+00
   1.0617274E-04   1.0490586E+06   -1.8768796E+00
   1.0666305E-04   1.0400268E+06   -1.8764515E+00
   1.0715563E-04   1.0310748E+06   -1.8760224E+00
   1.0765049E-04   1.0222019E+06   -1.8755923E+00
   1.0814763E-04   1.0134074E+06   -1.8751612E+00
   1.0864707E-04   1.0046905E+06   -1.8747291E+00
   1.0914881E-04   9.9605059E+05   -1.8742960E+00
   1.0965287E-04   9.8748695E+05   -1.8738620E+00
   1.1015926E-04   9.7899890E+05   -1.8734269E+00
   1.1066799E-04   9.7058575E+05   -1.8729908E+00
   1.1117906E-04   9.6224683E+05   -1.8725538E+00
   1.1169250E-04   9.5398149E+05   -1.8721157E+00
   1.1220831E-04   9.4578905E+05   -1.8716767E+00
   1.1272650E-04   9.3766886E+05   -1.8712367E+00
   1.1324708E-04   9.2962028E+05   -1.8707957E+00
   1.1377007E-04   9.2164266E+05   -1.8703537E+00
   1.1429547E-04   9.1373537E+05   -1.8699107E+00
   1.1482330E-04   9.0589776E+05   -1.8694668E+00
   1.1535356E-04   8.9812923E+05   -1.8690219E+00
   1.1588628E-04   8.9042913E+05   -1.8685760E+00
   1.1642145E-04   8.8279687E+05   -1.8681291E+00
   1.1695910E-04   8.7523184E+05   -1.8676812E+00
   1.1749923E-04   8.6773342E+05   -1.8672324E+00
   1.1804185E-04   8.6030103E+05   -1.8667826E+00
   1.1858698E-04   8.5293406E+05   -1.8663319E+00
   1.1913463E-04   8.4563194E+05   -1.8658801E+00
   1.1968481E-04   8.3839408E+05   -1.8654274E+00
   1.2023752E-04   8.3121991E+05   -1.8649738E+00
   1.2079279E-04   8.2410885E+05   -1.8645192E+00
   1.2135063E-04   8.1706034E+05   -1.8640636E+00
   1.2191104E-04   8.1007382E+05   -1.8636070E+00
   1.2247403E-04   8.0314873E+05   -1.8631495E+00
   1.2303963E-04   7.9628452E+05   -1.8626911E+00
   1.2360784E-04   7.8948064E+05   -1.8622317E+00
   1.2417868E-04   7.8273656E+05   -1.8617713E+00
   1.2475215E-04   7.7605174E+05   -1.8613100E+00
   1.2532826E-04   7.6942564E+05   -1.8608478E+00
   1.2590704E-04   7.6285775E+05   -1.8603846E+00
   1.2648850E-04   7.5634753E+05   -1.8599204E+00
   1.2707263E-04   7.4989448E+05   -1.8594553E+00
   1.2765947E-04   7.4349808E+05   -1.8589893E+00
   1.2824901E-04   7.3715783E+05   -1.8585223E+00
   1.2884128E-04   7.3087321E+05   -1.8580544E+00
   1.2943628E-04   7.2464374E+05   -1.8575856E+00
   1.3003403E-04   7.1846892E+05   -1.8571158E+00
   1.3063454E-04   7.1234826E+05   -1.8566452E+00
   1.3123783E-04   7.0628128E+05   -1.8561735E+00
   1.3184390E-04   7.0026749E+05   -1.8557010E+00
   1.3245277E-04   6.9430641E+05   -1.8552275E+00
   1.3306445E-04   6.8839759E+05   -1.8547532E+00
   1.3367895E-04   6.8254054E+05   -1.8542779E+00
   1.3429630E-04   6.7673481E+05   -1.8538017E+00
   1.3491649E-04   6.7097994E+05   -1.8533245E+00
   1.3553955E-04   6.6527547E+05   -1.8528465E+00
   1.3616548E-04   6.5962095E+05   -1.8523676E+00
   1.3679431E-04   6.5401594E+05   -1.8518877E+00
   1.3742604E-04   6.4846000E+05   -1.8514070E+00
   1.3806069E-04   6.4295267E+05   -1.8509253E+00
   1.3869827E-04   6.3749354E+05   -1.8504428E+00
   1.3933879E-04   6.3208216E+05   -1.8499593E+00
   1.3998227E-04   6.2671811E+05   -1.8494750E+00
   1.4062872E-04   6.2140098E+05   -1.8489898E+00
   1.4127816E-04   6.1613033E+05   -1.8485037E+00
   1.4193060E-04   6.1090576E+05   -1.8480167E+00
   1.4258605E-04   6.0572685E+05   -1.8475288E+00
   1.4324453E-04   6.0059319E+05   -1.8470401E+00
   1.4390605E-04   5.9550439E+05   -1.8465505E+00
   1.4457062E-04   5.9046004E+05   -1.8460600E+00
   1.4523826E-04   5.8545974E+05   -1.8455686E+00
   1.4590899E-04   5.8050310E+05   -1.8450764E+00
   1.4658281E-04   5.7558973E+05   -1.8445833E+00
   1.4725974E-04   5.7071925E+05   -1.8440893E+00
   1.4793981E-04   5.6589127E+05   -1.8435945E+00
   1.4862301E-04   5.6110541E+05   -1.8430988E+00
   1.4930936E-04   5.5636130E+05   -1.8426023E+00
   1.4999889E-04   5.5165856E+05   -1.8421050E+00
   1.5069160E-04   5.4699682E+05   -1.8416067E+00
   1.5138751E-04   5.4237573E+05   -1.8411077E+00
   1.5208663E-04   5.3779491E+05   -1.8406078E+00
   1.5278899E-04   5.3325401E+05   -1.8401071E+00
   1.5349458E-04   5.2875268E+05   -1.8396055E+00
   1.5420343E-04   5.2429055E+05   -1.8391031E+00
   1.5491556E-04   5.1986729E+05   -1.8385999E+00
   1.5563098E-04   5.1548253E+05   -1.8380959E+00
   1.5634970E-04   5.1113595E+05   -1.8375910E+00
   1.5707174E-04   5.0682720E+05   -1.8370853E+00
   1.5779711E-04   5.0255594E+05   -1.8365789E+00
   1.5852584E-04   4.9832184E+05   -1.8360716E+00
   1.5925792E-04   4.9412457E+05   -1.8355635E+00
   1.5999339E-04   4.8996380E+05   -1.8350546E+00
   1.6073226E-04   4.8583921E+05   -1.8345449E+00
   1.6147454E-04   4.8175047E+05   -1.8340344E+00
   1.6222024E-04   4.7769726E+05   -1.8335231E+00
   1.6296939E-04   4.7367928E+05   -1.8330110E+00
   1.6372200E-04   4.6969620E+05   -1.8324982E+00
   1.6447809E-04   4.6574771E+05   -1.8319845E+00
   1.6523767E-04   4.6183351E+05   -1.8314701E+00
   1.6600075E-04   4.5795329E+05   -1.8309549E+00
   1.6676736E-04   4.5410675E+05   -1.8304389E+00
   1.6753751E-04   4.5029359E+05   -1.8299222E+00
   1.6831122E-04   4.4651352E+05   -1.8294047E+00
   1.6908849E-04   4.4276623E+05   -1.8288865E+00
   1.6986936E-04   4.3905144E+05   -1.8283675E+00
   1.7065384E-04   4.3536886E+05   -1.8278477E+00
   1.7144193E-04   4.3171820E+05   -1.8273272E+00
   1.7223367E-04   4.2809918E+05   -1.8268060E+00
   1.7302906E-04   4.2451152E+05   -1.8262840E+00
   1.7382813E-04   4.2095493E+05   -1.8257613E+00
   1.7463089E-04   4.1742915E+05   -1.8252379E+00
   1.7543735E-04   4.1393391E+05   -1.8247137E+00
   1.7624754E-04   4.1046892E+05   -1.8241888E+00
   1.7706147E-04   4.0703391E+05   -1.8236632E+00
   1.7787916E-04   4.0362864E+05   -1.8231369E+00
   1.7870062E-04   4.0025282E+05   -1.8226098E+00
   1.7952588E-04   3.9690620E+05   -1.8220821E+00
   1.8035495E-04   3.9358852E+05   -1.8215537E+00
   1.8118785E-04   3.9029953E+05   -1.8210245E+00
   1.8202459E-04   3.8703896E+05   -1.8204947E+00
   1.8286520E-04   3.8380657E+05   -1.8199642E+00
   1.8370969E-04   3.8060211E+05   -1.8194330E+00
   1.8455808E-04   3.7742532E+05   -1.8189011E+00
   1.8541039E-04   3.7427597E+05   -1.8183685E+00
   1.8626663E-04   3.7115381E+05   -1.8178353E+00
   1.8712683E-04   3.6805860E+05   -1.8173014E+00
   1.8799100E-04   3.6499010E+05   -1.8167668E+00
   1.8885917E-04   3.6194807E+05   -1.8162316E+00
   1.8973134E-04   3.5893228E+05   -1.8156957E+00
   1.9060754E-04   3.5594250E+05   -1.8151592E+00
   1.9148778E-04   3.5297850E+05   -1.8146220E+00
   1.9237209E-04   3.5004004E+05   -1.8140842E+00
   1.9326049E-04   3.4712691E+05   -1.8135457E+00
   1.9415299E-04   3.4423888E+05   -1.8130067E+00
   1.9504960E-04   3.4137572E+05   -1.8124669E+00
   1.9595036E-04   3.3853722E+05   -1.8119266E+00
   1.9685528E-04   3.3572316E+05   -1.8113857E+00
   1.9776438E-04   3.3293332E+05   -1.8108441E+00
   1.9867768E-04   3.3016749E+05   -1.8103019E+00
   1.9959519E-04   3.2742545E+05   -1.8097592E+00
   2.0051694E-04   3.2470700E+05   -1.8092158E+00
   2.0144295E-04   3.2201192E+05   -1.8086718E+00
   2.0237324E-04   3.1934001E+05   -1.8081273E+00
   2.0330782E-04   3.1669107E+05   -1.8075822E+00
   2.0424671E-04   3.1406489E+05   -1.8070364E+00
   2.0518995E-04   3.1146128E+05   -1.8064901E+00
   2.0613754E-04   3.0888002E+05   -1.8059433E+00
   2.0708950E-04   3.0632093E+05   -1.8053959E+00
   2.0804586E-04   3.0378381E+05   -1.8048479E+00
   2.0900664E-04   3.0126846E+05   -1.8042993E+00
   2.0997185E-04   2.9877470E+05   -1.8037503E+00
   2.1094152E-04   2.9630233E+05   -1.8032006E+00
   2.1191567E-04   2.9385116E+05   -1.8026505E+00
   2.1289432E-04   2.9142101E+05   -1.8020998E+00
   2.1387749E-04   2.8901168E+05   -1.8015485E+00
   2.1486520E-04   2.8662301E+05   -1.8009968E+00
   2.1585747E-04   2.8425480E+05   -1.8004445E+00
   2.1685432E-04   2.8190688E+05   -1.7998917E+00
   2.1785578E-04   2.7957906E+05   -1.7993384E+00
   2.1886186E-04   2.7727117E+05   -1.7987846E+00
   2.1987259E-04   2.7498304E+05   -1.7982303E+00
   2.2088798E-04   2.7271448E+05   -1.7976755E+00
   2.2190807E-04   2.7046533E+05   -1.7971202E+00
   2.2293286E-04   2.6823542E+05   -1.7965644E+00
   2.2396239E-04   2.6602457E+05   -1.7960082E+00
   2.2499667E-04   2.6383263E+05   -1.7954515E+00
   2.2603573E-04   2.6165941E+05   -1.7948943E+00
   2.2707958E-04   2.5950476E+05   -1.7943366E+00
   2.2812826E-04   2.5736852E+05   -1.7937785E+00
   2.2918178E-04   2.5525051E+05   -1.7932200E+00
   2.3024017E-04   2.5315059E+05   -1.7926610E+00
   2.3130344E-04   2.5106860E+05   -1.7921016E+00
   2.3237162E-04   2.4900436E+05   -1.7915417E+00
   2.3344474E-04   2.4695774E+05   -1.7909814E+00
   2.3452281E-04   2.4492857E+05   -1.7904207E+00
   2.3560586E-04   2.4291670E+05   -1.7898595E+00
   2.3669392E-04   2.4092198E+05   -1.7892979E+00
   2.3778699E-04   2.3894426E+05   -1.7887360E+00
   2.3888512E-04   2.3698339E+05   -1.7881736E+00
   2.3998831E-04   2.3503922E+05   -1.7876109E+00
   2.4109661E-04   2.3311160E+05   -1.7870477E+00
   2.4221001E-04   2.3120039E+05   -1.7864842E+00
   2.4332857E-04   2.2930545E+05   -1.7859202E+00
   2.4445228E-04   2.2742663E+05   -1.7853560E+00
   2.4558119E-04   2.2556379E+05   -1.7847913E+00
   2.4671531E-04   2.2371679E+05   -1.7842263E+00
   2.4785467E-04   2.2188549E+05   -1.7836609E+00
   2.4899928E-04   2.2006976E+05   -1.7830952E+00
   2.5014919E-04   2.1826945E+05   -1.7825291E+00
   2.5130440E-04   2.1648444E+05   -1.7819627E+00
   2.5246495E-04   2.1471458E+05   -1.7813959E+00
   2.5363086E-04   2.1295975E+05   -1.7808288E+00
   2.5480216E-04   2.1121982E+05   -1.7802614E+00
   2.5597886E-04   2.0949465E+05   -1.7796937E+00
   2.5716100E-04   2.0778411E+05   -1.7791257E+00
   2.5834859E-04   2.0608808E+05   -1.7785574E+00
   2.5954168E-04   2.0440642E+05   -1.7779887E+00
   2.6074027E-04   2.0273902E+05   -1.7774198E+00
   2.6194439E-04   2.0108575E+05   -1.7768506E+00
   2.6315408E-04   1.9944649E+05   -1.7762811E+00
   2.6436935E-04   1.9782111E+05   -1.7757113E+00
   2.6559024E-04   1.9620948E+05   -1.7751413E+00
   2.6681676E-04   1.9461150E+05   -1.7745709E+00
   2.6804895E-04   1.9302705E+05   -1.7740004E+00
   2.6928683E-04   1.9145599E+05   -1.7734296E+00
   2.7053042E-04   1.8989822E+05   -1.7728585E+00
   2.7177976E-04   1.8835362E+05   -1.7722872E+00
   2.7303487E-04   1.8682208E+05   -1.7717156E+00
   2.7429577E-04   1.8530348E+05   -1.7711439E+00
   2.7556250E-04   1.8379770E+05   -1.7705719E+00
   2.7683507E-04   1.8230465E+05   -1.7699996E+00
   2.7811353E-04   1.8082420E+05   -1.7694272E+00
   2.7939788E-04   1.7935624E+05   -1.7688546E+00
   2.8068817E-04   1.7790067E+05   -1.7682817E+00
   2.8198442E-04   1.7645738E+05   -1.7677087E+00
   2.8328665E-04   1.7502626E+05   -1.7671355E+00
   2.8459490E-04   1.7360721E+05   -1.7665621E+00
   2.8590919E-04   1.7220011E+05   -1.7659885E+00
   2.8722955E-04   1.7080487E+05   -1.7654148E+00
   2.8855600E-04   1.6942139E+05   -1.7648409E+00
   2.8988859E-04   1.6804955E+05   -1.7642668E+00
   2.9122732E-04   1.6668927E+05   -1.7636926E+00
   2.9257224E-04   1.6534043E+05   -1.7631183E+00
   2.9392337E-04   1.6400294E+05   -1.7625438E+00
   2.9528074E-04   1.6267670E+05   -1.7619691E+00
   2.9664438E-04   1.6136162E+05   -1.7613944E+00
   2.9801431E-04   1.6005759E+05   -1.7608195E+00
   2.9939057E-04   1.5876451E+05   -1.7602445E+00
   3.0077319E-04   1.5748231E+05   -1.7596694E+00
   3.0216219E-04   1.5621087E+05   -1.7590942E+00
   3.0355761E-04   1.5495010E+05   -1.7585189E+00
   3.0495947E-04   1.5369992E+05   -1.7579435E+00
   3.0636780E-04   1.5246023E+05   -1.7573680E+00
   3.0778264E-04   1.5123094E+05   -1.7567924E+00
   3.0920401E-04   1.5001196E+05   -1.7562168E+00
   3.1063195E-04   1.4880320E+05   -1.7556411E+00
   3.1206648E-04   1.4760457E+05   -1.7550654E+00
   3.1350764E-04   1.4641599E+05   -1.7544895E+00
   3.1495545E-04   1.4523736E+05   -1.7539137E+00
   3.1640994E-04   1.4406860E+05   -1.7533378E+00
   3.1787116E-04   1.4290963E+05   -1.7527618E+00
   3.1933912E-04   1.4176035E+05   -1.7521859E+00
   3.2081386E-04   1.4062069E+05   -1.7516099E+00
   3.2229541E-04   1.3949057E+05   -1.7510339E+00
   3.2378381E-04   1.3836989E+05   -1.7504578E+00
   3.2527908E-04   1.3725858E+05   -1.7498818E+00
   3.2678125E-04   1.3615656E+05   -1.7493058E+00
   3.2829036E-04   1.3506374E+05   -1.7487298E+00
   3.2980644E-04   1.3398005E+05   -1.7481538E+00
   3.3132952E-04   1.3290541E+05   -1.7475778E+00
   3.3285963E-04   1.3183974E+05   -1.7470018E+00
   3.3439681E-04   1.3078296E+05   -1.7464259E+00
   3.3594109E-04   1.2973500E+05   -1.7458500E+00
   3.3749250E-04   1.2869577E+05   -1.7452741E+00
   3.3905108E-04   1.2766521E+05   -1.7446983E+00
   3.4061685E-04   1.2664323E+05   -1.7441226E+00
   3.4218986E-04   1.2562977E+05   -1.7435469E+00
   3.4377013E-04   1.2462475E+05   -1.7429713E+00
   3.4535769E-04   1.2362810E+05   -1.7423957E+00
   3.4695259E-04   1.2263975E+05   -1.7418203E+00
   3.4855485E-04   1.2165961E+05   -1.7412449E+00
   3.5016452E-04   1.2068764E+05   -1.7406696E+00
   3.5178161E-04   1.1972374E+05   -1.7400944E+00
   3.5340618E-04   1.1876786E+05   -1.7395193E+00
   3.5503824E-04   1.1781992E+05   -1.7389444E+00
   3.5667785E-04   1.1687985E+05   -1.7383695E+00
   3.5832502E-04   1.1594760E+05   -1.7377948E+00
   3.5997981E-04   1.1502308E+05   -1.7372202E+00
   3.6164223E-04   1.1410624E+05   -1.7366457E+00
   3.6331233E-04   1.1319701E+05   -1.7360714E+00
   3.6499015E-04   1.1229532E+05   -1.7354972E+00
   3.6667571E-04   1.1140110E+05   -1.7349231E+00
   3.6836906E-04   1.1051430E+05   -1.7343493E+00
   3.7007022E-04   1.0963485E+05   -1.7337756E+00
   3.7177925E-04   1.0876268E+05   -1.7332020E+00
   3.7349616E-04   1.0789774E+05   -1.7326287E+00
   3.7522101E-04   1.0703996E+05   -1.7320555E+00
   3.7695382E-04   1.0618927E+05   -1.7314825E+00
   3.7869463E-04   1.0534563E+05   -1.7309097E+00
   3.8044348E-04   1.0450897E+05   -1.7303371E+00
   3.8220041E-04   1.0367922E+05   -1.7297647E+00
   3.8396545E-04   1.0285633E+05   -1.7291926E+00
   3.8573864E-04   1.0204024E+05   -1.7286206E+00
   3.8752002E-04   1.0123090E+05   -1.7280489E+00
   3.8930963E-04   1.0042824E+05   -1.7274774E+00
   3.9110750E-04   9.9632201E+04   -1.7269061E+00
   3.9291368E-04   9.8842736E+04   -1.7263351E+00
   3.9472820E-04   9.8059783E+04   -1.7257643E+00
   3.9655109E-04   9.7283289E+04   -1.7251938E+00
   3.9838241E-04   9.6513197E+04   -1.7246235E+00
   4.0022218E-04   9.5749452E+04   -1.7240535E+00
   4.0207045E-04   9.4992001E+04   -1.7234838E+00
   4.0392725E-04   9.4240790E+04   -1.7229144E+00
   4.0579263E-04   9.3495764E+04   -1.7223452E+00
   4.0766662E-04   9.2756871E+04   -1.7217763E+00
   4.0954927E-04   9.2024059E+04   -1.7212078E+00
   4.1144061E-04   9.1297275E+04   -1.7206395E+00
   4.1334068E-04   9.0576468E+04   -1.7200715E+00
   4.1524953E-04   8.9861587E+04   -1.7195039E+00
   4.1716720E-04   8.9152582E+04   -1.7189365E+00
   4.1909372E-04   8.8449402E+04   -1.7183695E+00
   4.2102914E-04   8.7751997E+04   -1.7178028E+00
   4.2297350E-04   8.7060318E+04   -1.7172365E+00
   4.2492683E-04   8.6374317E+04   -1.7166705E+00
   4.2688919E-04   8.5693944E+04   -1.7161048E+00
   4.2886061E-04   8.5019153E+04   -1.7155395E+00
   4.3084113E-04   8.4349894E+04   -1.7149745E+00
   4.3283080E-04   8.3686122E+04   -1.7144099E+00
   4.3482966E-04   8.3027789E+04   -1.7138457E+00
   4.3683775E-04   8.2374849E+04   -1.7132819E+00
   4.3885511E-04   8.1727256E+04   -1.7127184E+00
   4.4088179E-04   8.1084965E+04   -1.7121553E+00
   4.4291783E-04   8.0447929E+04   -1.7115926E+00
   4.4496327E-04   7.9816106E+04   -1.7110304E+00
   4.4701816E-04   7.9189450E+04   -1.7104685E+00
   4.4908253E-04   7.8567917E+04   -1.7099070E+00
   4.5115644E-04   7.7951463E+04   -1.7093459E+00
   4.5323993E-04   7.7340047E+04   -1.7087853E+00
   4.5533304E-04   7.6733625E+04   -1.7082251E+00
   4.5743582E-04   7.6132154E+04   -1.7076653E+00
   4.5954830E-04   7.5535592E+04   -1.7071059E+00
   4.6167054E-04   7.4943898E+04   -1.7065470E+00
   4.6380259E-04   7.4357030E+04   -1.7059885E+00
   4.6594448E-04   7.3774947E+04   -1.7054305E+00
   4.6809626E-04   7.3197610E+04   -1.7048729E+00
   4.7025797E-04   7.2624976E+04   -1.7043159E+00
   4.7242967E-04   7.2057008E+04   -1.7037592E+00
   4.7461140E-04   7.1493664E+04   -1.7032031E+00
   4.7680321E-04   7.0934907E+04   -1.7026474E+00
   4.7900514E-04   7.0380696E+04   -1.7020922E+00
   4.8121723E-04   6.9830995E+04   -1.7015375E+00
   4.8343954E-04   6.9285763E+04   -1.7009833E+00
   4.8567212E-04   6.8744964E+04   -1.7004296E+00
   4.8791500E-04   6.8208561E+04   -1.6998764E+00
   4.9016825E-04   6.7676515E+04   -1.6993237E+00
   4.9243189E-04   6.7148790E+04   -1.6987715E+00
   4.9470600E-04   6.6625349E+04   -1.6982198E+00
   4.9699060E-04   6.6106157E+04   -1.6976687E+00
   4.9928575E-04   6.5591178E+04   -1.6971181E+00
   5.0159151E-04   6.5080375E+04   -1.6965680E+00
   5.0390791E-04   6.4573713E+04   -1.6960185E+00
   5.0623501E-04   6.4071158E+04   -1.6954695E+00
   5.0857286E-04   6.3572675E+04   -1.6949211E+00
   5.1092150E-04   6.3078230E+04   -1.6943732E+00
   5.1328099E-04   6.2587788E+04   -1.6938259E+00
   5.1565137E-04   6.2101316E+04   -1.6932791E+00
   5.1803270E-04   6.1618781E+04   -1.6927329E+00
   5.2042503E-04   6.1140148E+04   -1.6921873E+00
   5.2282841E-04   6.0665386E+04   -1.6916423E+00
   5.2524289E-04   6.0194462E+04   -1.6910978E+00
   5.2766851E-04   5.9727342E+04   -1.6905540E+00
   5.3010534E-04   5.9263996E+04   -1.6900107E+00
   5.3255342E-04   5.8804392E+04   -1.6894681E+00
   5.3501281E-04   5.8348498E+04   -1.6889260E+00
   5.3748356E-04   5.7896283E+04   -1.6883845E+00
   5.3996571E-04   5.7447715E+04   -1.6878437E+00
   5.4245933E-04   5.7002766E+04   -1.6873035E+00
   5.4496446E-04   5.6561403E+04   -1.6867639E+00
   5.4748117E-04   5.6123597E+04   -1.6862249E+00
   5.5000949E-04   5.5689318E+04   -1.6856866E+00
   5.5254949E-04   5.5258536E+04   -1.6851489E+00
   5.5510123E-04   5.4831223E+04   -1.6846118E+00
   5.5766474E-04   5.4407348E+04   -1.6840754E+00
   5.6024010E-04   5.3986884E+04   -1.6835397E+00
   5.6282734E-04   5.3569801E+04   -1.6830045E+00
   5.6542654E-04   5.3156071E+04   -1.6824701E+00
   5.6803774E-04   5.2745666E+04   -1.6819363E+00
   5.7066099E-04   5.2338559E+04   -1.6814032E+00
   5.7329637E-04   5.1934721E+04   -1.6808707E+00
   5.7594391E-04   5.1534126E+04   -1.6803390E+00
   5.7860368E-04   5.1136746E+04   -1.6798079E+00
   5.8127573E-04   5.0742554E+04   -1.6792775E+00
   5.8396012E-04   5.0351524E+04   -1.6787478E+00
   5.8665691E-04   4.9963629E+04   -1.6782187E+00
   5.8936616E-04   4.9578843E+04   -1.6776904E+00
   5.9208791E-04   4.9197140E+04   -1.6771628E+00
   5.9482223E-04   4.8818494E+04   -1.6766359E+00
   5.9756919E-04   4.8442880E+04   -1.6761097E+00
   6.0032882E-04   4.8070272E+04   -1.6755842E+00
   6.0310120E-04   4.7700646E+04   -1.6750594E+00
   6.0588639E-04   4.7333977E+04   -1.6745354E+00
   6.0868443E-04   4.6970239E+04   -1.6740121E+00
   6.1149540E-04   4.6609409E+04   -1.6734895E+00
   6.1431935E-04   4.6251462E+04   -1.6729676E+00
   6.1715634E-04   4.5896374E+04   -1.6724465E+00
   6.2000644E-04   4.5544122E+04   -1.6719261E+00
   6.2286969E-04   4.5194681E+04   -1.6714065E+00
