#        a       HoverH0(a)       dlogHdloga_of_a(a)
   1.0000000E-04   1.1950004E+06   -1.8740510E+00
   1.0046181E-04   1.1847276E+06   -1.8736164E+00
   1.0092575E-04   1.1745455E+06   -1.8731807E+00
   1.0139184E-04   1.1644532E+06   -1.8727441E+00
   1.0186008E-04   1.1544500E+06   -1.8723065E+00
   1.0233048E-04   1.1445350E+06   -1.8718679E+00
   1.0280305E-04   1.1347075E+06   -1.8714283E+00
   1.0327781E-04   1.1249666E+06   -1.8709877E+00
   1.0375475E-04   1.1153116E+06   -1.8705462E+00
   1.0423390E-04   1.1057417E+06   -1.8701037E+00
   1.0471527E-04   1.0962562E+06   -1.8696601E+00
   1.0519885E-04   1.0868543E+06   -1.8692157E+00
   1.0568467E-04   1.0775352E+06   -1.8687702E+00
   1.0617274E-04   1.0682982E+06   -1.8683237E+00
   1.0666305E-04   1.0591426E+06   -1.8678763E+00
   1.0715563E-04   1.0500676E+06   -1.8674279E+00
   1.0765049E-04   1.0410725E+06   -1.8669785E+00
   1.0814763E-04   1.0321566E+06   -1.8665282E+00
   1.0864707E-04   1.0233192E+06   -1.8660769E+00
   1.0914881E-04   1.0145596E+06   -1.8656246E+00
   1.0965287E-04   1.0058770E+06   -1.8651714E+00
   1.1015926E-04   9.9727089E+05   -1.8647172E+00
   1.1066799E-04   9.8874044E+05   -1.8642620E+00
   1.1117906E-04   9.8028502E+05   -1.8638059E+00
   1.1169250E-04   9.7190395E+05   -1.8633488E+00
   1.1220831E-04   9.6359656E+05   -1.8628908E+00
   1.1272650E-04   9.5536220E+05   -1.8624318E+00
   1.1324708E-04   9.4720021E+05   -1.8619719E+00
   1.1377007E-04   9.3910995E+05   -1.8615110E+00
   1.1429547E-04   9.3109077E+05   -1.8610491E+00
   1.1482330E-04   9.2314203E+05   -1.8605863E+00
   1.1535356E-04   9.1526310E+05   -1.8601226E+00
   1.1588628E-04   9.0745336E+05   -1.8596579E+00
   1.1642145E-04   8.9971218E+05   -1.8591923E+00
   1.1695910E-04   8.9203896E+05   -1.8587258E+00
   1.1749923E-04   8.8443308E+05   -1.8582583E+00
   1.1804185E-04   8.7689395E+05   -1.8577899E+00
   1.1858698E-04   8.6942095E+05   -1.8573205E+00
   1.1913463E-04   8.6201351E+05   -1.8568502E+00
   1.1968481E-04   8.5467104E+05   -1.8563790E+00
   1.2023752E-04   8.4739294E+05   -1.8559069E+00
   1.2079279E-04   8.4017866E+05   -1.8554338E+00
   1.2135063E-04   8.3302761E+05   -1.8549599E+00
   1.2191104E-04   8.2593923E+05   -1.8544850E+00
   1.2247403E-04   8.1891297E+05   -1.8540092E+00
   1.2303963E-04   8.1194825E+05   -1.8535324E+00
   1.2360784E-04   8.0504454E+05   -1.8530548E+00
   1.2417868E-04   7.9820129E+05   -1.8525763E+00
   1.2475215E-04   7.9141795E+05   -1.8520968E+00
   1.2532826E-04   7.8469400E+05   -1.8516165E+00
   1.2590704E-04   7.7802890E+05   -1.8511352E+00
   1.2648850E-04   7.7142212E+05   -1.8506531E+00
   1.2707263E-04   7.6487314E+05   -1.8501700E+00
   1.2765947E-04   7.5838145E+05   -1.8496861E+00
   1.2824901E-04   7.5194654E+05   -1.8492013E+00
   1.2884128E-04   7.4556790E+05   -1.8487155E+00
   1.2943628E-04   7.3924502E+05   -1.8482289E+00
   1.3003403E-04   7.3297741E+05   -1.8477415E+00
   1.3063454E-04   7.2676457E+05   -1.8472531E+00
   1.3123783E-04   7.2060601E+05   -1.8467639E+00
   1.3184390E-04   7.1450126E+05   -1.8462737E+00
   1.3245277E-04   7.0844982E+05   -1.8457828E+00
   1.3306445E-04   7.0245122E+05   -1.8452909E+00
   1.3367895E-04   6.9650500E+05   -1.8447982E+00
   1.3429630E-04   6.9061068E+05   -1.8443046E+00
   1.3491649E-04   6.8476779E+05   -1.8438102E+00
   1.3553955E-04   6.7897590E+05   -1.8433149E+00
   1.3616548E-04   6.7323453E+05   -1.8428188E+00
   1.3679431E-04   6.6754323E+05   -1.8423218E+00
   1.3742604E-04   6.6190156E+05   -1.8418239E+00
   1.3806069E-04   6.5630909E+05   -1.8413253E+00
   1.3869827E-04   6.5076535E+05   -1.8408257E+00
   1.3933879E-04   6.4526994E+05   -1.8403254E+00
   1.3998227E-04   6.3982240E+05   -1.8398242E+00
   1.4062872E-04   6.3442232E+05   -1.8393222E+00
   1.4127816E-04   6.2906927E+05   -1.8388193E+00
   1.4193060E-04   6.2376284E+05   -1.8383156E+00
   1.4258605E-04   6.1850260E+05   -1.8378111E+00
   1.4324453E-04   6.1328815E+05   -1.8373058E+00
   1.4390605E-04   6.0811908E+05   -1.8367997E+00
   1.4457062E-04   6.0299499E+05   -1.8362928E+00
   1.4523826E-04   5.9791547E+05   -1.8357850E+00
   1.4590899E-04   5.9288012E+05   -1.8352765E+00
   1.4658281E-04   5.8788856E+05   -1.8347671E+00
   1.4725974E-04   5.8294039E+05   -1.8342570E+00
   1.4793981E-04   5.7803524E+05   -1.8337460E+00
   1.4862301E-04   5.7317270E+05   -1.8332343E+00
   1.4930936E-04   5.6835241E+05   -1.8327218E+00
   1.4999889E-04   5.6357399E+05   -1.8322085E+00
   1.5069160E-04   5.5883707E+05   -1.8316944E+00
   1.5138751E-04   5.5414128E+05   -1.8311796E+00
   1.5208663E-04   5.4948624E+05   -1.8306640E+00
   1.5278899E-04   5.4487161E+05   -1.8301476E+00
   1.5349458E-04   5.4029702E+05   -1.8296304E+00
   1.5420343E-04   5.3576211E+05   -1.8291125E+00
   1.5491556E-04   5.3126654E+05   -1.8285939E+00
   1.5563098E-04   5.2680995E+05   -1.8280744E+00
   1.5634970E-04   5.2239199E+05   -1.8275543E+00
   1.5707174E-04   5.1801233E+05   -1.8270334E+00
   1.5779711E-04   5.1367061E+05   -1.8265117E+00
   1.5852584E-04   5.0936652E+05   -1.8259893E+00
   1.5925792E-04   5.0509970E+05   -1.8254662E+00
   1.5999339E-04   5.0086983E+05   -1.8249424E+00
   1.6073226E-04   4.9667659E+05   -1.8244178E+00
   1.6147454E-04   4.9251964E+05   -1.8238925E+00
   1.6222024E-04   4.8839867E+05   -1.8233665E+00
   1.6296939E-04   4.8431335E+05   -1.8228398E+00
   1.6372200E-04   4.8026337E+05   -1.8223123E+00
   1.6447809E-04   4.7624842E+05   -1.8217842E+00
   1.6523767E-04   4.7226818E+05   -1.8212554E+00
   1.6600075E-04   4.6832235E+05   -1.8207259E+00
   1.6676736E-04   4.6441061E+05   -1.8201956E+00
   1.6753751E-04   4.6053268E+05   -1.8196647E+00
   1.6831122E-04   4.5668825E+05   -1.8191332E+00
   1.6908849E-04   4.5287702E+05   -1.8186009E+00
   1.6986936E-04   4.4909870E+05   -1.8180680E+00
   1.7065384E-04   4.4535299E+05   -1.8175344E+00
   1.7144193E-04   4.4163961E+05   -1.8170001E+00
   1.7223367E-04   4.3795827E+05   -1.8164651E+00
   1.7302906E-04   4.3430870E+05   -1.8159296E+00
   1.7382813E-04   4.3069059E+05   -1.8153933E+00
   1.7463089E-04   4.2710369E+05   -1.8148564E+00
   1.7543735E-04   4.2354770E+05   -1.8143189E+00
   1.7624754E-04   4.2002237E+05   -1.8137807E+00
   1.7706147E-04   4.1652740E+05   -1.8132419E+00
   1.7787916E-04   4.1306255E+05   -1.8127025E+00
   1.7870062E-04   4.0962754E+05   -1.8121625E+00
   1.7952588E-04   4.0622210E+05   -1.8116218E+00
   1.8035495E-04   4.0284598E+05   -1.8110805E+00
   1.8118785E-04   3.9949891E+05   -1.8105386E+00
   1.8202459E-04   3.9618064E+05   -1.8099961E+00
   1.8286520E-04   3.9289092E+05   -1.8094530E+00
   1.8370969E-04   3.8962949E+05   -1.8089093E+00
   1.8455808E-04   3.8639610E+05   -1.8083650E+00
   1.8541039E-04   3.8319051E+05   -1.8078202E+00
   1.8626663E-04   3.8001246E+05   -1.8072747E+00
   1.8712683E-04   3.7686172E+05   -1.8067287E+00
   1.8799100E-04   3.7373805E+05   -1.8061821E+00
   1.8885917E-04   3.7064119E+05   -1.8056349E+00
   1.8973134E-04   3.6757093E+05   -1.8050872E+00
   1.9060754E-04   3.6452702E+05   -1.8045389E+00
   1.9148778E-04   3.6150923E+05   -1.8039900E+00
   1.9237209E-04   3.5851733E+05   -1.8034407E+00
   1.9326049E-04   3.5555109E+05   -1.8028907E+00
   1.9415299E-04   3.5261029E+05   -1.8023403E+00
   1.9504960E-04   3.4969470E+05   -1.8017893E+00
   1.9595036E-04   3.4680410E+05   -1.8012377E+00
   1.9685528E-04   3.4393827E+05   -1.8006857E+00
   1.9776438E-04   3.4109698E+05   -1.8001331E+00
   1.9867768E-04   3.3828003E+05   -1.7995801E+00
   1.9959519E-04   3.3548720E+05   -1.7990265E+00
   2.0051694E-04   3.3271828E+05   -1.7984724E+00
   2.0144295E-04   3.2997305E+05   -1.7979178E+00
   2.0237324E-04   3.2725131E+05   -1.7973628E+00
   2.0330782E-04   3.2455285E+05   -1.7968072E+00
   2.0424671E-04   3.2187746E+05   -1.7962512E+00
   2.0518995E-04   3.1922495E+05   -1.7956947E+00
   2.0613754E-04   3.1659510E+05   -1.7951377E+00
   2.0708950E-04   3.1398773E+05   -1.7945803E+00
   2.0804586E-04   3.1140264E+05   -1.7940224E+00
   2.0900664E-04   3.0883962E+05   -1.7934640E+00
   2.0997185E-04   3.0629848E+05   -1.7929053E+00
   2.1094152E-04   3.0377903E+05   -1.7923460E+00
   2.1191567E-04   3.0128109E+05   -1.7917863E+00
   2.1289432E-04   2.9880445E+05   -1.7912262E+00
   2.1387749E-04   2.9634894E+05   -1.7906657E+00
   2.1486520E-04   2.9391437E+05   -1.7901047E+00
   2.1585747E-04   2.9150055E+05   -1.7895434E+00
   2.1685432E-04   2.8910730E+05   -1.7889816E+00
   2.1785578E-04   2.8673445E+05   -1.7884194E+00
   2.1886186E-04   2.8438181E+05   -1.7878568E+00
   2.1987259E-04   2.8204920E+05   -1.7872939E+00
   2.2088798E-04   2.7973645E+05   -1.7867305E+00
   2.2190807E-04   2.7744338E+05   -1.7861668E+00
   2.2293286E-04   2.7516983E+05   -1.7856026E+00
   2.2396239E-04   2.7291562E+05   -1.7850382E+00
   2.2499667E-04   2.7068058E+05   -1.7844733E+00
   2.2603573E-04   2.6846454E+05   -1.7839081E+00
   2.2707958E-04   2.6626734E+05   -1.7833425E+00
   2.2812826E-04   2.6408880E+05   -1.7827766E+00
   2.2918178E-04   2.6192878E+05   -1.7822104E+00
   2.3024017E-04   2.5978710E+05   -1.7816438E+00
   2.3130344E-04   2.5766360E+05   -1.7810768E+00
   2.3237162E-04   2.5555813E+05   -1.7805096E+00
   2.3344474E-04   2.5347053E+05   -1.7799420E+00
   2.3452281E-04   2.5140064E+05   -1.7793741E+00
   2.3560586E-04   2.4934831E+05   -1.7788059E+00
   2.3669392E-04   2.4731337E+05   -1.7782374E+00
   2.3778699E-04   2.4529569E+05   -1.7776687E+00
   2.3888512E-04   2.4329510E+05   -1.7770996E+00
   2.3998831E-04   2.4131147E+05   -1.7765302E+00
   2.4109661E-04   2.3934463E+05   -1.7759606E+00
   2.4221001E-04   2.3739445E+05   -1.7753906E+00
   2.4332857E-04   2.3546078E+05   -1.7748205E+00
   2.4445228E-04   2.3354347E+05   -1.7742500E+00
   2.4558119E-04   2.3164238E+05   -1.7736793E+00
   2.4671531E-04   2.2975738E+05   -1.7731084E+00
   2.4785467E-04   2.2788831E+05   -1.7725372E+00
   2.4899928E-04   2.2603504E+05   -1.7719657E+00
   2.5014919E-04   2.2419743E+05   -1.7713941E+00
   2.5130440E-04   2.2237535E+05   -1.7708222E+00
   2.5246495E-04   2.2056866E+05   -1.7702501E+00
   2.5363086E-04   2.1877722E+05   -1.7696778E+00
   2.5480216E-04   2.1700091E+05   -1.7691052E+00
   2.5597886E-04   2.1523959E+05   -1.7685325E+00
   2.5716100E-04   2.1349312E+05   -1.7679596E+00
   2.5834859E-04   2.1176139E+05   -1.7673864E+00
   2.5954168E-04   2.1004425E+05   -1.7668131E+00
   2.6074027E-04   2.0834159E+05   -1.7662397E+00
   2.6194439E-04   2.0665328E+05   -1.7656660E+00
   2.6315408E-04   2.0497920E+05   -1.7650922E+00
   2.6436935E-04   2.0331921E+05   -1.7645182E+00
   2.6559024E-04   2.0167320E+05   -1.7639441E+00
   2.6681676E-04   2.0004104E+05   -1.7633698E+00
   2.6804895E-04   1.9842262E+05   -1.7627954E+00
   2.6928683E-04   1.9681781E+05   -1.7622208E+00
   2.7053042E-04   1.9522650E+05   -1.7616461E+00
   2.7177976E-04   1.9364857E+05   -1.7610713E+00
   2.7303487E-04   1.9208390E+05   -1.7604964E+00
   2.7429577E-04   1.9053237E+05   -1.7599213E+00
   2.7556250E-04   1.8899388E+05   -1.7593462E+00
   2.7683507E-04   1.8746831E+05   -1.7587709E+00
   2.7811353E-04   1.8595555E+05   -1.7581956E+00
   2.7939788E-04   1.8445548E+05   -1.7576201E+00
   2.8068817E-04   1.8296800E+05   -1.7570446E+00
   2.8198442E-04   1.8149300E+05   -1.7564691E+00
   2.8328665E-04   1.8003036E+05   -1.7558934E+00
   2.8459490E-04   1.7857999E+05   -1.7553177E+00
   2.8590919E-04   1.7714177E+05   -1.7547419E+00
   2.8722955E-04   1.7571560E+05   -1.7541661E+00
   2.8855600E-04   1.7430137E+05   -1.7535902E+00
   2.8988859E-04   1.7289898E+05   -1.7530143E+00
   2.9122732E-04   1.7150834E+05   -1.7524384E+00
   2.9257224E-04   1.7012933E+05   -1.7518624E+00
   2.9392337E-04   1.6876185E+05   -1.7512864E+00
   2.9528074E-04   1.6740581E+05   -1.7507104E+00
   2.9664438E-04   1.6606111E+05   -1.7501344E+00
   2.9801431E-04   1.6472765E+05   -1.7495584E+00
   2.9939057E-04   1.6340532E+05   -1.7489824E+00
   3.0077319E-04   1.6209405E+05   -1.7484064E+00
   3.0216219E-04   1.6079372E+05   -1.7478304E+00
   3.0355761E-04   1.5950425E+05   -1.7472544E+00
   3.0495947E-04   1.5822553E+05   -1.7466785E+00
   3.0636780E-04   1.5695749E+05   -1.7461026E+00
   3.0778264E-04   1.5570002E+05   -1.7455267E+00
   3.0920401E-04   1.5445303E+05   -1.7449509E+00
   3.1063195E-04   1.5321644E+05   -1.7443752E+00
   3.1206648E-04   1.5199015E+05   -1.7437995E+00
   3.1350764E-04   1.5077408E+05   -1.7432238E+00
   3.1495545E-04   1.4956813E+05   -1.7426483E+00
   3.1640994E-04   1.4837222E+05   -1.7420728E+00
   3.1787116E-04   1.4718627E+05   -1.7414974E+00
   3.1933912E-04   1.4601018E+05   -1.7409221E+00
   3.2081386E-04   1.4484387E+05   -1.7403469E+00
   3.2229541E-04   1.4368726E+05   -1.7397718E+00
   3.2378381E-04   1.4254026E+05   -1.7391968E+00
   3.2527908E-04   1.4140279E+05   -1.7386219E+00
   3.2678125E-04   1.4027477E+05   -1.7380471E+00
   3.2829036E-04   1.3915612E+05   -1.7374725E+00
   3.2980644E-04   1.3804676E+05   -1.7368979E+00
   3.3132952E-04   1.3694660E+05   -1.7363236E+00
   3.3285963E-04   1.3585557E+05   -1.7357493E+00
   3.3439681E-04   1.3477359E+05   -1.7351753E+00
   3.3594109E-04   1.3370057E+05   -1.7346013E+00
   3.3749250E-04   1.3263646E+05   -1.7340276E+00
   3.3905108E-04   1.3158115E+05   -1.7334540E+00
   3.4061685E-04   1.3053459E+05   -1.7328806E+00
   3.4218986E-04   1.2949670E+05   -1.7323073E+00
   3.4377013E-04   1.2846740E+05   -1.7317343E+00
   3.4535769E-04   1.2744661E+05   -1.7311614E+00
   3.4695259E-04   1.2643427E+05   -1.7305887E+00
   3.4855485E-04   1.2543031E+05   -1.7300163E+00
   3.5016452E-04   1.2443464E+05   -1.7294440E+00
   3.5178161E-04   1.2344720E+05   -1.7288720E+00
   3.5340618E-04   1.2246792E+05   -1.7283002E+00
   3.5503824E-04   1.2149673E+05   -1.7277286E+00
   3.5667785E-04   1.2053356E+05   -1.7271573E+00
   3.5832502E-04   1.1957833E+05   -1.7265862E+00
   3.5997981E-04   1.1863099E+05   -1.7260153E+00
   3.6164223E-04   1.1769147E+05   -1.7254447E+00
   3.6331233E-04   1.1675969E+05   -1.7248743E+00
   3.6499015E-04   1.1583560E+05   -1.7243042E+00
   3.6667571E-04   1.1491912E+05   -1.7237344E+00
   3.6836906E-04   1.1401018E+05   -1.7231649E+00
   3.7007022E-04   1.1310874E+05   -1.7225956E+00
   3.7177925E-04   1.1221472E+05   -1.7220266E+00
   3.7349616E-04   1.1132805E+05   -1.7214579E+00
   3.7522101E-04   1.1044868E+05   -1.7208895E+00
   3.7695382E-04   1.0957655E+05   -1.7203215E+00
   3.7869463E-04   1.0871158E+05   -1.7197537E+00
   3.8044348E-04   1.0785373E+05   -1.7191862E+00
   3.8220041E-04   1.0700292E+05   -1.7186191E+00
   3.8396545E-04   1.0615910E+05   -1.7180523E+00
   3.8573864E-04   1.0532221E+05   -1.7174858E+00
   3.8752002E-04   1.0449220E+05   -1.7169197E+00
   3.8930963E-04   1.0366899E+05   -1.7163539E+00
   3.9110750E-04   1.0285254E+05   -1.7157884E+00
   3.9291368E-04   1.0204278E+05   -1.7152233E+00
   3.9472820E-04   1.0123966E+05   -1.7146586E+00
   3.9655109E-04   1.0044312E+05   -1.7140943E+00
   3.9838241E-04   9.9653114E+04   -1.7135303E+00
   4.0022218E-04   9.8869574E+04   -1.7129667E+00
   4.0207045E-04   9.8092450E+04   -1.7124034E+00
   4.0392725E-04   9.7321686E+04   -1.7118406E+00
   4.0579263E-04   9.6557229E+04   -1.7112782E+00
   4.0766662E-04   9.5799025E+04   -1.7107161E+00
   4.0954927E-04   9.5047021E+04   -1.7101545E+00
   4.1144061E-04   9.4301163E+04   -1.7095933E+00
   4.1334068E-04   9.3561400E+04   -1.7090325E+00
   4.1524953E-04   9.2827681E+04   -1.7084721E+00
   4.1716720E-04   9.2099952E+04   -1.7079121E+00
   4.1909372E-04   9.1378165E+04   -1.7073526E+00
   4.2102914E-04   9.0662268E+04   -1.7067935E+00
   4.2297350E-04   8.9952211E+04   -1.7062349E+00
   4.2492683E-04   8.9247945E+04   -1.7056767E+00
   4.2688919E-04   8.8549420E+04   -1.7051189E+00
   4.2886061E-04   8.7856589E+04   -1.7045617E+00
   4.3084113E-04   8.7169402E+04   -1.7040049E+00
   4.3283080E-04   8.6487812E+04   -1.7034485E+00
   4.3482966E-04   8.5811771E+04   -1.7028927E+00
   4.3683775E-04   8.5141232E+04   -1.7023373E+00
   4.3885511E-04   8.4476149E+04   -1.7017824E+00
   4.4088179E-04   8.3816476E+04   -1.7012280E+00
   4.4291783E-04   8.3162166E+04   -1.7006741E+00
   4.4496327E-04   8.2513174E+04   -1.7001207E+00
   4.4701816E-04   8.1869456E+04   -1.6995678E+00
   4.4908253E-04   8.1230967E+04   -1.6990154E+00
   4.5115644E-04   8.0597662E+04   -1.6984635E+00
   4.5323993E-04   7.9969498E+04   -1.6979122E+00
   4.5533304E-04   7.9346431E+04   -1.6973614E+00
   4.5743582E-04   7.8728419E+04   -1.6968111E+00
   4.5954830E-04   7.8115417E+04   -1.6962614E+00
   4.6167054E-04   7.7507386E+04   -1.6957122E+00
   4.6380259E-04   7.6904281E+04   -1.6951635E+00
   4.6594448E-04   7.6306062E+04   -1.6946154E+00
   4.6809626E-04   7.5712688E+04   -1.6940679E+00
   4.7025797E-04   7.5124117E+04   -1.6935209E+00
   4.7242967E-04   7.4540309E+04   -1.6929745E+00
   4.7461140E-04   7.3961225E+04   -1.6924287E+00
   4.7680321E-04   7.3386823E+04   -1.6918834E+00
   4.7900514E-04   7.2817065E+04   -1.6913387E+00
   4.8121723E-04   7.2251913E+04   -1.6907946E+00
   4.8343954E-04   7.1691326E+04   -1.6902511E+00
   4.8567212E-04   7.1135266E+04   -1.6897082E+00
   4.8791500E-04   7.0583696E+04   -1.6891660E+00
   4.9016825E-04   7.0036578E+04   -1.6886243E+00
   4.9243189E-04   6.9493874E+04   -1.6880832E+00
   4.9470600E-04   6.8955547E+04   -1.6875427E+00
   4.9699060E-04   6.8421560E+04   -1.6870029E+00
   4.9928575E-04   6.7891878E+04   -1.6864637E+00
   5.0159151E-04   6.7366463E+04   -1.6859251E+00
   5.0390791E-04   6.6845280E+04   -1.6853871E+00
   5.0623501E-04   6.6328293E+04   -1.6848498E+00
   5.0857286E-04   6.5815468E+04   -1.6843132E+00
   5.1092150E-04   6.5306769E+04   -1.6837771E+00
   5.1328099E-04   6.4802162E+04   -1.6832418E+00
   5.1565137E-04   6.4301613E+04   -1.6827071E+00
   5.1803270E-04   6.3805086E+04   -1.6821730E+00
   5.2042503E-04   6.3312550E+04   -1.6816396E+00
   5.2282841E-04   6.2823970E+04   -1.6811069E+00
   5.2524289E-04   6.2339313E+04   -1.6805749E+00
   5.2766851E-04   6.1858547E+04   -1.6800435E+00
   5.3010534E-04   6.1381639E+04   -1.6795129E+00
   5.3255342E-04   6.0908556E+04   -1.6789829E+00
   5.3501281E-04   6.0439267E+04   -1.6784536E+00
   5.3748356E-04   5.9973739E+04   -1.6779250E+00
   5.3996571E-04   5.9511943E+04   -1.6773971E+00
   5.4245933E-04   5.9053845E+04   -1.6768699E+00
   5.4496446E-04   5.8599417E+04   -1.6763434E+00
   5.4748117E-04   5.8148626E+04   -1.6758176E+00
   5.5000949E-04   5.7701442E+04   -1.6752926E+00
   5.5254949E-04   5.7257836E+04   -1.6747683E+00
   5.5510123E-04   5.6817778E+04   -1.6742446E+00
   5.5766474E-04   5.6381237E+04   -1.6737218E+00
   5.6024010E-04   5.5948186E+04   -1.6731996E+00
   5.6282734E-04   5.5518594E+04   -1.6726782E+00
   5.6542654E-04   5.5092432E+04   -1.6721576E+00
   5.6803774E-04   5.4669673E+04   -1.6716376E+00
   5.7066099E-04   5.4250288E+04   -1.6711185E+00
   5.7329637E-04   5.3834249E+04   -1.6706001E+00
   5.7594391E-04   5.3421528E+04   -1.6700824E+00
   5.7860368E-04   5.3012098E+04   -1.6695655E+00
   5.8127573E-04   5.2605930E+04   -1.6690494E+00
   5.8396012E-04   5.2202999E+04   -1.6685340E+00
   5.8665691E-04   5.1803277E+04   -1.6680194E+00
   5.8936616E-04   5.1406737E+04   -1.6675056E+00
   5.9208791E-04   5.1013353E+04   -1.6669925E+00
   5.9482223E-04   5.0623099E+04   -1.6664803E+00
   5.9756919E-04   5.0235949E+04   -1.6659688E+00
   6.0032882E-04   4.9851878E+04   -1.6654581E+00
   6.0310120E-04   4.9470859E+04   -1.6649482E+00
   6.0588639E-04   4.9092867E+04   -1.6644392E+00
   6.0868443E-04   4.8717878E+04   -1.6639309E+00
   6.1149540E-04   4.8345866E+04   -1.6634234E+00
   6.1431935E-04   4.7976807E+04   -1.6629167E+00
   6.1715634E-04   4.7610676E+04   -1.6624108E+00
   6.2000644E-04   4.7247449E+04   -1.6619058E+00
   6.2286969E-04   4.6887103E+04   -1.6614016E+00
