#        a       HoverH0(a)       dlogHdloga_of_a(a)
   1.0000000E-04   1.1826003E+06   -1.8718815E+00
   1.0046181E-04   1.1724458E+06   -1.8714419E+00
   1.0092575E-04   1.1623809E+06   -1.8710014E+00
   1.0139184E-04   1.1524047E+06   -1.8705599E+00
   1.0186008E-04   1.1425165E+06   -1.8701174E+00
   1.0233048E-04   1.1327154E+06   -1.8696739E+00
   1.0280305E-04   1.1230007E+06   -1.8692294E+00
   1.0327781E-04   1.1133717E+06   -1.8687840E+00
   1.0375475E-04   1.1038274E+06   -1.8683376E+00
   1.0423390E-04   1.0943672E+06   -1.8678902E+00
   1.0471527E-04   1.0849903E+06   -1.8674418E+00
   1.0519885E-04   1.0756960E+06   -1.8669925E+00
   1.0568467E-04   1.0664836E+06   -1.8665422E+00
   1.0617274E-04   1.0573522E+06   -1.8660909E+00
   1.0666305E-04   1.0483012E+06   -1.8656387E+00
   1.0715563E-04   1.0393298E+06   -1.8651855E+00
   1.0765049E-04   1.0304374E+06   -1.8647313E+00
   1.0814763E-04   1.0216231E+06   -1.8642761E+00
   1.0864707E-04   1.0128865E+06   -1.8638201E+00
   1.0914881E-04   1.0042266E+06   -1.8633630E+00
   1.0965287E-04   9.9564286E+05   -1.8629050E+00
   1.1015926E-04   9.8713459E+05   -1.8624460E+00
   1.1066799E-04   9.7870110E+05   -1.8619861E+00
   1.1117906E-04   9.7034171E+05   -1.8615253E+00
   1.1169250E-04   9.6205577E+05   -1.8610635E+00
   1.1220831E-04   9.5384262E+05   -1.8606007E+00
   1.1272650E-04   9.4570160E+05   -1.8601370E+00
   1.1324708E-04   9.3763207E+05   -1.8596724E+00
   1.1377007E-04   9.2963339E+05   -1.8592068E+00
   1.1429547E-04   9.2170492E+05   -1.8587403E+00
   1.1482330E-04   9.1384604E+05   -1.8582728E+00
   1.1535356E-04   9.0605612E+05   -1.8578044E+00
   1.1588628E-04   8.9833454E+05   -1.8573351E+00
   1.1642145E-04   8.9068070E+05   -1.8568648E+00
   1.1695910E-04   8.8309398E+05   -1.8563937E+00
   1.1749923E-04   8.7557379E+05   -1.8559216E+00
   1.1804185E-04   8.6811953E+05   -1.8554485E+00
   1.1858698E-04   8.6073061E+05   -1.8549746E+00
   1.1913463E-04   8.5340644E+05   -1.8544997E+00
   1.1968481E-04   8.4614645E+05   -1.8540239E+00
   1.2023752E-04   8.3895006E+05   -1.8535472E+00
   1.2079279E-04   8.3181671E+05   -1.8530696E+00
   1.2135063E-04   8.2474583E+05   -1.8525911E+00
   1.2191104E-04   8.1773685E+05   -1.8521117E+00
   1.2247403E-04   8.1078924E+05   -1.8516314E+00
   1.2303963E-04   8.0390243E+05   -1.8511502E+00
   1.2360784E-04   7.9707589E+05   -1.8506680E+00
   1.2417868E-04   7.9030907E+05   -1.8501850E+00
   1.2475215E-04   7.8360145E+05   -1.8497011E+00
   1.2532826E-04   7.7695249E+05   -1.8492163E+00
   1.2590704E-04   7.7036167E+05   -1.8487306E+00
   1.2648850E-04   7.6382846E+05   -1.8482441E+00
   1.2707263E-04   7.5735237E+05   -1.8477566E+00
   1.2765947E-04   7.5093287E+05   -1.8472683E+00
   1.2824901E-04   7.4456946E+05   -1.8467791E+00
   1.2884128E-04   7.3826164E+05   -1.8462890E+00
   1.2943628E-04   7.3200892E+05   -1.8457980E+00
   1.3003403E-04   7.2581079E+05   -1.8453062E+00
   1.3063454E-04   7.1966678E+05   -1.8448135E+00
   1.3123783E-04   7.1357640E+05   -1.8443200E+00
   1.3184390E-04   7.0753917E+05   -1.8438256E+00
   1.3245277E-04   7.0155461E+05   -1.8433303E+00
   1.3306445E-04   6.9562227E+05   -1.8428342E+00
   1.3367895E-04   6.8974167E+05   -1.8423372E+00
   1.3429630E-04   6.8391234E+05   -1.8418394E+00
   1.3491649E-04   6.7813384E+05   -1.8413408E+00
   1.3553955E-04   6.7240571E+05   -1.8408413E+00
   1.3616548E-04   6.6672750E+05   -1.8403409E+00
   1.3679431E-04   6.6109877E+05   -1.8398398E+00
   1.3742604E-04   6.5551907E+05   -1.8393378E+00
   1.3806069E-04   6.4998797E+05   -1.8388349E+00
   1.3869827E-04   6.4450503E+05   -1.8383313E+00
   1.3933879E-04   6.3906983E+05   -1.8378268E+00
   1.3998227E-04   6.3368194E+05   -1.8373215E+00
   1.4062872E-04   6.2834093E+05   -1.8368154E+00
   1.4127816E-04   6.2304640E+05   -1.8363085E+00
   1.4193060E-04   6.1779792E+05   -1.8358008E+00
   1.4258605E-04   6.1259509E+05   -1.8352923E+00
   1.4324453E-04   6.0743750E+05   -1.8347830E+00
   1.4390605E-04   6.0232475E+05   -1.8342729E+00
   1.4457062E-04   5.9725644E+05   -1.8337619E+00
   1.4523826E-04   5.9223217E+05   -1.8332502E+00
   1.4590899E-04   5.8725155E+05   -1.8327378E+00
   1.4658281E-04   5.8231420E+05   -1.8322245E+00
   1.4725974E-04   5.7741972E+05   -1.8317104E+00
   1.4793981E-04   5.7256774E+05   -1.8311956E+00
   1.4862301E-04   5.6775787E+05   -1.8306800E+00
   1.4930936E-04   5.6298975E+05   -1.8301637E+00
   1.4999889E-04   5.5826301E+05   -1.8296465E+00
   1.5069160E-04   5.5357726E+05   -1.8291287E+00
   1.5138751E-04   5.4893216E+05   -1.8286100E+00
   1.5208663E-04   5.4432733E+05   -1.8280906E+00
   1.5278899E-04   5.3976243E+05   -1.8275705E+00
   1.5349458E-04   5.3523710E+05   -1.8270496E+00
   1.5420343E-04   5.3075097E+05   -1.8265280E+00
   1.5491556E-04   5.2630372E+05   -1.8260056E+00
   1.5563098E-04   5.2189499E+05   -1.8254825E+00
   1.5634970E-04   5.1752443E+05   -1.8249587E+00
   1.5707174E-04   5.1319172E+05   -1.8244341E+00
   1.5779711E-04   5.0889651E+05   -1.8239089E+00
   1.5852584E-04   5.0463847E+05   -1.8233829E+00
   1.5925792E-04   5.0041727E+05   -1.8228562E+00
   1.5999339E-04   4.9623259E+05   -1.8223288E+00
   1.6073226E-04   4.9208410E+05   -1.8218007E+00
   1.6147454E-04   4.8797147E+05   -1.8212719E+00
   1.6222024E-04   4.8389440E+05   -1.8207424E+00
   1.6296939E-04   4.7985257E+05   -1.8202122E+00
   1.6372200E-04   4.7584566E+05   -1.8196813E+00
   1.6447809E-04   4.7187336E+05   -1.8191497E+00
   1.6523767E-04   4.6793537E+05   -1.8186175E+00
   1.6600075E-04   4.6403138E+05   -1.8180846E+00
   1.6676736E-04   4.6016109E+05   -1.8175510E+00
   1.6753751E-04   4.5632421E+05   -1.8170167E+00
   1.6831122E-04   4.5252043E+05   -1.8164818E+00
   1.6908849E-04   4.4874947E+05   -1.8159463E+00
   1.6986936E-04   4.4501103E+05   -1.8154101E+00
   1.7065384E-04   4.4130482E+05   -1.8148732E+00
   1.7144193E-04   4.3763057E+05   -1.8143357E+00
   1.7223367E-04   4.3398798E+05   -1.8137975E+00
   1.7302906E-04   4.3037678E+05   -1.8132588E+00
   1.7382813E-04   4.2679669E+05   -1.8127194E+00
   1.7463089E-04   4.2324743E+05   -1.8121793E+00
   1.7543735E-04   4.1972873E+05   -1.8116387E+00
   1.7624754E-04   4.1624032E+05   -1.8110974E+00
   1.7706147E-04   4.1278194E+05   -1.8105555E+00
   1.7787916E-04   4.0935331E+05   -1.8100131E+00
   1.7870062E-04   4.0595417E+05   -1.8094700E+00
   1.7952588E-04   4.0258427E+05   -1.8089263E+00
   1.8035495E-04   3.9924335E+05   -1.8083820E+00
   1.8118785E-04   3.9593114E+05   -1.8078372E+00
   1.8202459E-04   3.9264739E+05   -1.8072917E+00
   1.8286520E-04   3.8939186E+05   -1.8067457E+00
   1.8370969E-04   3.8616430E+05   -1.8061991E+00
   1.8455808E-04   3.8296445E+05   -1.8056520E+00
   1.8541039E-04   3.7979208E+05   -1.8051043E+00
   1.8626663E-04   3.7664693E+05   -1.8045560E+00
   1.8712683E-04   3.7352878E+05   -1.8040072E+00
   1.8799100E-04   3.7043738E+05   -1.8034578E+00
   1.8885917E-04   3.6737249E+05   -1.8029079E+00
   1.8973134E-04   3.6433388E+05   -1.8023575E+00
   1.9060754E-04   3.6132132E+05   -1.8018065E+00
   1.9148778E-04   3.5833459E+05   -1.8012550E+00
   1.9237209E-04   3.5537344E+05   -1.8007030E+00
   1.9326049E-04   3.5243766E+05   -1.8001504E+00
   1.9415299E-04   3.4952703E+05   -1.7995974E+00
   1.9504960E-04   3.4664131E+05   -1.7990438E+00
   1.9595036E-04   3.4378030E+05   -1.7984898E+00
   1.9685528E-04   3.4094378E+05   -1.7979352E+00
   1.9776438E-04   3.3813152E+05   -1.7973802E+00
   1.9867768E-04   3.3534331E+05   -1.7968246E+00
   1.9959519E-04   3.3257895E+05   -1.7962686E+00
   2.0051694E-04   3.2983822E+05   -1.7957121E+00
   2.0144295E-04   3.2712092E+05   -1.7951552E+00
   2.0237324E-04   3.2442683E+05   -1.7945978E+00
   2.0330782E-04   3.2175576E+05   -1.7940399E+00
   2.0424671E-04   3.1910751E+05   -1.7934815E+00
   2.0518995E-04   3.1648186E+05   -1.7929228E+00
   2.0613754E-04   3.1387862E+05   -1.7923635E+00
   2.0708950E-04   3.1129761E+05   -1.7918039E+00
   2.0804586E-04   3.0873861E+05   -1.7912438E+00
   2.0900664E-04   3.0620143E+05   -1.7906833E+00
   2.0997185E-04   3.0368590E+05   -1.7901223E+00
   2.1094152E-04   3.0119181E+05   -1.7895610E+00
   2.1191567E-04   2.9871897E+05   -1.7889992E+00
   2.1289432E-04   2.9626720E+05   -1.7884371E+00
   2.1387749E-04   2.9383632E+05   -1.7878745E+00
   2.1486520E-04   2.9142614E+05   -1.7873115E+00
   2.1585747E-04   2.8903647E+05   -1.7867482E+00
   2.1685432E-04   2.8666715E+05   -1.7861845E+00
   2.1785578E-04   2.8431799E+05   -1.7856204E+00
   2.1886186E-04   2.8198881E+05   -1.7850559E+00
   2.1987259E-04   2.7967944E+05   -1.7844910E+00
   2.2088798E-04   2.7738971E+05   -1.7839258E+00
   2.2190807E-04   2.7511944E+05   -1.7833603E+00
   2.2293286E-04   2.7286846E+05   -1.7827944E+00
   2.2396239E-04   2.7063660E+05   -1.7822281E+00
   2.2499667E-04   2.6842370E+05   -1.7816616E+00
   2.2603573E-04   2.6622959E+05   -1.7810946E+00
   2.2707958E-04   2.6405410E+05   -1.7805274E+00
   2.2812826E-04   2.6189707E+05   -1.7799598E+00
   2.2918178E-04   2.5975835E+05   -1.7793920E+00
   2.3024017E-04   2.5763776E+05   -1.7788238E+00
   2.3130344E-04   2.5553516E+05   -1.7782553E+00
   2.3237162E-04   2.5345037E+05   -1.7776865E+00
   2.3344474E-04   2.5138326E+05   -1.7771175E+00
   2.3452281E-04   2.4933366E+05   -1.7765481E+00
   2.3560586E-04   2.4730142E+05   -1.7759785E+00
   2.3669392E-04   2.4528639E+05   -1.7754086E+00
   2.3778699E-04   2.4328841E+05   -1.7748384E+00
   2.3888512E-04   2.4130734E+05   -1.7742680E+00
   2.3998831E-04   2.3934304E+05   -1.7736973E+00
   2.4109661E-04   2.3739535E+05   -1.7731263E+00
   2.4221001E-04   2.3546412E+05   -1.7725552E+00
   2.4332857E-04   2.3354923E+05   -1.7719837E+00
   2.4445228E-04   2.3165051E+05   -1.7714121E+00
   2.4558119E-04   2.2976784E+05   -1.7708402E+00
   2.4671531E-04   2.2790107E+05   -1.7702681E+00
   2.4785467E-04   2.2605006E+05   -1.7696958E+00
   2.4899928E-04   2.2421468E+05   -1.7691233E+00
   2.5014919E-04   2.2239478E+05   -1.7685505E+00
   2.5130440E-04   2.2059024E+05   -1.7679776E+00
   2.5246495E-04   2.1880092E+05   -1.7674045E+00
   2.5363086E-04   2.1702669E+05   -1.7668312E+00
   2.5480216E-04   2.1526741E+05   -1.7662577E+00
   2.5597886E-04   2.1352296E+05   -1.7656841E+00
   2.5716100E-04   2.1179320E+05   -1.7651103E+00
   2.5834859E-04   2.1007802E+05   -1.7645363E+00
   2.5954168E-04   2.0837727E+05   -1.7639622E+00
   2.6074027E-04   2.0669084E+05   -1.7633879E+00
   2.6194439E-04   2.0501860E+05   -1.7628135E+00
   2.6315408E-04   2.0336043E+05   -1.7622389E+00
   2.6436935E-04   2.0171620E+05   -1.7616643E+00
   2.6559024E-04   2.0008580E+05   -1.7610894E+00
   2.6681676E-04   1.9846910E+05   -1.7605145E+00
   2.6804895E-04   1.9686598E+05   -1.7599395E+00
   2.6928683E-04   1.9527634E+05   -1.7593643E+00
   2.7053042E-04   1.9370004E+05   -1.7587891E+00
   2.7177976E-04   1.9213697E+05   -1.7582138E+00
   2.7303487E-04   1.9058703E+05   -1.7576383E+00
   2.7429577E-04   1.8905008E+05   -1.7570628E+00
   2.7556250E-04   1.8752603E+05   -1.7564873E+00
   2.7683507E-04   1.8601476E+05   -1.7559116E+00
   2.7811353E-04   1.8451616E+05   -1.7553359E+00
   2.7939788E-04   1.8303011E+05   -1.7547601E+00
   2.8068817E-04   1.8155652E+05   -1.7541843E+00
   2.8198442E-04   1.8009527E+05   -1.7536084E+00
   2.8328665E-04   1.7864625E+05   -1.7530325E+00
   2.8459490E-04   1.7720937E+05   -1.7524566E+00
   2.8590919E-04   1.7578450E+05   -1.7518806E+00
   2.8722955E-04   1.7437156E+05   -1.7513046E+00
   2.8855600E-04   1.7297043E+05   -1.7507286E+00
   2.8988859E-04   1.7158101E+05   -1.7501526E+00
   2.9122732E-04   1.7020321E+05   -1.7495766E+00
   2.9257224E-04   1.6883692E+05   -1.7490006E+00
   2.9392337E-04   1.6748204E+05   -1.7484246E+00
   2.9528074E-04   1.6613847E+05   -1.7478486E+00
   2.9664438E-04   1.6480612E+05   -1.7472727E+00
   2.9801431E-04   1.6348489E+05   -1.7466968E+00
   2.9939057E-04   1.6217469E+05   -1.7461209E+00
   3.0077319E-04   1.6087541E+05   -1.7455450E+00
   3.0216219E-04   1.5958696E+05   -1.7449692E+00
   3.0355761E-04   1.5830925E+05   -1.7443934E+00
   3.0495947E-04   1.5704219E+05   -1.7438178E+00
   3.0636780E-04   1.5578568E+05   -1.7432421E+00
   3.0778264E-04   1.5453963E+05   -1.7426666E+00
   3.0920401E-04   1.5330396E+05   -1.7420911E+00
   3.1063195E-04   1.5207857E+05   -1.7415157E+00
   3.1206648E-04   1.5086338E+05   -1.7409404E+00
   3.1350764E-04   1.4965829E+05   -1.7403652E+00
   3.1495545E-04   1.4846322E+05   -1.7397901E+00
   3.1640994E-04   1.4727809E+05   -1.7392150E+00
   3.1787116E-04   1.4610280E+05   -1.7386402E+00
   3.1933912E-04   1.4493728E+05   -1.7380654E+00
   3.2081386E-04   1.4378143E+05   -1.7374907E+00
   3.2229541E-04   1.4263518E+05   -1.7369162E+00
   3.2378381E-04   1.4149844E+05   -1.7363419E+00
   3.2527908E-04   1.4037114E+05   -1.7357676E+00
   3.2678125E-04   1.3925318E+05   -1.7351935E+00
   3.2829036E-04   1.3814449E+05   -1.7346196E+00
   3.2980644E-04   1.3704499E+05   -1.7340459E+00
   3.3132952E-04   1.3595460E+05   -1.7334723E+00
   3.3285963E-04   1.3487325E+05   -1.7328988E+00
   3.3439681E-04   1.3380084E+05   -1.7323256E+00
   3.3594109E-04   1.3273732E+05   -1.7317525E+00
   3.3749250E-04   1.3168260E+05   -1.7311797E+00
   3.3905108E-04   1.3063660E+05   -1.7306070E+00
   3.4061685E-04   1.2959925E+05   -1.7300346E+00
   3.4218986E-04   1.2857048E+05   -1.7294623E+00
   3.4377013E-04   1.2755021E+05   -1.7288903E+00
   3.4535769E-04   1.2653837E+05   -1.7283185E+00
   3.4695259E-04   1.2553489E+05   -1.7277469E+00
   3.4855485E-04   1.2453969E+05   -1.7271755E+00
   3.5016452E-04   1.2355271E+05   -1.7266044E+00
   3.5178161E-04   1.2257388E+05   -1.7260335E+00
   3.5340618E-04   1.2160311E+05   -1.7254629E+00
   3.5503824E-04   1.2064036E+05   -1.7248926E+00
   3.5667785E-04   1.1968554E+05   -1.7243225E+00
   3.5832502E-04   1.1873859E+05   -1.7237527E+00
   3.5997981E-04   1.1779944E+05   -1.7231831E+00
   3.6164223E-04   1.1686802E+05   -1.7226138E+00
   3.6331233E-04   1.1594428E+05   -1.7220448E+00
   3.6499015E-04   1.1502813E+05   -1.7214762E+00
   3.6667571E-04   1.1411953E+05   -1.7209078E+00
   3.6836906E-04   1.1321840E+05   -1.7203397E+00
   3.7007022E-04   1.1232467E+05   -1.7197719E+00
   3.7177925E-04   1.1143830E+05   -1.7192044E+00
   3.7349616E-04   1.1055920E+05   -1.7186373E+00
   3.7522101E-04   1.0968733E+05   -1.7180705E+00
   3.7695382E-04   1.0882262E+05   -1.7175040E+00
   3.7869463E-04   1.0796501E+05   -1.7169379E+00
   3.8044348E-04   1.0711443E+05   -1.7163721E+00
   3.8220041E-04   1.0627084E+05   -1.7158066E+00
   3.8396545E-04   1.0543416E+05   -1.7152415E+00
   3.8573864E-04   1.0460434E+05   -1.7146768E+00
   3.8752002E-04   1.0378132E+05   -1.7141124E+00
   3.8930963E-04   1.0296505E+05   -1.7135484E+00
   3.9110750E-04   1.0215546E+05   -1.7129848E+00
   3.9291368E-04   1.0135250E+05   -1.7124216E+00
   3.9472820E-04   1.0055611E+05   -1.7118587E+00
   3.9655109E-04   9.9766238E+04   -1.7112963E+00
   3.9838241E-04   9.8982827E+04   -1.7107342E+00
   4.0022218E-04   9.8205822E+04   -1.7101726E+00
   4.0207045E-04   9.7435169E+04   -1.7096114E+00
   4.0392725E-04   9.6670813E+04   -1.7090505E+00
   4.0579263E-04   9.5912701E+04   -1.7084901E+00
   4.0766662E-04   9.5160780E+04   -1.7079302E+00
   4.0954927E-04   9.4414997E+04   -1.7073707E+00
   4.1144061E-04   9.3675300E+04   -1.7068116E+00
   4.1334068E-04   9.2941638E+04   -1.7062529E+00
   4.1524953E-04   9.2213959E+04   -1.7056947E+00
   4.1716720E-04   9.1492212E+04   -1.7051370E+00
   4.1909372E-04   9.0776348E+04   -1.7045797E+00
   4.2102914E-04   9.0066316E+04   -1.7040229E+00
   4.2297350E-04   8.9362067E+04   -1.7034665E+00
   4.2492683E-04   8.8663551E+04   -1.7029106E+00
   4.2688919E-04   8.7970722E+04   -1.7023553E+00
   4.2886061E-04   8.7283529E+04   -1.7018003E+00
   4.3084113E-04   8.6601925E+04   -1.7012459E+00
   4.3283080E-04   8.5925864E+04   -1.7006920E+00
   4.3482966E-04   8.5255298E+04   -1.7001386E+00
   4.3683775E-04   8.4590181E+04   -1.6995857E+00
   4.3885511E-04   8.3930466E+04   -1.6990333E+00
   4.4088179E-04   8.3276108E+04   -1.6984814E+00
   4.4291783E-04   8.2627062E+04   -1.6979301E+00
   4.4496327E-04   8.1983282E+04   -1.6973793E+00
   4.4701816E-04   8.1344725E+04   -1.6968290E+00
   4.4908253E-04   8.0711346E+04   -1.6962792E+00
   4.5115644E-04   8.0083101E+04   -1.6957300E+00
   4.5323993E-04   7.9459948E+04   -1.6951813E+00
   4.5533304E-04   7.8841842E+04   -1.6946332E+00
   4.5743582E-04   7.8228743E+04   -1.6940857E+00
   4.5954830E-04   7.7620607E+04   -1.6935387E+00
   4.6167054E-04   7.7017392E+04   -1.6929923E+00
   4.6380259E-04   7.6419057E+04   -1.6924464E+00
   4.6594448E-04   7.5825562E+04   -1.6919012E+00
   4.6809626E-04   7.5236864E+04   -1.6913565E+00
   4.7025797E-04   7.4652924E+04   -1.6908124E+00
   4.7242967E-04   7.4073702E+04   -1.6902689E+00
   4.7461140E-04   7.3499158E+04   -1.6897260E+00
   4.7680321E-04   7.2929253E+04   -1.6891837E+00
   4.7900514E-04   7.2363947E+04   -1.6886420E+00
   4.8121723E-04   7.1803203E+04   -1.6881009E+00
   4.8343954E-04   7.1246981E+04   -1.6875604E+00
   4.8567212E-04   7.0695244E+04   -1.6870205E+00
   4.8791500E-04   7.0147955E+04   -1.6864813E+00
   4.9016825E-04   6.9605074E+04   -1.6859427E+00
   4.9243189E-04   6.9066567E+04   -1.6854048E+00
   4.9470600E-04   6.8532395E+04   -1.6848674E+00
   4.9699060E-04   6.8002523E+04   -1.6843307E+00
   4.9928575E-04   6.7476915E+04   -1.6837947E+00
   5.0159151E-04   6.6955534E+04   -1.6832593E+00
   5.0390791E-04   6.6438346E+04   -1.6827246E+00
   5.0623501E-04   6.5925314E+04   -1.6821905E+00
   5.0857286E-04   6.5416406E+04   -1.6816572E+00
   5.1092150E-04   6.4911585E+04   -1.6811244E+00
   5.1328099E-04   6.4410819E+04   -1.6805924E+00
   5.1565137E-04   6.3914071E+04   -1.6800610E+00
   5.1803270E-04   6.3421311E+04   -1.6795303E+00
   5.2042503E-04   6.2932503E+04   -1.6790003E+00
   5.2282841E-04   6.2447614E+04   -1.6784710E+00
   5.2524289E-04   6.1966613E+04   -1.6779424E+00
   5.2766851E-04   6.1489466E+04   -1.6774145E+00
   5.3010534E-04   6.1016142E+04   -1.6768873E+00
   5.3255342E-04   6.0546608E+04   -1.6763608E+00
   5.3501281E-04   6.0080833E+04   -1.6758350E+00
   5.3748356E-04   5.9618785E+04   -1.6753099E+00
   5.3996571E-04   5.9160434E+04   -1.6747856E+00
   5.4245933E-04   5.8705749E+04   -1.6742620E+00
   5.4496446E-04   5.8254698E+04   -1.6737391E+00
   5.4748117E-04   5.7807252E+04   -1.6732169E+00
   5.5000949E-04   5.7363381E+04   -1.6726955E+00
   5.5254949E-04   5.6923055E+04   -1.6721748E+00
   5.5510123E-04   5.6486244E+04   -1.6716549E+00
   5.5766474E-04   5.6052919E+04   -1.6711357E+00
   5.6024010E-04   5.5623051E+04   -1.6706173E+00
   5.6282734E-04   5.5196612E+04   -1.6700996E+00
   5.6542654E-04   5.4773572E+04   -1.6695827E+00
   5.6803774E-04   5.4353904E+04   -1.6690665E+00
   5.7066099E-04   5.3937580E+04   -1.6685511E+00
   5.7329637E-04   5.3524572E+04   -1.6680365E+00
   5.7594391E-04   5.3114852E+04   -1.6675227E+00
   5.7860368E-04   5.2708393E+04   -1.6670096E+00
   5.8127573E-04   5.2305168E+04   -1.6664973E+00
   5.8396012E-04   5.1905150E+04   -1.6659859E+00
   5.8665691E-04   5.1508313E+04   -1.6654752E+00
   5.8936616E-04   5.1114630E+04   -1.6649653E+00
   5.9208791E-04   5.0724074E+04   -1.6644561E+00
   5.9482223E-04   5.0336621E+04   -1.6639478E+00
   5.9756919E-04   4.9952245E+04   -1.6634403E+00
   6.0032882E-04   4.9570919E+04   -1.6629336E+00
   6.0310120E-04   4.9192619E+04   -1.6624278E+00
   6.0588639E-04   4.8817320E+04   -1.6619227E+00
   6.0868443E-04   4.8444996E+04   -1.6614184E+00
   6.1149540E-04   4.8075624E+04   -1.6609150E+00
   6.1431935E-04   4.7709179E+04   -1.6604124E+00
   6.1715634E-04   4.7345637E+04   -1.6599106E+00
   6.2000644E-04   4.6984973E+04   -1.6594097E+00
   6.2286969E-04   4.6627164E+04   -1.6589096E+00
