#        a       HoverH0(a)       dlogHdloga_of_a(a)
   1.0000000E-04   1.0832194E+06   -1.8951195E+00
   1.0046181E-04   1.0738031E+06   -1.8947371E+00
   1.0092575E-04   1.0644706E+06   -1.8943537E+00
   1.0139184E-04   1.0552211E+06   -1.8939693E+00
   1.0186008E-04   1.0460538E+06   -1.8935838E+00
   1.0233048E-04   1.0369680E+06   -1.8931973E+00
   1.0280305E-04   1.0279629E+06   -1.8928098E+00
   1.0327781E-04   1.0190379E+06   -1.8924213E+00
   1.0375475E-04   1.0101921E+06   -1.8920317E+00
   1.0423390E-04   1.0014249E+06   -1.8916412E+00
   1.0471527E-04   9.9273566E+05   -1.8912496E+00
   1.0519885E-04   9.8412354E+05   -1.8908570E+00
   1.0568467E-04   9.7558791E+05   -1.8904634E+00
   1.0617274E-04   9.6712806E+05   -1.8900687E+00
   1.0666305E-04   9.5874332E+05   -1.8896730E+00
   1.0715563E-04   9.5043301E+05   -1.8892763E+00
   1.0765049E-04   9.4219646E+05   -1.8888786E+00
   1.0814763E-04   9.3403300E+05   -1.8884799E+00
   1.0864707E-04   9.2594198E+05   -1.8880802E+00
   1.0914881E-04   9.1792273E+05   -1.8876794E+00
   1.0965287E-04   9.0997462E+05   -1.8872776E+00
   1.1015926E-04   9.0209700E+05   -1.8868748E+00
   1.1066799E-04   8.9428924E+05   -1.8864710E+00
   1.1117906E-04   8.8655070E+05   -1.8860661E+00
   1.1169250E-04   8.7888078E+05   -1.8856603E+00
   1.1220831E-04   8.7127884E+05   -1.8852534E+00
   1.1272650E-04   8.6374427E+05   -1.8848455E+00
   1.1324708E-04   8.5627647E+05   -1.8844366E+00
   1.1377007E-04   8.4887484E+05   -1.8840267E+00
   1.1429547E-04   8.4153878E+05   -1.8836158E+00
   1.1482330E-04   8.3426771E+05   -1.8832038E+00
   1.1535356E-04   8.2706102E+05   -1.8827909E+00
   1.1588628E-04   8.1991816E+05   -1.8823769E+00
   1.1642145E-04   8.1283853E+05   -1.8819619E+00
   1.1695910E-04   8.0582157E+05   -1.8815460E+00
   1.1749923E-04   7.9886673E+05   -1.8811290E+00
   1.1804185E-04   7.9197343E+05   -1.8807109E+00
   1.1858698E-04   7.8514112E+05   -1.8802919E+00
   1.1913463E-04   7.7836927E+05   -1.8798719E+00
   1.1968481E-04   7.7165731E+05   -1.8794509E+00
   1.2023752E-04   7.6500472E+05   -1.8790288E+00
   1.2079279E-04   7.5841096E+05   -1.8786058E+00
   1.2135063E-04   7.5187550E+05   -1.8781818E+00
   1.2191104E-04   7.4539782E+05   -1.8777567E+00
   1.2247403E-04   7.3897739E+05   -1.8773307E+00
   1.2303963E-04   7.3261371E+05   -1.8769036E+00
   1.2360784E-04   7.2630625E+05   -1.8764755E+00
   1.2417868E-04   7.2005453E+05   -1.8760465E+00
   1.2475215E-04   7.1385802E+05   -1.8756164E+00
   1.2532826E-04   7.0771625E+05   -1.8751854E+00
   1.2590704E-04   7.0162871E+05   -1.8747534E+00
   1.2648850E-04   6.9559492E+05   -1.8743203E+00
   1.2707263E-04   6.8961440E+05   -1.8738863E+00
   1.2765947E-04   6.8368666E+05   -1.8734513E+00
   1.2824901E-04   6.7781124E+05   -1.8730153E+00
   1.2884128E-04   6.7198766E+05   -1.8725783E+00
   1.2943628E-04   6.6621546E+05   -1.8721403E+00
   1.3003403E-04   6.6049418E+05   -1.8717013E+00
   1.3063454E-04   6.5482335E+05   -1.8712613E+00
   1.3123783E-04   6.4920253E+05   -1.8708204E+00
   1.3184390E-04   6.4363127E+05   -1.8703784E+00
   1.3245277E-04   6.3810912E+05   -1.8699355E+00
   1.3306445E-04   6.3263564E+05   -1.8694916E+00
   1.3367895E-04   6.2721039E+05   -1.8690467E+00
   1.3429630E-04   6.2183294E+05   -1.8686009E+00
   1.3491649E-04   6.1650286E+05   -1.8681541E+00
   1.3553955E-04   6.1121974E+05   -1.8677063E+00
   1.3616548E-04   6.0598314E+05   -1.8672575E+00
   1.3679431E-04   6.0079264E+05   -1.8668078E+00
   1.3742604E-04   5.9564784E+05   -1.8663570E+00
   1.3806069E-04   5.9054833E+05   -1.8659054E+00
   1.3869827E-04   5.8549369E+05   -1.8654527E+00
   1.3933879E-04   5.8048353E+05   -1.8649991E+00
   1.3998227E-04   5.7551745E+05   -1.8645445E+00
   1.4062872E-04   5.7059504E+05   -1.8640890E+00
   1.4127816E-04   5.6571593E+05   -1.8636325E+00
   1.4193060E-04   5.6087972E+05   -1.8631750E+00
   1.4258605E-04   5.5608602E+05   -1.8627166E+00
   1.4324453E-04   5.5133446E+05   -1.8622573E+00
   1.4390605E-04   5.4662466E+05   -1.8617970E+00
   1.4457062E-04   5.4195625E+05   -1.8613357E+00
   1.4523826E-04   5.3732885E+05   -1.8608735E+00
   1.4590899E-04   5.3274209E+05   -1.8604103E+00
   1.4658281E-04   5.2819562E+05   -1.8599462E+00
   1.4725974E-04   5.2368907E+05   -1.8594812E+00
   1.4793981E-04   5.1922208E+05   -1.8590152E+00
   1.4862301E-04   5.1479430E+05   -1.8585483E+00
   1.4930936E-04   5.1040537E+05   -1.8580804E+00
   1.4999889E-04   5.0605496E+05   -1.8576117E+00
   1.5069160E-04   5.0174271E+05   -1.8571419E+00
   1.5138751E-04   4.9746829E+05   -1.8566713E+00
   1.5208663E-04   4.9323135E+05   -1.8561997E+00
   1.5278899E-04   4.8903156E+05   -1.8557272E+00
   1.5349458E-04   4.8486859E+05   -1.8552538E+00
   1.5420343E-04   4.8074211E+05   -1.8547795E+00
   1.5491556E-04   4.7665179E+05   -1.8543042E+00
   1.5563098E-04   4.7259730E+05   -1.8538280E+00
   1.5634970E-04   4.6857834E+05   -1.8533510E+00
   1.5707174E-04   4.6459457E+05   -1.8528730E+00
   1.5779711E-04   4.6064568E+05   -1.8523941E+00
   1.5852584E-04   4.5673137E+05   -1.8519143E+00
   1.5925792E-04   4.5285133E+05   -1.8514336E+00
   1.5999339E-04   4.4900524E+05   -1.8509520E+00
   1.6073226E-04   4.4519280E+05   -1.8504695E+00
   1.6147454E-04   4.4141372E+05   -1.8499861E+00
   1.6222024E-04   4.3766769E+05   -1.8495018E+00
   1.6296939E-04   4.3395442E+05   -1.8490166E+00
   1.6372200E-04   4.3027362E+05   -1.8485305E+00
   1.6447809E-04   4.2662500E+05   -1.8480436E+00
   1.6523767E-04   4.2300826E+05   -1.8475557E+00
   1.6600075E-04   4.1942313E+05   -1.8470670E+00
   1.6676736E-04   4.1586933E+05   -1.8465775E+00
   1.6753751E-04   4.1234656E+05   -1.8460870E+00
   1.6831122E-04   4.0885456E+05   -1.8455957E+00
   1.6908849E-04   4.0539305E+05   -1.8451035E+00
   1.6986936E-04   4.0196176E+05   -1.8446104E+00
   1.7065384E-04   3.9856042E+05   -1.8441165E+00
   1.7144193E-04   3.9518876E+05   -1.8436217E+00
   1.7223367E-04   3.9184652E+05   -1.8431261E+00
   1.7302906E-04   3.8853343E+05   -1.8426296E+00
   1.7382813E-04   3.8524924E+05   -1.8421323E+00
   1.7463089E-04   3.8199368E+05   -1.8416341E+00
   1.7543735E-04   3.7876651E+05   -1.8411351E+00
   1.7624754E-04   3.7556746E+05   -1.8406353E+00
   1.7706147E-04   3.7239629E+05   -1.8401346E+00
   1.7787916E-04   3.6925275E+05   -1.8396330E+00
   1.7870062E-04   3.6613659E+05   -1.8391307E+00
   1.7952588E-04   3.6304757E+05   -1.8386275E+00
   1.8035495E-04   3.5998545E+05   -1.8381235E+00
   1.8118785E-04   3.5694998E+05   -1.8376187E+00
   1.8202459E-04   3.5394093E+05   -1.8371131E+00
   1.8286520E-04   3.5095807E+05   -1.8366066E+00
   1.8370969E-04   3.4800116E+05   -1.8360993E+00
   1.8455808E-04   3.4506997E+05   -1.8355913E+00
   1.8541039E-04   3.4216427E+05   -1.8350824E+00
   1.8626663E-04   3.3928383E+05   -1.8345727E+00
   1.8712683E-04   3.3642843E+05   -1.8340623E+00
   1.8799100E-04   3.3359785E+05   -1.8335510E+00
   1.8885917E-04   3.3079186E+05   -1.8330390E+00
   1.8973134E-04   3.2801025E+05   -1.8325262E+00
   1.9060754E-04   3.2525280E+05   -1.8320125E+00
   1.9148778E-04   3.2251930E+05   -1.8314982E+00
   1.9237209E-04   3.1980952E+05   -1.8309830E+00
   1.9326049E-04   3.1712327E+05   -1.8304671E+00
   1.9415299E-04   3.1446033E+05   -1.8299504E+00
   1.9504960E-04   3.1182049E+05   -1.8294329E+00
   1.9595036E-04   3.0920355E+05   -1.8289147E+00
   1.9685528E-04   3.0660930E+05   -1.8283957E+00
   1.9776438E-04   3.0403755E+05   -1.8278760E+00
   1.9867768E-04   3.0148810E+05   -1.8273555E+00
   1.9959519E-04   2.9896073E+05   -1.8268343E+00
   2.0051694E-04   2.9645527E+05   -1.8263124E+00
   2.0144295E-04   2.9397151E+05   -1.8257897E+00
   2.0237324E-04   2.9150927E+05   -1.8252663E+00
   2.0330782E-04   2.8906834E+05   -1.8247421E+00
   2.0424671E-04   2.8664855E+05   -1.8242173E+00
   2.0518995E-04   2.8424970E+05   -1.8236917E+00
   2.0613754E-04   2.8187161E+05   -1.8231654E+00
   2.0708950E-04   2.7951409E+05   -1.8226384E+00
   2.0804586E-04   2.7717696E+05   -1.8221107E+00
   2.0900664E-04   2.7486005E+05   -1.8215823E+00
   2.0997185E-04   2.7256316E+05   -1.8210531E+00
   2.1094152E-04   2.7028613E+05   -1.8205233E+00
   2.1191567E-04   2.6802878E+05   -1.8199928E+00
   2.1289432E-04   2.6579092E+05   -1.8194616E+00
   2.1387749E-04   2.6357240E+05   -1.8189298E+00
   2.1486520E-04   2.6137304E+05   -1.8183972E+00
   2.1585747E-04   2.5919267E+05   -1.8178640E+00
   2.1685432E-04   2.5703111E+05   -1.8173301E+00
   2.1785578E-04   2.5488821E+05   -1.8167956E+00
   2.1886186E-04   2.5276380E+05   -1.8162604E+00
   2.1987259E-04   2.5065771E+05   -1.8157245E+00
   2.2088798E-04   2.4856979E+05   -1.8151880E+00
   2.2190807E-04   2.4649987E+05   -1.8146509E+00
   2.2293286E-04   2.4444779E+05   -1.8141131E+00
   2.2396239E-04   2.4241339E+05   -1.8135747E+00
   2.2499667E-04   2.4039653E+05   -1.8130356E+00
   2.2603573E-04   2.3839703E+05   -1.8124959E+00
   2.2707958E-04   2.3641475E+05   -1.8119556E+00
   2.2812826E-04   2.3444954E+05   -1.8114147E+00
   2.2918178E-04   2.3250125E+05   -1.8108731E+00
   2.3024017E-04   2.3056972E+05   -1.8103310E+00
   2.3130344E-04   2.2865481E+05   -1.8097882E+00
   2.3237162E-04   2.2675637E+05   -1.8092449E+00
   2.3344474E-04   2.2487426E+05   -1.8087009E+00
   2.3452281E-04   2.2300833E+05   -1.8081564E+00
   2.3560586E-04   2.2115843E+05   -1.8076113E+00
   2.3669392E-04   2.1932444E+05   -1.8070656E+00
   2.3778699E-04   2.1750619E+05   -1.8065193E+00
   2.3888512E-04   2.1570357E+05   -1.8059725E+00
   2.3998831E-04   2.1391642E+05   -1.8054250E+00
   2.4109661E-04   2.1214462E+05   -1.8048771E+00
   2.4221001E-04   2.1038802E+05   -1.8043286E+00
   2.4332857E-04   2.0864649E+05   -1.8037795E+00
   2.4445228E-04   2.0691991E+05   -1.8032299E+00
   2.4558119E-04   2.0520813E+05   -1.8026797E+00
   2.4671531E-04   2.0351103E+05   -1.8021290E+00
   2.4785467E-04   2.0182848E+05   -1.8015778E+00
   2.4899928E-04   2.0016034E+05   -1.8010260E+00
   2.5014919E-04   1.9850650E+05   -1.8004738E+00
   2.5130440E-04   1.9686683E+05   -1.7999210E+00
   2.5246495E-04   1.9524119E+05   -1.7993677E+00
   2.5363086E-04   1.9362948E+05   -1.7988139E+00
   2.5480216E-04   1.9203155E+05   -1.7982596E+00
   2.5597886E-04   1.9044731E+05   -1.7977048E+00
   2.5716100E-04   1.8887661E+05   -1.7971495E+00
   2.5834859E-04   1.8731935E+05   -1.7965938E+00
   2.5954168E-04   1.8577540E+05   -1.7960375E+00
   2.6074027E-04   1.8424465E+05   -1.7954808E+00
   2.6194439E-04   1.8272699E+05   -1.7949237E+00
   2.6315408E-04   1.8122229E+05   -1.7943660E+00
   2.6436935E-04   1.7973044E+05   -1.7938079E+00
   2.6559024E-04   1.7825133E+05   -1.7932494E+00
   2.6681676E-04   1.7678485E+05   -1.7926904E+00
   2.6804895E-04   1.7533089E+05   -1.7921309E+00
   2.6928683E-04   1.7388933E+05   -1.7915711E+00
   2.7053042E-04   1.7246008E+05   -1.7910108E+00
   2.7177976E-04   1.7104301E+05   -1.7904500E+00
   2.7303487E-04   1.6963802E+05   -1.7898889E+00
   2.7429577E-04   1.6824501E+05   -1.7893273E+00
   2.7556250E-04   1.6686387E+05   -1.7887654E+00
   2.7683507E-04   1.6549449E+05   -1.7882030E+00
   2.7811353E-04   1.6413678E+05   -1.7876403E+00
   2.7939788E-04   1.6279063E+05   -1.7870771E+00
   2.8068817E-04   1.6145594E+05   -1.7865136E+00
   2.8198442E-04   1.6013261E+05   -1.7859496E+00
   2.8328665E-04   1.5882053E+05   -1.7853854E+00
   2.8459490E-04   1.5751962E+05   -1.7848207E+00
   2.8590919E-04   1.5622977E+05   -1.7842557E+00
   2.8722955E-04   1.5495089E+05   -1.7836903E+00
   2.8855600E-04   1.5368287E+05   -1.7831246E+00
   2.8988859E-04   1.5242563E+05   -1.7825585E+00
   2.9122732E-04   1.5117907E+05   -1.7819921E+00
   2.9257224E-04   1.4994309E+05   -1.7814253E+00
   2.9392337E-04   1.4871761E+05   -1.7808582E+00
   2.9528074E-04   1.4750253E+05   -1.7802908E+00
   2.9664438E-04   1.4629776E+05   -1.7797231E+00
   2.9801431E-04   1.4510321E+05   -1.7791550E+00
   2.9939057E-04   1.4391879E+05   -1.7785867E+00
   3.0077319E-04   1.4274441E+05   -1.7780181E+00
   3.0216219E-04   1.4157999E+05   -1.7774491E+00
   3.0355761E-04   1.4042543E+05   -1.7768799E+00
   3.0495947E-04   1.3928065E+05   -1.7763104E+00
   3.0636780E-04   1.3814557E+05   -1.7757406E+00
   3.0778264E-04   1.3702010E+05   -1.7751705E+00
   3.0920401E-04   1.3590415E+05   -1.7746002E+00
   3.1063195E-04   1.3479765E+05   -1.7740296E+00
   3.1206648E-04   1.3370051E+05   -1.7734588E+00
   3.1350764E-04   1.3261265E+05   -1.7728877E+00
   3.1495545E-04   1.3153398E+05   -1.7723164E+00
   3.1640994E-04   1.3046443E+05   -1.7717448E+00
   3.1787116E-04   1.2940392E+05   -1.7711731E+00
   3.1933912E-04   1.2835237E+05   -1.7706010E+00
   3.2081386E-04   1.2730970E+05   -1.7700288E+00
   3.2229541E-04   1.2627583E+05   -1.7694564E+00
   3.2378381E-04   1.2525069E+05   -1.7688837E+00
   3.2527908E-04   1.2423420E+05   -1.7683109E+00
   3.2678125E-04   1.2322628E+05   -1.7677378E+00
   3.2829036E-04   1.2222687E+05   -1.7671646E+00
   3.2980644E-04   1.2123588E+05   -1.7665912E+00
   3.3132952E-04   1.2025324E+05   -1.7660176E+00
   3.3285963E-04   1.1927888E+05   -1.7654438E+00
   3.3439681E-04   1.1831273E+05   -1.7648699E+00
   3.3594109E-04   1.1735471E+05   -1.7642958E+00
   3.3749250E-04   1.1640476E+05   -1.7637216E+00
   3.3905108E-04   1.1546281E+05   -1.7631472E+00
   3.4061685E-04   1.1452878E+05   -1.7625727E+00
   3.4218986E-04   1.1360261E+05   -1.7619981E+00
   3.4377013E-04   1.1268423E+05   -1.7614233E+00
   3.4535769E-04   1.1177356E+05   -1.7608484E+00
   3.4695259E-04   1.1087055E+05   -1.7602734E+00
   3.4855485E-04   1.0997513E+05   -1.7596982E+00
   3.5016452E-04   1.0908722E+05   -1.7591230E+00
   3.5178161E-04   1.0820678E+05   -1.7585477E+00
   3.5340618E-04   1.0733372E+05   -1.7579723E+00
   3.5503824E-04   1.0646799E+05   -1.7573967E+00
   3.5667785E-04   1.0560952E+05   -1.7568212E+00
   3.5832502E-04   1.0475825E+05   -1.7562455E+00
   3.5997981E-04   1.0391412E+05   -1.7556698E+00
   3.6164223E-04   1.0307707E+05   -1.7550940E+00
   3.6331233E-04   1.0224703E+05   -1.7545181E+00
   3.6499015E-04   1.0142394E+05   -1.7539423E+00
   3.6667571E-04   1.0060775E+05   -1.7533663E+00
   3.6836906E-04   9.9798383E+04   -1.7527904E+00
   3.7007022E-04   9.8995795E+04   -1.7522144E+00
   3.7177925E-04   9.8199922E+04   -1.7516383E+00
   3.7349616E-04   9.7410705E+04   -1.7510623E+00
   3.7522101E-04   9.6628088E+04   -1.7504862E+00
   3.7695382E-04   9.5852013E+04   -1.7499102E+00
   3.7869463E-04   9.5082424E+04   -1.7493341E+00
   3.8044348E-04   9.4319264E+04   -1.7487581E+00
   3.8220041E-04   9.3562478E+04   -1.7481820E+00
   3.8396545E-04   9.2812010E+04   -1.7476060E+00
   3.8573864E-04   9.2067806E+04   -1.7470300E+00
   3.8752002E-04   9.1329812E+04   -1.7464540E+00
   3.8930963E-04   9.0597974E+04   -1.7458781E+00
   3.9110750E-04   8.9872238E+04   -1.7453022E+00
   3.9291368E-04   8.9152553E+04   -1.7447264E+00
   3.9472820E-04   8.8438865E+04   -1.7441506E+00
   3.9655109E-04   8.7731123E+04   -1.7435749E+00
   3.9838241E-04   8.7029276E+04   -1.7429992E+00
   4.0022218E-04   8.6333273E+04   -1.7424236E+00
   4.0207045E-04   8.5643063E+04   -1.7418481E+00
   4.0392725E-04   8.4958596E+04   -1.7412727E+00
   4.0579263E-04   8.4279823E+04   -1.7406974E+00
   4.0766662E-04   8.3606695E+04   -1.7401221E+00
   4.0954927E-04   8.2939163E+04   -1.7395470E+00
   4.1144061E-04   8.2277178E+04   -1.7389720E+00
   4.1334068E-04   8.1620693E+04   -1.7383971E+00
   4.1524953E-04   8.0969661E+04   -1.7378223E+00
   4.1716720E-04   8.0324034E+04   -1.7372477E+00
   4.1909372E-04   7.9683766E+04   -1.7366732E+00
   4.2102914E-04   7.9048811E+04   -1.7360988E+00
   4.2297350E-04   7.8419123E+04   -1.7355246E+00
   4.2492683E-04   7.7794657E+04   -1.7349505E+00
   4.2688919E-04   7.7175368E+04   -1.7343766E+00
   4.2886061E-04   7.6561211E+04   -1.7338028E+00
   4.3084113E-04   7.5952143E+04   -1.7332292E+00
   4.3283080E-04   7.5348118E+04   -1.7326558E+00
   4.3482966E-04   7.4749095E+04   -1.7320826E+00
   4.3683775E-04   7.4155030E+04   -1.7315096E+00
   4.3885511E-04   7.3565880E+04   -1.7309367E+00
   4.4088179E-04   7.2981604E+04   -1.7303641E+00
   4.4291783E-04   7.2402159E+04   -1.7297916E+00
   4.4496327E-04   7.1827504E+04   -1.7292194E+00
   4.4701816E-04   7.1257598E+04   -1.7286474E+00
   4.4908253E-04   7.0692400E+04   -1.7280756E+00
   4.5115644E-04   7.0131870E+04   -1.7275041E+00
   4.5323993E-04   6.9575967E+04   -1.7269327E+00
   4.5533304E-04   6.9024653E+04   -1.7263617E+00
   4.5743582E-04   6.8477887E+04   -1.7257908E+00
   4.5954830E-04   6.7935631E+04   -1.7252203E+00
   4.6167054E-04   6.7397847E+04   -1.7246500E+00
   4.6380259E-04   6.6864495E+04   -1.7240799E+00
   4.6594448E-04   6.6335537E+04   -1.7235101E+00
   4.6809626E-04   6.5810937E+04   -1.7229406E+00
   4.7025797E-04   6.5290657E+04   -1.7223714E+00
   4.7242967E-04   6.4774660E+04   -1.7218025E+00
   4.7461140E-04   6.4262910E+04   -1.7212338E+00
   4.7680321E-04   6.3755369E+04   -1.7206655E+00
   4.7900514E-04   6.3252002E+04   -1.7200975E+00
   4.8121723E-04   6.2752774E+04   -1.7195298E+00
   4.8343954E-04   6.2257649E+04   -1.7189624E+00
   4.8567212E-04   6.1766592E+04   -1.7183953E+00
   4.8791500E-04   6.1279569E+04   -1.7178285E+00
   4.9016825E-04   6.0796544E+04   -1.7172621E+00
   4.9243189E-04   6.0317484E+04   -1.7166960E+00
   4.9470600E-04   5.9842355E+04   -1.7161303E+00
   4.9699060E-04   5.9371123E+04   -1.7155649E+00
   4.9928575E-04   5.8903755E+04   -1.7149999E+00
   5.0159151E-04   5.8440218E+04   -1.7144353E+00
   5.0390791E-04   5.7980480E+04   -1.7138710E+00
   5.0623501E-04   5.7524508E+04   -1.7133071E+00
   5.0857286E-04   5.7072270E+04   -1.7127435E+00
   5.1092150E-04   5.6623735E+04   -1.7121804E+00
   5.1328099E-04   5.6178870E+04   -1.7116176E+00
   5.1565137E-04   5.5737645E+04   -1.7110553E+00
   5.1803270E-04   5.5300029E+04   -1.7104933E+00
   5.2042503E-04   5.4865990E+04   -1.7099318E+00
   5.2282841E-04   5.4435499E+04   -1.7093706E+00
   5.2524289E-04   5.4008525E+04   -1.7088099E+00
   5.2766851E-04   5.3585039E+04   -1.7082496E+00
   5.3010534E-04   5.3165010E+04   -1.7076898E+00
   5.3255342E-04   5.2748410E+04   -1.7071303E+00
   5.3501281E-04   5.2335209E+04   -1.7065714E+00
   5.3748356E-04   5.1925379E+04   -1.7060128E+00
   5.3996571E-04   5.1518890E+04   -1.7054547E+00
   5.4245933E-04   5.1115715E+04   -1.7048971E+00
   5.4496446E-04   5.0715825E+04   -1.7043399E+00
   5.4748117E-04   5.0319193E+04   -1.7037832E+00
   5.5000949E-04   4.9925791E+04   -1.7032270E+00
   5.5254949E-04   4.9535592E+04   -1.7026712E+00
   5.5510123E-04   4.9148568E+04   -1.7021160E+00
   5.5766474E-04   4.8764692E+04   -1.7015612E+00
   5.6024010E-04   4.8383938E+04   -1.7010069E+00
   5.6282734E-04   4.8006280E+04   -1.7004531E+00
   5.6542654E-04   4.7631691E+04   -1.6998998E+00
   5.6803774E-04   4.7260145E+04   -1.6993470E+00
   5.7066099E-04   4.6891617E+04   -1.6987948E+00
   5.7329637E-04   4.6526081E+04   -1.6982430E+00
   5.7594391E-04   4.6163512E+04   -1.6976918E+00
   5.7860368E-04   4.5803884E+04   -1.6971411E+00
   5.8127573E-04   4.5447174E+04   -1.6965910E+00
   5.8396012E-04   4.5093355E+04   -1.6960414E+00
   5.8665691E-04   4.4742405E+04   -1.6954923E+00
   5.8936616E-04   4.4394298E+04   -1.6949438E+00
   5.9208791E-04   4.4049010E+04   -1.6943958E+00
   5.9482223E-04   4.3706519E+04   -1.6938484E+00
   5.9756919E-04   4.3366799E+04   -1.6933016E+00
   6.0032882E-04   4.3029829E+04   -1.6927553E+00
   6.0310120E-04   4.2695584E+04   -1.6922096E+00
   6.0588639E-04   4.2364042E+04   -1.6916645E+00
   6.0868443E-04   4.2035181E+04   -1.6911199E+00
   6.1149540E-04   4.1708976E+04   -1.6905760E+00
   6.1431935E-04   4.1385407E+04   -1.6900326E+00
   6.1715634E-04   4.1064451E+04   -1.6894899E+00
   6.2000644E-04   4.0746085E+04   -1.6889477E+00
   6.2286969E-04   4.0430289E+04   -1.6884062E+00
