#        a       HoverH0(a)       dlogHdloga_of_a(a)
   1.0000000E-04   1.1418992E+06   -1.8971707E+00
   1.0046181E-04   1.1319622E+06   -1.8967938E+00
   1.0092575E-04   1.1221135E+06   -1.8964160E+00
   1.0139184E-04   1.1123525E+06   -1.8960370E+00
   1.0186008E-04   1.1026784E+06   -1.8956571E+00
   1.0233048E-04   1.0930903E+06   -1.8952761E+00
   1.0280305E-04   1.0835875E+06   -1.8948942E+00
   1.0327781E-04   1.0741691E+06   -1.8945112E+00
   1.0375475E-04   1.0648345E+06   -1.8941272E+00
   1.0423390E-04   1.0555830E+06   -1.8937421E+00
   1.0471527E-04   1.0464136E+06   -1.8933560E+00
   1.0519885E-04   1.0373257E+06   -1.8929690E+00
   1.0568467E-04   1.0283186E+06   -1.8925809E+00
   1.0617274E-04   1.0193916E+06   -1.8921917E+00
   1.0666305E-04   1.0105438E+06   -1.8918016E+00
   1.0715563E-04   1.0017747E+06   -1.8914104E+00
   1.0765049E-04   9.9308342E+05   -1.8910182E+00
   1.0814763E-04   9.8446935E+05   -1.8906250E+00
   1.0864707E-04   9.7593176E+05   -1.8902308E+00
   1.0914881E-04   9.6746997E+05   -1.8898355E+00
   1.0965287E-04   9.5908330E+05   -1.8894393E+00
   1.1015926E-04   9.5077107E+05   -1.8890420E+00
   1.1066799E-04   9.4253260E+05   -1.8886437E+00
   1.1117906E-04   9.3436724E+05   -1.8882443E+00
   1.1169250E-04   9.2627433E+05   -1.8878440E+00
   1.1220831E-04   9.1825320E+05   -1.8874426E+00
   1.1272650E-04   9.1030322E+05   -1.8870402E+00
   1.1324708E-04   9.0242374E+05   -1.8866368E+00
   1.1377007E-04   8.9461414E+05   -1.8862324E+00
   1.1429547E-04   8.8687377E+05   -1.8858270E+00
   1.1482330E-04   8.7920202E+05   -1.8854205E+00
   1.1535356E-04   8.7159827E+05   -1.8850130E+00
   1.1588628E-04   8.6406190E+05   -1.8846045E+00
   1.1642145E-04   8.5659231E+05   -1.8841950E+00
   1.1695910E-04   8.4918889E+05   -1.8837845E+00
   1.1749923E-04   8.4185106E+05   -1.8833730E+00
   1.1804185E-04   8.3457822E+05   -1.8829605E+00
   1.1858698E-04   8.2736978E+05   -1.8825469E+00
   1.1913463E-04   8.2022517E+05   -1.8821323E+00
   1.1968481E-04   8.1314381E+05   -1.8817168E+00
   1.2023752E-04   8.0612513E+05   -1.8813002E+00
   1.2079279E-04   7.9916857E+05   -1.8808826E+00
   1.2135063E-04   7.9227357E+05   -1.8804640E+00
   1.2191104E-04   7.8543957E+05   -1.8800444E+00
   1.2247403E-04   7.7866603E+05   -1.8796237E+00
   1.2303963E-04   7.7195240E+05   -1.8792021E+00
   1.2360784E-04   7.6529815E+05   -1.8787795E+00
   1.2417868E-04   7.5870273E+05   -1.8783559E+00
   1.2475215E-04   7.5216562E+05   -1.8779312E+00
   1.2532826E-04   7.4568630E+05   -1.8775056E+00
   1.2590704E-04   7.3926424E+05   -1.8770789E+00
   1.2648850E-04   7.3289894E+05   -1.8766513E+00
   1.2707263E-04   7.2658987E+05   -1.8762226E+00
   1.2765947E-04   7.2033654E+05   -1.8757930E+00
   1.2824901E-04   7.1413845E+05   -1.8753624E+00
   1.2884128E-04   7.0799509E+05   -1.8749307E+00
   1.2943628E-04   7.0190598E+05   -1.8744981E+00
   1.3003403E-04   6.9587063E+05   -1.8740645E+00
   1.3063454E-04   6.8988855E+05   -1.8736299E+00
   1.3123783E-04   6.8395927E+05   -1.8731943E+00
   1.3184390E-04   6.7808231E+05   -1.8727577E+00
   1.3245277E-04   6.7225720E+05   -1.8723201E+00
   1.3306445E-04   6.6648347E+05   -1.8718815E+00
   1.3367895E-04   6.6076068E+05   -1.8714419E+00
   1.3429630E-04   6.5508834E+05   -1.8710014E+00
   1.3491649E-04   6.4946603E+05   -1.8705599E+00
   1.3553955E-04   6.4389328E+05   -1.8701173E+00
   1.3616548E-04   6.3836965E+05   -1.8696738E+00
   1.3679431E-04   6.3289470E+05   -1.8692294E+00
   1.3742604E-04   6.2746799E+05   -1.8687839E+00
   1.3806069E-04   6.2208909E+05   -1.8683375E+00
   1.3869827E-04   6.1675757E+05   -1.8678901E+00
   1.3933879E-04   6.1147300E+05   -1.8674417E+00
   1.3998227E-04   6.0623497E+05   -1.8669924E+00
   1.4062872E-04   6.0104305E+05   -1.8665420E+00
   1.4127816E-04   5.9589684E+05   -1.8660908E+00
   1.4193060E-04   5.9079591E+05   -1.8656385E+00
   1.4258605E-04   5.8573988E+05   -1.8651853E+00
   1.4324453E-04   5.8072833E+05   -1.8647311E+00
   1.4390605E-04   5.7576086E+05   -1.8642760E+00
   1.4457062E-04   5.7083708E+05   -1.8638199E+00
   1.4523826E-04   5.6595660E+05   -1.8633628E+00
   1.4590899E-04   5.6111903E+05   -1.8629048E+00
   1.4658281E-04   5.5632399E+05   -1.8624458E+00
   1.4725974E-04   5.5157108E+05   -1.8619859E+00
   1.4793981E-04   5.4685995E+05   -1.8615250E+00
   1.4862301E-04   5.4219020E+05   -1.8610632E+00
   1.4930936E-04   5.3756148E+05   -1.8606004E+00
   1.4999889E-04   5.3297341E+05   -1.8601367E+00
   1.5069160E-04   5.2842563E+05   -1.8596721E+00
   1.5138751E-04   5.2391777E+05   -1.8592065E+00
   1.5208663E-04   5.1944949E+05   -1.8587399E+00
   1.5278899E-04   5.1502042E+05   -1.8582724E+00
   1.5349458E-04   5.1063022E+05   -1.8578040E+00
   1.5420343E-04   5.0627854E+05   -1.8573347E+00
   1.5491556E-04   5.0196503E+05   -1.8568644E+00
   1.5563098E-04   4.9768935E+05   -1.8563932E+00
   1.5634970E-04   4.9345116E+05   -1.8559211E+00
   1.5707174E-04   4.8925013E+05   -1.8554481E+00
   1.5779711E-04   4.8508593E+05   -1.8549741E+00
   1.5852584E-04   4.8095821E+05   -1.8544992E+00
   1.5925792E-04   4.7686667E+05   -1.8540234E+00
   1.5999339E-04   4.7281097E+05   -1.8535467E+00
   1.6073226E-04   4.6879079E+05   -1.8530691E+00
   1.6147454E-04   4.6480582E+05   -1.8525906E+00
   1.6222024E-04   4.6085574E+05   -1.8521112E+00
   1.6296939E-04   4.5694024E+05   -1.8516308E+00
   1.6372200E-04   4.5305901E+05   -1.8511496E+00
   1.6447809E-04   4.4921175E+05   -1.8506674E+00
   1.6523767E-04   4.4539814E+05   -1.8501844E+00
   1.6600075E-04   4.4161790E+05   -1.8497005E+00
   1.6676736E-04   4.3787072E+05   -1.8492157E+00
   1.6753751E-04   4.3415630E+05   -1.8487300E+00
   1.6831122E-04   4.3047435E+05   -1.8482434E+00
   1.6908849E-04   4.2682459E+05   -1.8477559E+00
   1.6986936E-04   4.2320673E+05   -1.8472676E+00
   1.7065384E-04   4.1962047E+05   -1.8467783E+00
   1.7144193E-04   4.1606554E+05   -1.8462882E+00
   1.7223367E-04   4.1254167E+05   -1.8457973E+00
   1.7302906E-04   4.0904856E+05   -1.8453054E+00
   1.7382813E-04   4.0558595E+05   -1.8448127E+00
   1.7463089E-04   4.0215357E+05   -1.8443192E+00
   1.7543735E-04   3.9875114E+05   -1.8438247E+00
   1.7624754E-04   3.9537840E+05   -1.8433295E+00
   1.7706147E-04   3.9203508E+05   -1.8428333E+00
   1.7787916E-04   3.8872093E+05   -1.8423363E+00
   1.7870062E-04   3.8543567E+05   -1.8418385E+00
   1.7952588E-04   3.8217906E+05   -1.8413398E+00
   1.8035495E-04   3.7895083E+05   -1.8408403E+00
   1.8118785E-04   3.7575073E+05   -1.8403400E+00
   1.8202459E-04   3.7257852E+05   -1.8398388E+00
   1.8286520E-04   3.6943395E+05   -1.8393368E+00
   1.8370969E-04   3.6631676E+05   -1.8388339E+00
   1.8455808E-04   3.6322672E+05   -1.8383303E+00
   1.8541039E-04   3.6016358E+05   -1.8378258E+00
   1.8626663E-04   3.5712710E+05   -1.8373205E+00
   1.8712683E-04   3.5411705E+05   -1.8368144E+00
   1.8799100E-04   3.5113319E+05   -1.8363074E+00
   1.8885917E-04   3.4817528E+05   -1.8357997E+00
   1.8973134E-04   3.4524310E+05   -1.8352911E+00
   1.9060754E-04   3.4233641E+05   -1.8347818E+00
   1.9148778E-04   3.3945500E+05   -1.8342717E+00
   1.9237209E-04   3.3659863E+05   -1.8337607E+00
   1.9326049E-04   3.3376708E+05   -1.8332490E+00
   1.9415299E-04   3.3096013E+05   -1.8327365E+00
   1.9504960E-04   3.2817756E+05   -1.8322232E+00
   1.9595036E-04   3.2541916E+05   -1.8317091E+00
   1.9685528E-04   3.2268471E+05   -1.8311943E+00
   1.9776438E-04   3.1997399E+05   -1.8306787E+00
   1.9867768E-04   3.1728680E+05   -1.8301623E+00
   1.9959519E-04   3.1462293E+05   -1.8296451E+00
   2.0051694E-04   3.1198216E+05   -1.8291272E+00
   2.0144295E-04   3.0936430E+05   -1.8286086E+00
   2.0237324E-04   3.0676914E+05   -1.8280892E+00
   2.0330782E-04   3.0419648E+05   -1.8275690E+00
   2.0424671E-04   3.0164612E+05   -1.8270481E+00
   2.0518995E-04   2.9911785E+05   -1.8265264E+00
   2.0613754E-04   2.9661149E+05   -1.8260040E+00
   2.0708950E-04   2.9412685E+05   -1.8254809E+00
   2.0804586E-04   2.9166371E+05   -1.8249571E+00
   2.0900664E-04   2.8922191E+05   -1.8244325E+00
   2.0997185E-04   2.8680124E+05   -1.8239072E+00
   2.1094152E-04   2.8440152E+05   -1.8233812E+00
   2.1191567E-04   2.8202256E+05   -1.8228545E+00
   2.1289432E-04   2.7966418E+05   -1.8223271E+00
   2.1387749E-04   2.7732620E+05   -1.8217989E+00
   2.1486520E-04   2.7500843E+05   -1.8212701E+00
   2.1585747E-04   2.7271070E+05   -1.8207406E+00
   2.1685432E-04   2.7043282E+05   -1.8202103E+00
   2.1785578E-04   2.6817463E+05   -1.8196794E+00
   2.1886186E-04   2.6593594E+05   -1.8191479E+00
   2.1987259E-04   2.6371659E+05   -1.8186156E+00
   2.2088798E-04   2.6151641E+05   -1.8180826E+00
   2.2190807E-04   2.5933521E+05   -1.8175490E+00
   2.2293286E-04   2.5717284E+05   -1.8170148E+00
   2.2396239E-04   2.5502913E+05   -1.8164798E+00
   2.2499667E-04   2.5290392E+05   -1.8159442E+00
   2.2603573E-04   2.5079703E+05   -1.8154080E+00
   2.2707958E-04   2.4870831E+05   -1.8148711E+00
   2.2812826E-04   2.4663759E+05   -1.8143336E+00
   2.2918178E-04   2.4458472E+05   -1.8137954E+00
   2.3024017E-04   2.4254954E+05   -1.8132566E+00
   2.3130344E-04   2.4053189E+05   -1.8127171E+00
   2.3237162E-04   2.3853162E+05   -1.8121771E+00
   2.3344474E-04   2.3654857E+05   -1.8116364E+00
   2.3452281E-04   2.3458260E+05   -1.8110951E+00
   2.3560586E-04   2.3263354E+05   -1.8105532E+00
   2.3669392E-04   2.3070126E+05   -1.8100107E+00
   2.3778699E-04   2.2878559E+05   -1.8094676E+00
   2.3888512E-04   2.2688640E+05   -1.8089239E+00
   2.3998831E-04   2.2500354E+05   -1.8083796E+00
   2.4109661E-04   2.2313687E+05   -1.8078347E+00
   2.4221001E-04   2.2128623E+05   -1.8072892E+00
   2.4332857E-04   2.1945150E+05   -1.8067432E+00
   2.4445228E-04   2.1763253E+05   -1.8061966E+00
   2.4558119E-04   2.1582918E+05   -1.8056494E+00
   2.4671531E-04   2.1404131E+05   -1.8051017E+00
   2.4785467E-04   2.1226879E+05   -1.8045534E+00
   2.4899928E-04   2.1051148E+05   -1.8040045E+00
   2.5014919E-04   2.0876924E+05   -1.8034551E+00
   2.5130440E-04   2.0704195E+05   -1.8029052E+00
   2.5246495E-04   2.0532947E+05   -1.8023547E+00
   2.5363086E-04   2.0363167E+05   -1.8018037E+00
   2.5480216E-04   2.0194842E+05   -1.8012521E+00
   2.5597886E-04   2.0027960E+05   -1.8007001E+00
   2.5716100E-04   1.9862507E+05   -1.8001475E+00
   2.5834859E-04   1.9698471E+05   -1.7995944E+00
   2.5954168E-04   1.9535840E+05   -1.7990408E+00
   2.6074027E-04   1.9374600E+05   -1.7984867E+00
   2.6194439E-04   1.9214741E+05   -1.7979321E+00
   2.6315408E-04   1.9056249E+05   -1.7973771E+00
   2.6436935E-04   1.8899114E+05   -1.7968215E+00
   2.6559024E-04   1.8743321E+05   -1.7962654E+00
   2.6681676E-04   1.8588861E+05   -1.7957089E+00
   2.6804895E-04   1.8435721E+05   -1.7951519E+00
   2.6928683E-04   1.8283889E+05   -1.7945945E+00
   2.7053042E-04   1.8133355E+05   -1.7940366E+00
   2.7177976E-04   1.7984106E+05   -1.7934782E+00
   2.7303487E-04   1.7836131E+05   -1.7929194E+00
   2.7429577E-04   1.7689419E+05   -1.7923601E+00
   2.7556250E-04   1.7543960E+05   -1.7918004E+00
   2.7683507E-04   1.7399741E+05   -1.7912403E+00
   2.7811353E-04   1.7256753E+05   -1.7906797E+00
   2.7939788E-04   1.7114984E+05   -1.7901188E+00
   2.8068817E-04   1.6974423E+05   -1.7895574E+00
   2.8198442E-04   1.6835060E+05   -1.7889956E+00
   2.8328665E-04   1.6696885E+05   -1.7884334E+00
   2.8459490E-04   1.6559887E+05   -1.7878708E+00
   2.8590919E-04   1.6424055E+05   -1.7873078E+00
   2.8722955E-04   1.6289380E+05   -1.7867444E+00
   2.8855600E-04   1.6155851E+05   -1.7861806E+00
   2.8988859E-04   1.6023459E+05   -1.7856165E+00
   2.9122732E-04   1.5892192E+05   -1.7850520E+00
   2.9257224E-04   1.5762042E+05   -1.7844871E+00
   2.9392337E-04   1.5632999E+05   -1.7839218E+00
   2.9528074E-04   1.5505052E+05   -1.7833562E+00
   2.9664438E-04   1.5378193E+05   -1.7827903E+00
   2.9801431E-04   1.5252411E+05   -1.7822240E+00
   2.9939057E-04   1.5127698E+05   -1.7816574E+00
   3.0077319E-04   1.5004043E+05   -1.7810904E+00
   3.0216219E-04   1.4881438E+05   -1.7805232E+00
   3.0355761E-04   1.4759874E+05   -1.7799556E+00
   3.0495947E-04   1.4639341E+05   -1.7793876E+00
   3.0636780E-04   1.4519830E+05   -1.7788194E+00
   3.0778264E-04   1.4401333E+05   -1.7782509E+00
   3.0920401E-04   1.4283840E+05   -1.7776821E+00
   3.1063195E-04   1.4167343E+05   -1.7771130E+00
   3.1206648E-04   1.4051833E+05   -1.7765436E+00
   3.1350764E-04   1.3937301E+05   -1.7759739E+00
   3.1495545E-04   1.3823739E+05   -1.7754039E+00
   3.1640994E-04   1.3711138E+05   -1.7748337E+00
   3.1787116E-04   1.3599490E+05   -1.7742632E+00
   3.1933912E-04   1.3488787E+05   -1.7736925E+00
   3.2081386E-04   1.3379021E+05   -1.7731215E+00
   3.2229541E-04   1.3270182E+05   -1.7725503E+00
   3.2378381E-04   1.3162263E+05   -1.7719788E+00
   3.2527908E-04   1.3055257E+05   -1.7714071E+00
   3.2678125E-04   1.2949154E+05   -1.7708352E+00
   3.2829036E-04   1.2843948E+05   -1.7702630E+00
   3.2980644E-04   1.2739630E+05   -1.7696907E+00
   3.3132952E-04   1.2636192E+05   -1.7691181E+00
   3.3285963E-04   1.2533628E+05   -1.7685453E+00
   3.3439681E-04   1.2431929E+05   -1.7679724E+00
   3.3594109E-04   1.2331087E+05   -1.7673992E+00
   3.3749250E-04   1.2231096E+05   -1.7668259E+00
   3.3905108E-04   1.2131948E+05   -1.7662523E+00
   3.4061685E-04   1.2033635E+05   -1.7656786E+00
   3.4218986E-04   1.1936150E+05   -1.7651048E+00
   3.4377013E-04   1.1839487E+05   -1.7645308E+00
   3.4535769E-04   1.1743637E+05   -1.7639566E+00
   3.4695259E-04   1.1648594E+05   -1.7633823E+00
   3.4855485E-04   1.1554351E+05   -1.7628078E+00
   3.5016452E-04   1.1460901E+05   -1.7622332E+00
   3.5178161E-04   1.1368237E+05   -1.7616585E+00
   3.5340618E-04   1.1276351E+05   -1.7610836E+00
   3.5503824E-04   1.1185239E+05   -1.7605086E+00
   3.5667785E-04   1.1094891E+05   -1.7599335E+00
   3.5832502E-04   1.1005303E+05   -1.7593583E+00
   3.5997981E-04   1.0916467E+05   -1.7587830E+00
   3.6164223E-04   1.0828376E+05   -1.7582076E+00
   3.6331233E-04   1.0741025E+05   -1.7576322E+00
   3.6499015E-04   1.0654407E+05   -1.7570566E+00
   3.6667571E-04   1.0568516E+05   -1.7564810E+00
   3.6836906E-04   1.0483345E+05   -1.7559053E+00
   3.7007022E-04   1.0398887E+05   -1.7553295E+00
   3.7177925E-04   1.0315138E+05   -1.7547537E+00
   3.7349616E-04   1.0232090E+05   -1.7541778E+00
   3.7522101E-04   1.0149737E+05   -1.7536019E+00
   3.7695382E-04   1.0068075E+05   -1.7530259E+00
   3.7869463E-04   9.9870954E+04   -1.7524499E+00
   3.8044348E-04   9.9067937E+04   -1.7518739E+00
   3.8220041E-04   9.8271638E+04   -1.7512979E+00
   3.8396545E-04   9.7481999E+04   -1.7507218E+00
   3.8573864E-04   9.6698961E+04   -1.7501457E+00
   3.8752002E-04   9.5922467E+04   -1.7495697E+00
   3.8930963E-04   9.5152461E+04   -1.7489936E+00
   3.9110750E-04   9.4388887E+04   -1.7484176E+00
   3.9291368E-04   9.3631689E+04   -1.7478415E+00
   3.9472820E-04   9.2880812E+04   -1.7472655E+00
   3.9655109E-04   9.2136201E+04   -1.7466895E+00
   3.9838241E-04   9.1397801E+04   -1.7461136E+00
   4.0022218E-04   9.0665560E+04   -1.7455376E+00
   4.0207045E-04   8.9939425E+04   -1.7449618E+00
   4.0392725E-04   8.9219341E+04   -1.7443860E+00
   4.0579263E-04   8.8505258E+04   -1.7438102E+00
   4.0766662E-04   8.7797123E+04   -1.7432345E+00
   4.0954927E-04   8.7094884E+04   -1.7426589E+00
   4.1144061E-04   8.6398492E+04   -1.7420834E+00
   4.1334068E-04   8.5707895E+04   -1.7415079E+00
   4.1524953E-04   8.5023043E+04   -1.7409325E+00
   4.1716720E-04   8.4343887E+04   -1.7403572E+00
   4.1909372E-04   8.3670378E+04   -1.7397821E+00
   4.2102914E-04   8.3002467E+04   -1.7392070E+00
   4.2297350E-04   8.2340106E+04   -1.7386320E+00
   4.2492683E-04   8.1683247E+04   -1.7380572E+00
   4.2688919E-04   8.1031843E+04   -1.7374825E+00
   4.2886061E-04   8.0385846E+04   -1.7369079E+00
   4.3084113E-04   7.9745211E+04   -1.7363335E+00
   4.3283080E-04   7.9109890E+04   -1.7357592E+00
   4.3482966E-04   7.8479839E+04   -1.7351850E+00
   4.3683775E-04   7.7855011E+04   -1.7346110E+00
   4.3885511E-04   7.7235362E+04   -1.7340372E+00
   4.4088179E-04   7.6620847E+04   -1.7334635E+00
   4.4291783E-04   7.6011423E+04   -1.7328901E+00
   4.4496327E-04   7.5407045E+04   -1.7323168E+00
   4.4701816E-04   7.4807670E+04   -1.7317436E+00
   4.4908253E-04   7.4213255E+04   -1.7311707E+00
   4.5115644E-04   7.3623758E+04   -1.7305980E+00
   4.5323993E-04   7.3039136E+04   -1.7300254E+00
   4.5533304E-04   7.2459348E+04   -1.7294531E+00
   4.5743582E-04   7.1884351E+04   -1.7288810E+00
   4.5954830E-04   7.1314105E+04   -1.7283091E+00
   4.6167054E-04   7.0748569E+04   -1.7277375E+00
   4.6380259E-04   7.0187703E+04   -1.7271660E+00
   4.6594448E-04   6.9631466E+04   -1.7265949E+00
   4.6809626E-04   6.9079820E+04   -1.7260239E+00
   4.7025797E-04   6.8532723E+04   -1.7254532E+00
   4.7242967E-04   6.7990139E+04   -1.7248828E+00
   4.7461140E-04   6.7452027E+04   -1.7243126E+00
   4.7680321E-04   6.6918350E+04   -1.7237427E+00
   4.7900514E-04   6.6389070E+04   -1.7231731E+00
   4.8121723E-04   6.5864149E+04   -1.7226038E+00
   4.8343954E-04   6.5343550E+04   -1.7220347E+00
   4.8567212E-04   6.4827236E+04   -1.7214659E+00
   4.8791500E-04   6.4315169E+04   -1.7208975E+00
   4.9016825E-04   6.3807315E+04   -1.7203293E+00
   4.9243189E-04   6.3303636E+04   -1.7197615E+00
   4.9470600E-04   6.2804098E+04   -1.7191939E+00
   4.9699060E-04   6.2308664E+04   -1.7186267E+00
   4.9928575E-04   6.1817301E+04   -1.7180598E+00
   5.0159151E-04   6.1329972E+04   -1.7174932E+00
   5.0390791E-04   6.0846643E+04   -1.7169270E+00
   5.0623501E-04   6.0367282E+04   -1.7163611E+00
   5.0857286E-04   5.9891852E+04   -1.7157956E+00
   5.1092150E-04   5.9420322E+04   -1.7152304E+00
   5.1328099E-04   5.8952658E+04   -1.7146656E+00
   5.1565137E-04   5.8488827E+04   -1.7141012E+00
   5.1803270E-04   5.8028796E+04   -1.7135371E+00
   5.2042503E-04   5.7572533E+04   -1.7129734E+00
   5.2282841E-04   5.7120005E+04   -1.7124101E+00
   5.2524289E-04   5.6671182E+04   -1.7118472E+00
   5.2766851E-04   5.6226030E+04   -1.7112846E+00
   5.3010534E-04   5.5784520E+04   -1.7107225E+00
   5.3255342E-04   5.5346621E+04   -1.7101608E+00
   5.3501281E-04   5.4912300E+04   -1.7095995E+00
   5.3748356E-04   5.4481529E+04   -1.7090386E+00
   5.3996571E-04   5.4054277E+04   -1.7084781E+00
   5.4245933E-04   5.3630514E+04   -1.7079180E+00
   5.4496446E-04   5.3210210E+04   -1.7073584E+00
   5.4748117E-04   5.2793336E+04   -1.7067993E+00
   5.5000949E-04   5.2379863E+04   -1.7062405E+00
   5.5254949E-04   5.1969763E+04   -1.7056822E+00
   5.5510123E-04   5.1563005E+04   -1.7051244E+00
   5.5766474E-04   5.1159563E+04   -1.7045670E+00
   5.6024010E-04   5.0759407E+04   -1.7040101E+00
   5.6282734E-04   5.0362511E+04   -1.7034537E+00
   5.6542654E-04   4.9968846E+04   -1.7028977E+00
   5.6803774E-04   4.9578385E+04   -1.7023422E+00
   5.7066099E-04   4.9191101E+04   -1.7017873E+00
   5.7329637E-04   4.8806967E+04   -1.7012328E+00
   5.7594391E-04   4.8425956E+04   -1.7006787E+00
   5.7860368E-04   4.8048043E+04   -1.7001252E+00
   5.8127573E-04   4.7673200E+04   -1.6995722E+00
   5.8396012E-04   4.7301402E+04   -1.6990198E+00
   5.8665691E-04   4.6932623E+04   -1.6984678E+00
   5.8936616E-04   4.6566837E+04   -1.6979164E+00
   5.9208791E-04   4.6204020E+04   -1.6973654E+00
   5.9482223E-04   4.5844146E+04   -1.6968151E+00
   5.9756919E-04   4.5487190E+04   -1.6962652E+00
   6.0032882E-04   4.5133127E+04   -1.6957159E+00
   6.0310120E-04   4.4781934E+04   -1.6951671E+00
   6.0588639E-04   4.4433586E+04   -1.6946189E+00
   6.0868443E-04   4.4088059E+04   -1.6940713E+00
   6.1149540E-04   4.3745329E+04   -1.6935242E+00
   6.1431935E-04   4.3405373E+04   -1.6929777E+00
   6.1715634E-04   4.3068167E+04   -1.6924318E+00
   6.2000644E-04   4.2733689E+04   -1.6918864E+00
   6.2286969E-04   4.2401914E+04   -1.6913416E+00
