#        a       HoverH0(a)       dlogHdloga_of_a(a)
   1.0000000E-04   1.1610748E+06   -1.8996720E+00
   1.0046181E-04   1.1509576E+06   -1.8993020E+00
   1.0092575E-04   1.1409305E+06   -1.8989310E+00
   1.0139184E-04   1.1309927E+06   -1.8985589E+00
   1.0186008E-04   1.1211434E+06   -1.8981858E+00
   1.0233048E-04   1.1113818E+06   -1.8978117E+00
   1.0280305E-04   1.1017070E+06   -1.8974366E+00
   1.0327781E-04   1.0921184E+06   -1.8970604E+00
   1.0375475E-04   1.0826151E+06   -1.8966833E+00
   1.0423390E-04   1.0731964E+06   -1.8963051E+00
   1.0471527E-04   1.0638614E+06   -1.8959259E+00
   1.0519885E-04   1.0546095E+06   -1.8955456E+00
   1.0568467E-04   1.0454399E+06   -1.8951644E+00
   1.0617274E-04   1.0363519E+06   -1.8947821E+00
   1.0666305E-04   1.0273447E+06   -1.8943988E+00
   1.0715563E-04   1.0184175E+06   -1.8940145E+00
   1.0765049E-04   1.0095697E+06   -1.8936291E+00
   1.0814763E-04   1.0008006E+06   -1.8932428E+00
   1.0864707E-04   9.9210940E+05   -1.8928554E+00
   1.0914881E-04   9.8349544E+05   -1.8924670E+00
   1.0965287E-04   9.7495801E+05   -1.8920775E+00
   1.1015926E-04   9.6649643E+05   -1.8916871E+00
   1.1066799E-04   9.5811001E+05   -1.8912956E+00
   1.1117906E-04   9.4979808E+05   -1.8909031E+00
   1.1169250E-04   9.4155996E+05   -1.8905096E+00
   1.1220831E-04   9.3339499E+05   -1.8901151E+00
   1.1272650E-04   9.2530251E+05   -1.8897195E+00
   1.1324708E-04   9.1728186E+05   -1.8893230E+00
   1.1377007E-04   9.0933241E+05   -1.8889254E+00
   1.1429547E-04   9.0145349E+05   -1.8885268E+00
   1.1482330E-04   8.9364449E+05   -1.8881271E+00
   1.1535356E-04   8.8590477E+05   -1.8877265E+00
   1.1588628E-04   8.7823371E+05   -1.8873248E+00
   1.1642145E-04   8.7063068E+05   -1.8869221E+00
   1.1695910E-04   8.6309508E+05   -1.8865184E+00
   1.1749923E-04   8.5562629E+05   -1.8861137E+00
   1.1804185E-04   8.4822371E+05   -1.8857080E+00
   1.1858698E-04   8.4088676E+05   -1.8853012E+00
   1.1913463E-04   8.3361483E+05   -1.8848934E+00
   1.1968481E-04   8.2640734E+05   -1.8844847E+00
   1.2023752E-04   8.1926372E+05   -1.8840749E+00
   1.2079279E-04   8.1218338E+05   -1.8836641E+00
   1.2135063E-04   8.0516576E+05   -1.8832522E+00
   1.2191104E-04   7.9821029E+05   -1.8828394E+00
   1.2247403E-04   7.9131642E+05   -1.8824255E+00
   1.2303963E-04   7.8448358E+05   -1.8820107E+00
   1.2360784E-04   7.7771123E+05   -1.8815948E+00
   1.2417868E-04   7.7099882E+05   -1.8811779E+00
   1.2475215E-04   7.6434582E+05   -1.8807600E+00
   1.2532826E-04   7.5775168E+05   -1.8803411E+00
   1.2590704E-04   7.5121589E+05   -1.8799212E+00
   1.2648850E-04   7.4473791E+05   -1.8795003E+00
   1.2707263E-04   7.3831723E+05   -1.8790784E+00
   1.2765947E-04   7.3195333E+05   -1.8786555E+00
   1.2824901E-04   7.2564570E+05   -1.8782315E+00
   1.2884128E-04   7.1939383E+05   -1.8778066E+00
   1.2943628E-04   7.1319722E+05   -1.8773807E+00
   1.3003403E-04   7.0705538E+05   -1.8769537E+00
   1.3063454E-04   7.0096781E+05   -1.8765258E+00
   1.3123783E-04   6.9493402E+05   -1.8760968E+00
   1.3184390E-04   6.8895353E+05   -1.8756669E+00
   1.3245277E-04   6.8302587E+05   -1.8752360E+00
   1.3306445E-04   6.7715055E+05   -1.8748040E+00
   1.3367895E-04   6.7132711E+05   -1.8743711E+00
   1.3429630E-04   6.6555508E+05   -1.8739372E+00
   1.3491649E-04   6.5983399E+05   -1.8735023E+00
   1.3553955E-04   6.5416340E+05   -1.8730664E+00
   1.3616548E-04   6.4854285E+05   -1.8726295E+00
   1.3679431E-04   6.4297188E+05   -1.8721916E+00
   1.3742604E-04   6.3745005E+05   -1.8717528E+00
   1.3806069E-04   6.3197693E+05   -1.8713129E+00
   1.3869827E-04   6.2655207E+05   -1.8708721E+00
   1.3933879E-04   6.2117504E+05   -1.8704303E+00
   1.3998227E-04   6.1584540E+05   -1.8699875E+00
   1.4062872E-04   6.1056275E+05   -1.8695437E+00
   1.4127816E-04   6.0532664E+05   -1.8690989E+00
   1.4193060E-04   6.0013667E+05   -1.8686532E+00
   1.4258605E-04   5.9499243E+05   -1.8682065E+00
   1.4324453E-04   5.8989349E+05   -1.8677588E+00
   1.4390605E-04   5.8483946E+05   -1.8673101E+00
   1.4457062E-04   5.7982993E+05   -1.8668605E+00
   1.4523826E-04   5.7486450E+05   -1.8664099E+00
   1.4590899E-04   5.6994278E+05   -1.8659583E+00
   1.4658281E-04   5.6506437E+05   -1.8655058E+00
   1.4725974E-04   5.6022889E+05   -1.8650522E+00
   1.4793981E-04   5.5543595E+05   -1.8645978E+00
   1.4862301E-04   5.5068517E+05   -1.8641424E+00
   1.4930936E-04   5.4597617E+05   -1.8636860E+00
   1.4999889E-04   5.4130857E+05   -1.8632286E+00
   1.5069160E-04   5.3668202E+05   -1.8627703E+00
   1.5138751E-04   5.3209613E+05   -1.8623111E+00
   1.5208663E-04   5.2755054E+05   -1.8618509E+00
   1.5278899E-04   5.2304490E+05   -1.8613897E+00
   1.5349458E-04   5.1857884E+05   -1.8609276E+00
   1.5420343E-04   5.1415201E+05   -1.8604646E+00
   1.5491556E-04   5.0976406E+05   -1.8600006E+00
   1.5563098E-04   5.0541464E+05   -1.8595356E+00
   1.5634970E-04   5.0110340E+05   -1.8590698E+00
   1.5707174E-04   4.9683000E+05   -1.8586030E+00
   1.5779711E-04   4.9259411E+05   -1.8581352E+00
   1.5852584E-04   4.8839539E+05   -1.8576665E+00
   1.5925792E-04   4.8423350E+05   -1.8571969E+00
   1.5999339E-04   4.8010812E+05   -1.8567264E+00
   1.6073226E-04   4.7601892E+05   -1.8562549E+00
   1.6147454E-04   4.7196557E+05   -1.8557825E+00
   1.6222024E-04   4.6794776E+05   -1.8553092E+00
   1.6296939E-04   4.6396516E+05   -1.8548350E+00
   1.6372200E-04   4.6001747E+05   -1.8543598E+00
   1.6447809E-04   4.5610436E+05   -1.8538838E+00
   1.6523767E-04   4.5222553E+05   -1.8534068E+00
   1.6600075E-04   4.4838068E+05   -1.8529289E+00
   1.6676736E-04   4.4456949E+05   -1.8524501E+00
   1.6753751E-04   4.4079167E+05   -1.8519704E+00
   1.6831122E-04   4.3704692E+05   -1.8514898E+00
   1.6908849E-04   4.3333495E+05   -1.8510083E+00
   1.6986936E-04   4.2965546E+05   -1.8505259E+00
   1.7065384E-04   4.2600815E+05   -1.8500426E+00
   1.7144193E-04   4.2239275E+05   -1.8495584E+00
   1.7223367E-04   4.1880897E+05   -1.8490733E+00
   1.7302906E-04   4.1525653E+05   -1.8485874E+00
   1.7382813E-04   4.1173514E+05   -1.8481005E+00
   1.7463089E-04   4.0824452E+05   -1.8476128E+00
   1.7543735E-04   4.0478442E+05   -1.8471242E+00
   1.7624754E-04   4.0135454E+05   -1.8466347E+00
   1.7706147E-04   3.9795462E+05   -1.8461443E+00
   1.7787916E-04   3.9458440E+05   -1.8456531E+00
   1.7870062E-04   3.9124360E+05   -1.8451610E+00
   1.7952588E-04   3.8793197E+05   -1.8446680E+00
   1.8035495E-04   3.8464924E+05   -1.8441742E+00
   1.8118785E-04   3.8139517E+05   -1.8436795E+00
   1.8202459E-04   3.7816948E+05   -1.8431840E+00
   1.8286520E-04   3.7497193E+05   -1.8426876E+00
   1.8370969E-04   3.7180227E+05   -1.8421904E+00
   1.8455808E-04   3.6866025E+05   -1.8416923E+00
   1.8541039E-04   3.6554562E+05   -1.8411934E+00
   1.8626663E-04   3.6245814E+05   -1.8406936E+00
   1.8712683E-04   3.5939756E+05   -1.8401930E+00
   1.8799100E-04   3.5636365E+05   -1.8396916E+00
   1.8885917E-04   3.5335617E+05   -1.8391893E+00
   1.8973134E-04   3.5037488E+05   -1.8386862E+00
   1.9060754E-04   3.4741955E+05   -1.8381823E+00
   1.9148778E-04   3.4448995E+05   -1.8376776E+00
   1.9237209E-04   3.4158585E+05   -1.8371721E+00
   1.9326049E-04   3.3870702E+05   -1.8366657E+00
   1.9415299E-04   3.3585323E+05   -1.8361585E+00
   1.9504960E-04   3.3302427E+05   -1.8356505E+00
   1.9595036E-04   3.3021991E+05   -1.8351418E+00
   1.9685528E-04   3.2743994E+05   -1.8346322E+00
   1.9776438E-04   3.2468413E+05   -1.8341218E+00
   1.9867768E-04   3.2195227E+05   -1.8336106E+00
   1.9959519E-04   3.1924415E+05   -1.8330987E+00
   2.0051694E-04   3.1655956E+05   -1.8325859E+00
   2.0144295E-04   3.1389828E+05   -1.8320724E+00
   2.0237324E-04   3.1126012E+05   -1.8315581E+00
   2.0330782E-04   3.0864485E+05   -1.8310431E+00
   2.0424671E-04   3.0605229E+05   -1.8305272E+00
   2.0518995E-04   3.0348223E+05   -1.8300106E+00
   2.0613754E-04   3.0093447E+05   -1.8294932E+00
   2.0708950E-04   2.9840881E+05   -1.8289751E+00
   2.0804586E-04   2.9590505E+05   -1.8284562E+00
   2.0900664E-04   2.9342300E+05   -1.8279366E+00
   2.0997185E-04   2.9096247E+05   -1.8274162E+00
   2.1094152E-04   2.8852326E+05   -1.8268950E+00
   2.1191567E-04   2.8610519E+05   -1.8263732E+00
   2.1289432E-04   2.8370807E+05   -1.8258506E+00
   2.1387749E-04   2.8133171E+05   -1.8253272E+00
   2.1486520E-04   2.7897593E+05   -1.8248032E+00
   2.1585747E-04   2.7664054E+05   -1.8242784E+00
   2.1685432E-04   2.7432536E+05   -1.8237529E+00
   2.1785578E-04   2.7203022E+05   -1.8232267E+00
   2.1886186E-04   2.6975494E+05   -1.8226997E+00
   2.1987259E-04   2.6749934E+05   -1.8221721E+00
   2.2088798E-04   2.6526324E+05   -1.8216437E+00
   2.2190807E-04   2.6304648E+05   -1.8211147E+00
   2.2293286E-04   2.6084888E+05   -1.8205850E+00
   2.2396239E-04   2.5867027E+05   -1.8200545E+00
   2.2499667E-04   2.5651048E+05   -1.8195234E+00
   2.2603573E-04   2.5436935E+05   -1.8189916E+00
   2.2707958E-04   2.5224671E+05   -1.8184592E+00
   2.2812826E-04   2.5014239E+05   -1.8179260E+00
   2.2918178E-04   2.4805625E+05   -1.8173922E+00
   2.3024017E-04   2.4598810E+05   -1.8168578E+00
   2.3130344E-04   2.4393780E+05   -1.8163226E+00
   2.3237162E-04   2.4190518E+05   -1.8157868E+00
   2.3344474E-04   2.3989010E+05   -1.8152504E+00
   2.3452281E-04   2.3789238E+05   -1.8147133E+00
   2.3560586E-04   2.3591189E+05   -1.8141756E+00
   2.3669392E-04   2.3394847E+05   -1.8136372E+00
   2.3778699E-04   2.3200196E+05   -1.8130982E+00
   2.3888512E-04   2.3007222E+05   -1.8125586E+00
   2.3998831E-04   2.2815910E+05   -1.8120184E+00
   2.4109661E-04   2.2626245E+05   -1.8114775E+00
   2.4221001E-04   2.2438213E+05   -1.8109360E+00
   2.4332857E-04   2.2251799E+05   -1.8103939E+00
   2.4445228E-04   2.2066988E+05   -1.8098512E+00
   2.4558119E-04   2.1883768E+05   -1.8093079E+00
   2.4671531E-04   2.1702123E+05   -1.8087641E+00
   2.4785467E-04   2.1522039E+05   -1.8082196E+00
   2.4899928E-04   2.1343504E+05   -1.8076745E+00
   2.5014919E-04   2.1166503E+05   -1.8071289E+00
   2.5130440E-04   2.0991022E+05   -1.8065827E+00
   2.5246495E-04   2.0817049E+05   -1.8060359E+00
   2.5363086E-04   2.0644570E+05   -1.8054885E+00
   2.5480216E-04   2.0473571E+05   -1.8049406E+00
   2.5597886E-04   2.0304040E+05   -1.8043922E+00
   2.5716100E-04   2.0135964E+05   -1.8038431E+00
   2.5834859E-04   1.9969329E+05   -1.8032936E+00
   2.5954168E-04   1.9804124E+05   -1.8027435E+00
   2.6074027E-04   1.9640335E+05   -1.8021928E+00
   2.6194439E-04   1.9477950E+05   -1.8016417E+00
   2.6315408E-04   1.9316957E+05   -1.8010900E+00
   2.6436935E-04   1.9157344E+05   -1.8005377E+00
   2.6559024E-04   1.8999097E+05   -1.7999850E+00
   2.6681676E-04   1.8842206E+05   -1.7994318E+00
   2.6804895E-04   1.8686658E+05   -1.7988780E+00
   2.6928683E-04   1.8532442E+05   -1.7983238E+00
   2.7053042E-04   1.8379545E+05   -1.7977690E+00
   2.7177976E-04   1.8227956E+05   -1.7972138E+00
   2.7303487E-04   1.8077664E+05   -1.7966581E+00
   2.7429577E-04   1.7928656E+05   -1.7961019E+00
   2.7556250E-04   1.7780923E+05   -1.7955452E+00
   2.7683507E-04   1.7634452E+05   -1.7949881E+00
   2.7811353E-04   1.7489233E+05   -1.7944305E+00
   2.7939788E-04   1.7345254E+05   -1.7938725E+00
   2.8068817E-04   1.7202504E+05   -1.7933140E+00
   2.8198442E-04   1.7060974E+05   -1.7927550E+00
   2.8328665E-04   1.6920651E+05   -1.7921956E+00
   2.8459490E-04   1.6781526E+05   -1.7916358E+00
   2.8590919E-04   1.6643587E+05   -1.7910755E+00
   2.8722955E-04   1.6506825E+05   -1.7905148E+00
   2.8855600E-04   1.6371230E+05   -1.7899537E+00
   2.8988859E-04   1.6236790E+05   -1.7893922E+00
   2.9122732E-04   1.6103495E+05   -1.7888303E+00
   2.9257224E-04   1.5971337E+05   -1.7882680E+00
   2.9392337E-04   1.5840303E+05   -1.7877052E+00
   2.9528074E-04   1.5710386E+05   -1.7871421E+00
   2.9664438E-04   1.5581575E+05   -1.7865786E+00
   2.9801431E-04   1.5453860E+05   -1.7860147E+00
   2.9939057E-04   1.5327232E+05   -1.7854505E+00
   3.0077319E-04   1.5201680E+05   -1.7848859E+00
   3.0216219E-04   1.5077197E+05   -1.7843209E+00
   3.0355761E-04   1.4953772E+05   -1.7837555E+00
   3.0495947E-04   1.4831396E+05   -1.7831898E+00
   3.0636780E-04   1.4710059E+05   -1.7826238E+00
   3.0778264E-04   1.4589754E+05   -1.7820574E+00
   3.0920401E-04   1.4470470E+05   -1.7814906E+00
   3.1063195E-04   1.4352198E+05   -1.7809236E+00
   3.1206648E-04   1.4234931E+05   -1.7803562E+00
   3.1350764E-04   1.4118659E+05   -1.7797885E+00
   3.1495545E-04   1.4003373E+05   -1.7792205E+00
   3.1640994E-04   1.3889065E+05   -1.7786522E+00
   3.1787116E-04   1.3775726E+05   -1.7780836E+00
   3.1933912E-04   1.3663347E+05   -1.7775146E+00
   3.2081386E-04   1.3551921E+05   -1.7769454E+00
   3.2229541E-04   1.3441439E+05   -1.7763760E+00
   3.2378381E-04   1.3331893E+05   -1.7758062E+00
   3.2527908E-04   1.3223274E+05   -1.7752361E+00
   3.2678125E-04   1.3115574E+05   -1.7746658E+00
   3.2829036E-04   1.3008786E+05   -1.7740953E+00
   3.2980644E-04   1.2902902E+05   -1.7735245E+00
   3.3132952E-04   1.2797912E+05   -1.7729534E+00
   3.3285963E-04   1.2693811E+05   -1.7723821E+00
   3.3439681E-04   1.2590589E+05   -1.7718106E+00
   3.3594109E-04   1.2488240E+05   -1.7712388E+00
   3.3749250E-04   1.2386755E+05   -1.7706668E+00
   3.3905108E-04   1.2286128E+05   -1.7700946E+00
   3.4061685E-04   1.2186350E+05   -1.7695221E+00
   3.4218986E-04   1.2087414E+05   -1.7689495E+00
   3.4377013E-04   1.1989313E+05   -1.7683767E+00
   3.4535769E-04   1.1892040E+05   -1.7678036E+00
   3.4695259E-04   1.1795587E+05   -1.7672304E+00
   3.4855485E-04   1.1699947E+05   -1.7666570E+00
   3.5016452E-04   1.1605113E+05   -1.7660834E+00
   3.5178161E-04   1.1511079E+05   -1.7655097E+00
   3.5340618E-04   1.1417836E+05   -1.7649358E+00
   3.5503824E-04   1.1325379E+05   -1.7643617E+00
   3.5667785E-04   1.1233700E+05   -1.7637874E+00
   3.5832502E-04   1.1142793E+05   -1.7632131E+00
   3.5997981E-04   1.1052651E+05   -1.7626386E+00
   3.6164223E-04   1.0963267E+05   -1.7620639E+00
   3.6331233E-04   1.0874635E+05   -1.7614891E+00
   3.6499015E-04   1.0786747E+05   -1.7609142E+00
   3.6667571E-04   1.0699599E+05   -1.7603392E+00
   3.6836906E-04   1.0613183E+05   -1.7597641E+00
   3.7007022E-04   1.0527492E+05   -1.7591888E+00
   3.7177925E-04   1.0442521E+05   -1.7586135E+00
   3.7349616E-04   1.0358263E+05   -1.7580381E+00
   3.7522101E-04   1.0274713E+05   -1.7574626E+00
   3.7695382E-04   1.0191863E+05   -1.7568870E+00
   3.7869463E-04   1.0109708E+05   -1.7563113E+00
   3.8044348E-04   1.0028242E+05   -1.7557356E+00
   3.8220041E-04   9.9474592E+04   -1.7551598E+00
   3.8396545E-04   9.8673531E+04   -1.7545840E+00
   3.8573864E-04   9.7879180E+04   -1.7540081E+00
   3.8752002E-04   9.7091481E+04   -1.7534321E+00
   3.8930963E-04   9.6310377E+04   -1.7528561E+00
   3.9110750E-04   9.5535811E+04   -1.7522801E+00
   3.9291368E-04   9.4767726E+04   -1.7517041E+00
   3.9472820E-04   9.4006065E+04   -1.7511280E+00
   3.9655109E-04   9.3250773E+04   -1.7505520E+00
   3.9838241E-04   9.2501795E+04   -1.7499759E+00
   4.0022218E-04   9.1759077E+04   -1.7493998E+00
   4.0207045E-04   9.1022563E+04   -1.7488237E+00
   4.0392725E-04   9.0292201E+04   -1.7482477E+00
   4.0579263E-04   8.9567938E+04   -1.7476716E+00
   4.0766662E-04   8.8849719E+04   -1.7470956E+00
   4.0954927E-04   8.8137494E+04   -1.7465196E+00
   4.1144061E-04   8.7431209E+04   -1.7459437E+00
   4.1334068E-04   8.6730815E+04   -1.7453678E+00
   4.1524953E-04   8.6036260E+04   -1.7447919E+00
   4.1716720E-04   8.5347493E+04   -1.7442161E+00
   4.1909372E-04   8.4664465E+04   -1.7436404E+00
   4.2102914E-04   8.3987125E+04   -1.7430647E+00
   4.2297350E-04   8.3315426E+04   -1.7424891E+00
   4.2492683E-04   8.2649318E+04   -1.7419135E+00
   4.2688919E-04   8.1988753E+04   -1.7413381E+00
   4.2886061E-04   8.1333683E+04   -1.7407627E+00
   4.3084113E-04   8.0684061E+04   -1.7401875E+00
   4.3283080E-04   8.0039839E+04   -1.7396123E+00
   4.3482966E-04   7.9400972E+04   -1.7390373E+00
   4.3683775E-04   7.8767412E+04   -1.7384624E+00
   4.3885511E-04   7.8139115E+04   -1.7378876E+00
   4.4088179E-04   7.7516035E+04   -1.7373129E+00
   4.4291783E-04   7.6898127E+04   -1.7367383E+00
   4.4496327E-04   7.6285346E+04   -1.7361639E+00
   4.4701816E-04   7.5677649E+04   -1.7355897E+00
   4.4908253E-04   7.5074991E+04   -1.7350155E+00
   4.5115644E-04   7.4477329E+04   -1.7344416E+00
   4.5323993E-04   7.3884621E+04   -1.7338678E+00
   4.5533304E-04   7.3296824E+04   -1.7332942E+00
   4.5743582E-04   7.2713895E+04   -1.7327207E+00
   4.5954830E-04   7.2135792E+04   -1.7321475E+00
   4.6167054E-04   7.1562475E+04   -1.7315744E+00
   4.6380259E-04   7.0993902E+04   -1.7310015E+00
   4.6594448E-04   7.0430032E+04   -1.7304288E+00
   4.6809626E-04   6.9870824E+04   -1.7298563E+00
   4.7025797E-04   6.9316240E+04   -1.7292841E+00
   4.7242967E-04   6.8766239E+04   -1.7287120E+00
   4.7461140E-04   6.8220781E+04   -1.7281402E+00
   4.7680321E-04   6.7679829E+04   -1.7275686E+00
   4.7900514E-04   6.7143342E+04   -1.7269972E+00
   4.8121723E-04   6.6611284E+04   -1.7264261E+00
   4.8343954E-04   6.6083616E+04   -1.7258552E+00
   4.8567212E-04   6.5560300E+04   -1.7252846E+00
   4.8791500E-04   6.5041299E+04   -1.7247142E+00
   4.9016825E-04   6.4526577E+04   -1.7241441E+00
   4.9243189E-04   6.4016095E+04   -1.7235743E+00
   4.9470600E-04   6.3509820E+04   -1.7230048E+00
   4.9699060E-04   6.3007713E+04   -1.7224355E+00
   4.9928575E-04   6.2509740E+04   -1.7218665E+00
   5.0159151E-04   6.2015865E+04   -1.7212978E+00
   5.0390791E-04   6.1526053E+04   -1.7207294E+00
   5.0623501E-04   6.1040269E+04   -1.7201613E+00
   5.0857286E-04   6.0558480E+04   -1.7195936E+00
   5.1092150E-04   6.0080650E+04   -1.7190261E+00
   5.1328099E-04   5.9606747E+04   -1.7184590E+00
   5.1565137E-04   5.9136736E+04   -1.7178922E+00
   5.1803270E-04   5.8670585E+04   -1.7173257E+00
   5.2042503E-04   5.8208259E+04   -1.7167595E+00
   5.2282841E-04   5.7749728E+04   -1.7161938E+00
   5.2524289E-04   5.7294958E+04   -1.7156283E+00
   5.2766851E-04   5.6843917E+04   -1.7150632E+00
   5.3010534E-04   5.6396574E+04   -1.7144985E+00
   5.3255342E-04   5.5952896E+04   -1.7139342E+00
   5.3501281E-04   5.5512853E+04   -1.7133702E+00
   5.3748356E-04   5.5076415E+04   -1.7128066E+00
   5.3996571E-04   5.4643549E+04   -1.7122434E+00
   5.4245933E-04   5.4214226E+04   -1.7116806E+00
   5.4496446E-04   5.3788415E+04   -1.7111181E+00
   5.4748117E-04   5.3366088E+04   -1.7105561E+00
   5.5000949E-04   5.2947213E+04   -1.7099945E+00
   5.5254949E-04   5.2531762E+04   -1.7094333E+00
   5.5510123E-04   5.2119705E+04   -1.7088725E+00
   5.5766474E-04   5.1711014E+04   -1.7083121E+00
   5.6024010E-04   5.1305660E+04   -1.7077522E+00
   5.6282734E-04   5.0903615E+04   -1.7071927E+00
   5.6542654E-04   5.0504851E+04   -1.7066336E+00
   5.6803774E-04   5.0109340E+04   -1.7060750E+00
   5.7066099E-04   4.9717053E+04   -1.7055169E+00
   5.7329637E-04   4.9327965E+04   -1.7049592E+00
   5.7594391E-04   4.8942047E+04   -1.7044019E+00
   5.7860368E-04   4.8559273E+04   -1.7038451E+00
   5.8127573E-04   4.8179617E+04   -1.7032888E+00
   5.8396012E-04   4.7803051E+04   -1.7027330E+00
   5.8665691E-04   4.7429550E+04   -1.7021776E+00
   5.8936616E-04   4.7059087E+04   -1.7016228E+00
   5.9208791E-04   4.6691638E+04   -1.7010684E+00
   5.9482223E-04   4.6327176E+04   -1.7005145E+00
   5.9756919E-04   4.5965675E+04   -1.6999612E+00
   6.0032882E-04   4.5607112E+04   -1.6994083E+00
   6.0310120E-04   4.5251462E+04   -1.6988560E+00
   6.0588639E-04   4.4898698E+04   -1.6983041E+00
   6.0868443E-04   4.4548798E+04   -1.6977528E+00
   6.1149540E-04   4.4201738E+04   -1.6972020E+00
   6.1431935E-04   4.3857492E+04   -1.6966518E+00
   6.1715634E-04   4.3516037E+04   -1.6961021E+00
   6.2000644E-04   4.3177351E+04   -1.6955529E+00
   6.2286969E-04   4.2841408E+04   -1.6950043E+00
