#        a       HoverH0(a)       dlogHdloga_of_a(a)
   1.0000000E-04   1.0699891E+06   -1.8924039E+00
   1.0046181E-04   1.0607011E+06   -1.8920143E+00
   1.0092575E-04   1.0514957E+06   -1.8916237E+00
   1.0139184E-04   1.0423721E+06   -1.8912321E+00
   1.0186008E-04   1.0333294E+06   -1.8908394E+00
   1.0233048E-04   1.0243671E+06   -1.8904457E+00
   1.0280305E-04   1.0154843E+06   -1.8900510E+00
   1.0327781E-04   1.0066804E+06   -1.8896553E+00
   1.0375475E-04   9.9795470E+05   -1.8892586E+00
   1.0423390E-04   9.8930640E+05   -1.8888608E+00
   1.0471527E-04   9.8073485E+05   -1.8884621E+00
   1.0519885E-04   9.7223935E+05   -1.8880623E+00
   1.0568467E-04   9.6381921E+05   -1.8876615E+00
   1.0617274E-04   9.5547377E+05   -1.8872596E+00
   1.0666305E-04   9.4720235E+05   -1.8868568E+00
   1.0715563E-04   9.3900427E+05   -1.8864529E+00
   1.0765049E-04   9.3087889E+05   -1.8860480E+00
   1.0814763E-04   9.2282554E+05   -1.8856421E+00
   1.0864707E-04   9.1484357E+05   -1.8852352E+00
   1.0914881E-04   9.0693235E+05   -1.8848273E+00
   1.0965287E-04   8.9909123E+05   -1.8844183E+00
   1.1015926E-04   8.9131958E+05   -1.8840084E+00
   1.1066799E-04   8.8361679E+05   -1.8835974E+00
   1.1117906E-04   8.7598222E+05   -1.8831854E+00
   1.1169250E-04   8.6841526E+05   -1.8827724E+00
   1.1220831E-04   8.6091531E+05   -1.8823584E+00
   1.1272650E-04   8.5348177E+05   -1.8819434E+00
   1.1324708E-04   8.4611402E+05   -1.8815274E+00
   1.1377007E-04   8.3881150E+05   -1.8811103E+00
   1.1429547E-04   8.3157359E+05   -1.8806923E+00
   1.1482330E-04   8.2439974E+05   -1.8802732E+00
   1.1535356E-04   8.1728934E+05   -1.8798531E+00
   1.1588628E-04   8.1024185E+05   -1.8794321E+00
   1.1642145E-04   8.0325669E+05   -1.8790100E+00
   1.1695910E-04   7.9633329E+05   -1.8785869E+00
   1.1749923E-04   7.8947111E+05   -1.8781628E+00
   1.1804185E-04   7.8266960E+05   -1.8777377E+00
   1.1858698E-04   7.7592820E+05   -1.8773116E+00
   1.1913463E-04   7.6924638E+05   -1.8768845E+00
   1.1968481E-04   7.6262360E+05   -1.8764564E+00
   1.2023752E-04   7.5605933E+05   -1.8760273E+00
   1.2079279E-04   7.4955306E+05   -1.8755972E+00
   1.2135063E-04   7.4310424E+05   -1.8751661E+00
   1.2191104E-04   7.3671237E+05   -1.8747341E+00
   1.2247403E-04   7.3037694E+05   -1.8743010E+00
   1.2303963E-04   7.2409744E+05   -1.8738669E+00
   1.2360784E-04   7.1787336E+05   -1.8734318E+00
   1.2417868E-04   7.1170421E+05   -1.8729958E+00
   1.2475215E-04   7.0558950E+05   -1.8725587E+00
   1.2532826E-04   6.9952873E+05   -1.8721207E+00
   1.2590704E-04   6.9352142E+05   -1.8716817E+00
   1.2648850E-04   6.8756709E+05   -1.8712417E+00
   1.2707263E-04   6.8166527E+05   -1.8708007E+00
   1.2765947E-04   6.7581548E+05   -1.8703587E+00
   1.2824901E-04   6.7001726E+05   -1.8699157E+00
   1.2884128E-04   6.6427014E+05   -1.8694718E+00
   1.2943628E-04   6.5857367E+05   -1.8690269E+00
   1.3003403E-04   6.5292739E+05   -1.8685810E+00
   1.3063454E-04   6.4733085E+05   -1.8681341E+00
   1.3123783E-04   6.4178360E+05   -1.8676863E+00
   1.3184390E-04   6.3628520E+05   -1.8672375E+00
   1.3245277E-04   6.3083521E+05   -1.8667877E+00
   1.3306445E-04   6.2543321E+05   -1.8663369E+00
   1.3367895E-04   6.2007875E+05   -1.8658852E+00
   1.3429630E-04   6.1477141E+05   -1.8654325E+00
   1.3491649E-04   6.0951077E+05   -1.8649789E+00
   1.3553955E-04   6.0429641E+05   -1.8645242E+00
   1.3616548E-04   5.9912792E+05   -1.8640687E+00
   1.3679431E-04   5.9400488E+05   -1.8636121E+00
   1.3742604E-04   5.8892688E+05   -1.8631546E+00
   1.3806069E-04   5.8389353E+05   -1.8626962E+00
   1.3869827E-04   5.7890443E+05   -1.8622368E+00
   1.3933879E-04   5.7395916E+05   -1.8617764E+00
   1.3998227E-04   5.6905735E+05   -1.8613151E+00
   1.4062872E-04   5.6419861E+05   -1.8608529E+00
   1.4127816E-04   5.5938254E+05   -1.8603897E+00
   1.4193060E-04   5.5460876E+05   -1.8599256E+00
   1.4258605E-04   5.4987691E+05   -1.8594605E+00
   1.4324453E-04   5.4518659E+05   -1.8589944E+00
   1.4390605E-04   5.4053744E+05   -1.8585275E+00
   1.4457062E-04   5.3592910E+05   -1.8580596E+00
   1.4523826E-04   5.3136119E+05   -1.8575908E+00
   1.4590899E-04   5.2683335E+05   -1.8571210E+00
   1.4658281E-04   5.2234523E+05   -1.8566503E+00
   1.4725974E-04   5.1789646E+05   -1.8561787E+00
   1.4793981E-04   5.1348670E+05   -1.8557062E+00
   1.4862301E-04   5.0911560E+05   -1.8552327E+00
   1.4930936E-04   5.0478281E+05   -1.8547584E+00
   1.4999889E-04   5.0048799E+05   -1.8542831E+00
   1.5069160E-04   4.9623080E+05   -1.8538069E+00
   1.5138751E-04   4.9201090E+05   -1.8533297E+00
   1.5208663E-04   4.8782796E+05   -1.8528517E+00
   1.5278899E-04   4.8368165E+05   -1.8523728E+00
   1.5349458E-04   4.7957164E+05   -1.8518929E+00
   1.5420343E-04   4.7549761E+05   -1.8514122E+00
   1.5491556E-04   4.7145923E+05   -1.8509305E+00
   1.5563098E-04   4.6745618E+05   -1.8504480E+00
   1.5634970E-04   4.6348816E+05   -1.8499646E+00
   1.5707174E-04   4.5955485E+05   -1.8494802E+00
   1.5779711E-04   4.5565593E+05   -1.8489950E+00
   1.5852584E-04   4.5179110E+05   -1.8485089E+00
   1.5925792E-04   4.4796006E+05   -1.8480219E+00
   1.5999339E-04   4.4416250E+05   -1.8475341E+00
   1.6073226E-04   4.4039812E+05   -1.8470453E+00
   1.6147454E-04   4.3666663E+05   -1.8465557E+00
   1.6222024E-04   4.3296774E+05   -1.8460652E+00
   1.6296939E-04   4.2930115E+05   -1.8455739E+00
   1.6372200E-04   4.2566658E+05   -1.8450816E+00
   1.6447809E-04   4.2206373E+05   -1.8445885E+00
   1.6523767E-04   4.1849234E+05   -1.8440946E+00
   1.6600075E-04   4.1495210E+05   -1.8435998E+00
   1.6676736E-04   4.1144276E+05   -1.8431041E+00
   1.6753751E-04   4.0796402E+05   -1.8426076E+00
   1.6831122E-04   4.0451563E+05   -1.8421102E+00
   1.6908849E-04   4.0109730E+05   -1.8416120E+00
   1.6986936E-04   3.9770877E+05   -1.8411130E+00
   1.7065384E-04   3.9434978E+05   -1.8406131E+00
   1.7144193E-04   3.9102006E+05   -1.8401124E+00
   1.7223367E-04   3.8771935E+05   -1.8396108E+00
   1.7302906E-04   3.8444739E+05   -1.8391084E+00
   1.7382813E-04   3.8120392E+05   -1.8386052E+00
   1.7463089E-04   3.7798870E+05   -1.8381012E+00
   1.7543735E-04   3.7480146E+05   -1.8375963E+00
   1.7624754E-04   3.7164197E+05   -1.8370906E+00
   1.7706147E-04   3.6850997E+05   -1.8365841E+00
   1.7787916E-04   3.6540522E+05   -1.8360769E+00
   1.7870062E-04   3.6232747E+05   -1.8355688E+00
   1.7952588E-04   3.5927649E+05   -1.8350599E+00
   1.8035495E-04   3.5625203E+05   -1.8345502E+00
   1.8118785E-04   3.5325387E+05   -1.8340397E+00
   1.8202459E-04   3.5028176E+05   -1.8335284E+00
   1.8286520E-04   3.4733547E+05   -1.8330163E+00
   1.8370969E-04   3.4441479E+05   -1.8325034E+00
   1.8455808E-04   3.4151947E+05   -1.8319898E+00
   1.8541039E-04   3.3864929E+05   -1.8314754E+00
   1.8626663E-04   3.3580403E+05   -1.8309602E+00
   1.8712683E-04   3.3298346E+05   -1.8304442E+00
   1.8799100E-04   3.3018737E+05   -1.8299275E+00
   1.8885917E-04   3.2741554E+05   -1.8294100E+00
   1.8973134E-04   3.2466776E+05   -1.8288918E+00
   1.9060754E-04   3.2194380E+05   -1.8283728E+00
   1.9148778E-04   3.1924346E+05   -1.8278530E+00
   1.9237209E-04   3.1656653E+05   -1.8273325E+00
   1.9326049E-04   3.1391280E+05   -1.8268113E+00
   1.9415299E-04   3.1128206E+05   -1.8262893E+00
   1.9504960E-04   3.0867411E+05   -1.8257666E+00
   1.9595036E-04   3.0608876E+05   -1.8252431E+00
   1.9685528E-04   3.0352578E+05   -1.8247190E+00
   1.9776438E-04   3.0098500E+05   -1.8241941E+00
   1.9867768E-04   2.9846620E+05   -1.8236685E+00
   1.9959519E-04   2.9596921E+05   -1.8231421E+00
   2.0051694E-04   2.9349381E+05   -1.8226151E+00
   2.0144295E-04   2.9103983E+05   -1.8220874E+00
   2.0237324E-04   2.8860706E+05   -1.8215589E+00
   2.0330782E-04   2.8619533E+05   -1.8210298E+00
   2.0424671E-04   2.8380444E+05   -1.8204999E+00
   2.0518995E-04   2.8143422E+05   -1.8199694E+00
   2.0613754E-04   2.7908447E+05   -1.8194382E+00
   2.0708950E-04   2.7675502E+05   -1.8189063E+00
   2.0804586E-04   2.7444568E+05   -1.8183737E+00
   2.0900664E-04   2.7215629E+05   -1.8178405E+00
   2.0997185E-04   2.6988665E+05   -1.8173066E+00
   2.1094152E-04   2.6763660E+05   -1.8167720E+00
   2.1191567E-04   2.6540597E+05   -1.8162368E+00
   2.1289432E-04   2.6319457E+05   -1.8157009E+00
   2.1387749E-04   2.6100225E+05   -1.8151644E+00
   2.1486520E-04   2.5882882E+05   -1.8146272E+00
   2.1585747E-04   2.5667414E+05   -1.8140894E+00
   2.1685432E-04   2.5453801E+05   -1.8135509E+00
   2.1785578E-04   2.5242030E+05   -1.8130118E+00
   2.1886186E-04   2.5032082E+05   -1.8124721E+00
   2.1987259E-04   2.4823943E+05   -1.8119318E+00
   2.2088798E-04   2.4617595E+05   -1.8113908E+00
   2.2190807E-04   2.4413024E+05   -1.8108493E+00
   2.2293286E-04   2.4210213E+05   -1.8103071E+00
   2.2396239E-04   2.4009147E+05   -1.8097643E+00
   2.2499667E-04   2.3809810E+05   -1.8092210E+00
   2.2603573E-04   2.3612187E+05   -1.8086770E+00
   2.2707958E-04   2.3416264E+05   -1.8081324E+00
   2.2812826E-04   2.3222024E+05   -1.8075873E+00
   2.2918178E-04   2.3029454E+05   -1.8070416E+00
   2.3024017E-04   2.2838538E+05   -1.8064953E+00
   2.3130344E-04   2.2649261E+05   -1.8059484E+00
   2.3237162E-04   2.2461610E+05   -1.8054010E+00
   2.3344474E-04   2.2275570E+05   -1.8048530E+00
   2.3452281E-04   2.2091126E+05   -1.8043044E+00
   2.3560586E-04   2.1908266E+05   -1.8037553E+00
   2.3669392E-04   2.1726973E+05   -1.8032057E+00
   2.3778699E-04   2.1547236E+05   -1.8026555E+00
   2.3888512E-04   2.1369040E+05   -1.8021048E+00
   2.3998831E-04   2.1192371E+05   -1.8015536E+00
   2.4109661E-04   2.1017216E+05   -1.8010018E+00
   2.4221001E-04   2.0843562E+05   -1.8004495E+00
   2.4332857E-04   2.0671395E+05   -1.7998967E+00
   2.4445228E-04   2.0500702E+05   -1.7993434E+00
   2.4558119E-04   2.0331471E+05   -1.7987896E+00
   2.4671531E-04   2.0163689E+05   -1.7982353E+00
   2.4785467E-04   1.9997342E+05   -1.7976805E+00
   2.4899928E-04   1.9832418E+05   -1.7971252E+00
   2.5014919E-04   1.9668905E+05   -1.7965694E+00
   2.5130440E-04   1.9506789E+05   -1.7960132E+00
   2.5246495E-04   1.9346060E+05   -1.7954564E+00
   2.5363086E-04   1.9186704E+05   -1.7948992E+00
   2.5480216E-04   1.9028710E+05   -1.7943416E+00
   2.5597886E-04   1.8872065E+05   -1.7937835E+00
   2.5716100E-04   1.8716758E+05   -1.7932249E+00
   2.5834859E-04   1.8562776E+05   -1.7926659E+00
   2.5954168E-04   1.8410109E+05   -1.7921065E+00
   2.6074027E-04   1.8258745E+05   -1.7915466E+00
   2.6194439E-04   1.8108672E+05   -1.7909863E+00
   2.6315408E-04   1.7959878E+05   -1.7904255E+00
   2.6436935E-04   1.7812354E+05   -1.7898644E+00
   2.6559024E-04   1.7666087E+05   -1.7893028E+00
   2.6681676E-04   1.7521066E+05   -1.7887408E+00
   2.6804895E-04   1.7377281E+05   -1.7881784E+00
   2.6928683E-04   1.7234720E+05   -1.7876157E+00
   2.7053042E-04   1.7093373E+05   -1.7870525E+00
   2.7177976E-04   1.6953230E+05   -1.7864889E+00
   2.7303487E-04   1.6814279E+05   -1.7859250E+00
   2.7429577E-04   1.6676510E+05   -1.7853607E+00
   2.7556250E-04   1.6539913E+05   -1.7847960E+00
   2.7683507E-04   1.6404478E+05   -1.7842310E+00
   2.7811353E-04   1.6270194E+05   -1.7836656E+00
   2.7939788E-04   1.6137051E+05   -1.7830999E+00
   2.8068817E-04   1.6005040E+05   -1.7825338E+00
   2.8198442E-04   1.5874150E+05   -1.7819674E+00
   2.8328665E-04   1.5744372E+05   -1.7814006E+00
   2.8459490E-04   1.5615695E+05   -1.7808335E+00
   2.8590919E-04   1.5488110E+05   -1.7802661E+00
   2.8722955E-04   1.5361608E+05   -1.7796983E+00
   2.8855600E-04   1.5236180E+05   -1.7791303E+00
   2.8988859E-04   1.5111814E+05   -1.7785620E+00
   2.9122732E-04   1.4988504E+05   -1.7779933E+00
   2.9257224E-04   1.4866238E+05   -1.7774244E+00
   2.9392337E-04   1.4745008E+05   -1.7768551E+00
   2.9528074E-04   1.4624806E+05   -1.7762856E+00
   2.9664438E-04   1.4505621E+05   -1.7757158E+00
   2.9801431E-04   1.4387445E+05   -1.7751458E+00
   2.9939057E-04   1.4270270E+05   -1.7745754E+00
   3.0077319E-04   1.4154086E+05   -1.7740048E+00
   3.0216219E-04   1.4038885E+05   -1.7734340E+00
   3.0355761E-04   1.3924658E+05   -1.7728629E+00
   3.0495947E-04   1.3811397E+05   -1.7722916E+00
   3.0636780E-04   1.3699094E+05   -1.7717200E+00
   3.0778264E-04   1.3587739E+05   -1.7711482E+00
   3.0920401E-04   1.3477325E+05   -1.7705762E+00
   3.1063195E-04   1.3367843E+05   -1.7700040E+00
   3.1206648E-04   1.3259286E+05   -1.7694315E+00
   3.1350764E-04   1.3151645E+05   -1.7688589E+00
   3.1495545E-04   1.3044912E+05   -1.7682860E+00
   3.1640994E-04   1.2939080E+05   -1.7677130E+00
   3.1787116E-04   1.2834140E+05   -1.7671398E+00
   3.1933912E-04   1.2730085E+05   -1.7665664E+00
   3.2081386E-04   1.2626907E+05   -1.7659928E+00
   3.2229541E-04   1.2524598E+05   -1.7654190E+00
   3.2378381E-04   1.2423151E+05   -1.7648451E+00
   3.2527908E-04   1.2322559E+05   -1.7642710E+00
   3.2678125E-04   1.2222813E+05   -1.7636968E+00
   3.2829036E-04   1.2123906E+05   -1.7631224E+00
   3.2980644E-04   1.2025832E+05   -1.7625479E+00
   3.3132952E-04   1.1928583E+05   -1.7619732E+00
   3.3285963E-04   1.1832151E+05   -1.7613984E+00
   3.3439681E-04   1.1736531E+05   -1.7608235E+00
   3.3594109E-04   1.1641713E+05   -1.7602485E+00
   3.3749250E-04   1.1547693E+05   -1.7596734E+00
   3.3905108E-04   1.1454462E+05   -1.7590982E+00
   3.4061685E-04   1.1362014E+05   -1.7585228E+00
   3.4218986E-04   1.1270342E+05   -1.7579474E+00
   3.4377013E-04   1.1179439E+05   -1.7573719E+00
   3.4535769E-04   1.1089299E+05   -1.7567963E+00
   3.4695259E-04   1.0999914E+05   -1.7562207E+00
   3.4855485E-04   1.0911279E+05   -1.7556450E+00
   3.5016452E-04   1.0823388E+05   -1.7550692E+00
   3.5178161E-04   1.0736232E+05   -1.7544934E+00
   3.5340618E-04   1.0649807E+05   -1.7539175E+00
   3.5503824E-04   1.0564105E+05   -1.7533415E+00
   3.5667785E-04   1.0479121E+05   -1.7527656E+00
   3.5832502E-04   1.0394848E+05   -1.7521896E+00
   3.5997981E-04   1.0311280E+05   -1.7516136E+00
   3.6164223E-04   1.0228411E+05   -1.7510375E+00
   3.6331233E-04   1.0146235E+05   -1.7504615E+00
   3.6499015E-04   1.0064746E+05   -1.7498854E+00
   3.6667571E-04   9.9839383E+04   -1.7493094E+00
   3.6836906E-04   9.9038053E+04   -1.7487333E+00
   3.7007022E-04   9.8243416E+04   -1.7481573E+00
   3.7177925E-04   9.7455413E+04   -1.7475813E+00
   3.7349616E-04   9.6673988E+04   -1.7470053E+00
   3.7522101E-04   9.5899082E+04   -1.7464293E+00
   3.7695382E-04   9.5130640E+04   -1.7458534E+00
   3.7869463E-04   9.4368607E+04   -1.7452775E+00
   3.8044348E-04   9.3612926E+04   -1.7447017E+00
   3.8220041E-04   9.2863542E+04   -1.7441259E+00
   3.8396545E-04   9.2120402E+04   -1.7435502E+00
   3.8573864E-04   9.1383452E+04   -1.7429746E+00
   3.8752002E-04   9.0652637E+04   -1.7423990E+00
   3.8930963E-04   8.9927905E+04   -1.7418235E+00
   3.9110750E-04   8.9209203E+04   -1.7412481E+00
   3.9291368E-04   8.8496480E+04   -1.7406728E+00
   3.9472820E-04   8.7789684E+04   -1.7400976E+00
   3.9655109E-04   8.7088764E+04   -1.7395225E+00
   3.9838241E-04   8.6393668E+04   -1.7389475E+00
   4.0022218E-04   8.5704348E+04   -1.7383726E+00
   4.0207045E-04   8.5020753E+04   -1.7377978E+00
   4.0392725E-04   8.4342833E+04   -1.7372232E+00
   4.0579263E-04   8.3670541E+04   -1.7366487E+00
   4.0766662E-04   8.3003827E+04   -1.7360743E+00
   4.0954927E-04   8.2342644E+04   -1.7355001E+00
   4.1144061E-04   8.1686943E+04   -1.7349261E+00
   4.1334068E-04   8.1036678E+04   -1.7343522E+00
   4.1524953E-04   8.0391802E+04   -1.7337784E+00
   4.1716720E-04   7.9752269E+04   -1.7332049E+00
   4.1909372E-04   7.9118032E+04   -1.7326315E+00
   4.2102914E-04   7.8489047E+04   -1.7320583E+00
   4.2297350E-04   7.7865267E+04   -1.7314852E+00
   4.2492683E-04   7.7246649E+04   -1.7309124E+00
   4.2688919E-04   7.6633148E+04   -1.7303398E+00
   4.2886061E-04   7.6024720E+04   -1.7297674E+00
   4.3084113E-04   7.5421321E+04   -1.7291952E+00
   4.3283080E-04   7.4822909E+04   -1.7286232E+00
   4.3482966E-04   7.4229440E+04   -1.7280514E+00
   4.3683775E-04   7.3640872E+04   -1.7274799E+00
   4.3885511E-04   7.3057164E+04   -1.7269086E+00
   4.4088179E-04   7.2478273E+04   -1.7263375E+00
   4.4291783E-04   7.1904158E+04   -1.7257667E+00
   4.4496327E-04   7.1334778E+04   -1.7251962E+00
   4.4701816E-04   7.0770093E+04   -1.7246259E+00
   4.4908253E-04   7.0210062E+04   -1.7240558E+00
   4.5115644E-04   6.9654646E+04   -1.7234861E+00
   4.5323993E-04   6.9103806E+04   -1.7229166E+00
   4.5533304E-04   6.8557501E+04   -1.7223474E+00
   4.5743582E-04   6.8015693E+04   -1.7217785E+00
   4.5954830E-04   6.7478345E+04   -1.7212099E+00
   4.6167054E-04   6.6945416E+04   -1.7206416E+00
   4.6380259E-04   6.6416871E+04   -1.7200736E+00
   4.6594448E-04   6.5892671E+04   -1.7195059E+00
   4.6809626E-04   6.5372779E+04   -1.7189385E+00
   4.7025797E-04   6.4857158E+04   -1.7183715E+00
   4.7242967E-04   6.4345773E+04   -1.7178047E+00
   4.7461140E-04   6.3838586E+04   -1.7172383E+00
   4.7680321E-04   6.3335562E+04   -1.7166723E+00
   4.7900514E-04   6.2836666E+04   -1.7161066E+00
   4.8121723E-04   6.2341862E+04   -1.7155412E+00
   4.8343954E-04   6.1851116E+04   -1.7149763E+00
   4.8567212E-04   6.1364392E+04   -1.7144116E+00
   4.8791500E-04   6.0881657E+04   -1.7138474E+00
   4.9016825E-04   6.0402876E+04   -1.7132835E+00
   4.9243189E-04   5.9928016E+04   -1.7127200E+00
   4.9470600E-04   5.9457043E+04   -1.7121569E+00
   4.9699060E-04   5.8989925E+04   -1.7115941E+00
   4.9928575E-04   5.8526628E+04   -1.7110318E+00
   5.0159151E-04   5.8067121E+04   -1.7104699E+00
   5.0390791E-04   5.7611370E+04   -1.7099084E+00
   5.0623501E-04   5.7159344E+04   -1.7093473E+00
   5.0857286E-04   5.6711011E+04   -1.7087866E+00
   5.1092150E-04   5.6266341E+04   -1.7082263E+00
   5.1328099E-04   5.5825301E+04   -1.7076665E+00
   5.1565137E-04   5.5387860E+04   -1.7071071E+00
   5.1803270E-04   5.4953990E+04   -1.7065481E+00
   5.2042503E-04   5.4523658E+04   -1.7059896E+00
   5.2282841E-04   5.4096835E+04   -1.7054316E+00
   5.2524289E-04   5.3673491E+04   -1.7048740E+00
   5.2766851E-04   5.3253597E+04   -1.7043168E+00
   5.3010534E-04   5.2837123E+04   -1.7037601E+00
   5.3255342E-04   5.2424041E+04   -1.7032040E+00
   5.3501281E-04   5.2014322E+04   -1.7026482E+00
   5.3748356E-04   5.1607937E+04   -1.7020930E+00
   5.3996571E-04   5.1204857E+04   -1.7015382E+00
   5.4245933E-04   5.0805056E+04   -1.7009840E+00
   5.4496446E-04   5.0408506E+04   -1.7004302E+00
   5.4748117E-04   5.0015178E+04   -1.6998770E+00
   5.5000949E-04   4.9625045E+04   -1.6993242E+00
   5.5254949E-04   4.9238081E+04   -1.6987720E+00
   5.5510123E-04   4.8854259E+04   -1.6982203E+00
   5.5766474E-04   4.8473551E+04   -1.6976691E+00
   5.6024010E-04   4.8095933E+04   -1.6971185E+00
   5.6282734E-04   4.7721377E+04   -1.6965684E+00
   5.6542654E-04   4.7349858E+04   -1.6960188E+00
   5.6803774E-04   4.6981351E+04   -1.6954698E+00
   5.7066099E-04   4.6615829E+04   -1.6949213E+00
   5.7329637E-04   4.6253268E+04   -1.6943733E+00
   5.7594391E-04   4.5893642E+04   -1.6938260E+00
   5.7860368E-04   4.5536928E+04   -1.6932792E+00
   5.8127573E-04   4.5183100E+04   -1.6927329E+00
   5.8396012E-04   4.4832134E+04   -1.6921873E+00
   5.8665691E-04   4.4484006E+04   -1.6916422E+00
   5.8936616E-04   4.4138692E+04   -1.6910977E+00
   5.9208791E-04   4.3796168E+04   -1.6905538E+00
   5.9482223E-04   4.3456411E+04   -1.6900105E+00
   5.9756919E-04   4.3119398E+04   -1.6894678E+00
   6.0032882E-04   4.2785105E+04   -1.6889257E+00
   6.0310120E-04   4.2453510E+04   -1.6883842E+00
   6.0588639E-04   4.2124590E+04   -1.6878433E+00
   6.0868443E-04   4.1798322E+04   -1.6873030E+00
   6.1149540E-04   4.1474685E+04   -1.6867634E+00
   6.1431935E-04   4.1153656E+04   -1.6862244E+00
   6.1715634E-04   4.0835213E+04   -1.6856860E+00
   6.2000644E-04   4.0519335E+04   -1.6851482E+00
   6.2286969E-04   4.0206000E+04   -1.6846111E+00
