#        a       HoverH0(a)       dlogHdloga_of_a(a)
   1.0000000E-04   1.1522860E+06   -1.9011414E+00
   1.0046181E-04   1.1422376E+06   -1.9007755E+00
   1.0092575E-04   1.1322788E+06   -1.9004085E+00
   1.0139184E-04   1.1224087E+06   -1.9000405E+00
   1.0186008E-04   1.1126265E+06   -1.8996715E+00
   1.0233048E-04   1.1029315E+06   -1.8993015E+00
   1.0280305E-04   1.0933228E+06   -1.8989304E+00
   1.0327781E-04   1.0837997E+06   -1.8985584E+00
   1.0375475E-04   1.0743614E+06   -1.8981853E+00
   1.0423390E-04   1.0650071E+06   -1.8978112E+00
   1.0471527E-04   1.0557360E+06   -1.8974360E+00
   1.0519885E-04   1.0465475E+06   -1.8970599E+00
   1.0568467E-04   1.0374407E+06   -1.8966827E+00
   1.0617274E-04   1.0284150E+06   -1.8963045E+00
   1.0666305E-04   1.0194696E+06   -1.8959253E+00
   1.0715563E-04   1.0106038E+06   -1.8955451E+00
   1.0765049E-04   1.0018168E+06   -1.8951638E+00
   1.0814763E-04   9.9310800E+05   -1.8947815E+00
   1.0864707E-04   9.8447661E+05   -1.8943982E+00
   1.0914881E-04   9.7592197E+05   -1.8940139E+00
   1.0965287E-04   9.6744338E+05   -1.8936286E+00
   1.1015926E-04   9.5904016E+05   -1.8932422E+00
   1.1066799E-04   9.5071162E+05   -1.8928548E+00
   1.1117906E-04   9.4245709E+05   -1.8924664E+00
   1.1169250E-04   9.3427591E+05   -1.8920770E+00
   1.1220831E-04   9.2616740E+05   -1.8916865E+00
   1.1272650E-04   9.1813093E+05   -1.8912950E+00
   1.1324708E-04   9.1016583E+05   -1.8909026E+00
   1.1377007E-04   9.0227147E+05   -1.8905090E+00
   1.1429547E-04   8.9444720E+05   -1.8901145E+00
   1.1482330E-04   8.8669240E+05   -1.8897190E+00
   1.1535356E-04   8.7900644E+05   -1.8893224E+00
   1.1588628E-04   8.7138869E+05   -1.8889248E+00
   1.1642145E-04   8.6383854E+05   -1.8885262E+00
   1.1695910E-04   8.5635539E+05   -1.8881265E+00
   1.1749923E-04   8.4893863E+05   -1.8877259E+00
   1.1804185E-04   8.4158765E+05   -1.8873242E+00
   1.1858698E-04   8.3430188E+05   -1.8869215E+00
   1.1913463E-04   8.2708071E+05   -1.8865178E+00
   1.1968481E-04   8.1992358E+05   -1.8861131E+00
   1.2023752E-04   8.1282989E+05   -1.8857074E+00
   1.2079279E-04   8.0579909E+05   -1.8853006E+00
   1.2135063E-04   7.9883060E+05   -1.8848928E+00
   1.2191104E-04   7.9192387E+05   -1.8844840E+00
   1.2247403E-04   7.8507833E+05   -1.8840742E+00
   1.2303963E-04   7.7829343E+05   -1.8836634E+00
   1.2360784E-04   7.7156864E+05   -1.8832516E+00
   1.2417868E-04   7.6490340E+05   -1.8828388E+00
   1.2475215E-04   7.5829719E+05   -1.8824249E+00
   1.2532826E-04   7.5174946E+05   -1.8820100E+00
   1.2590704E-04   7.4525970E+05   -1.8815942E+00
   1.2648850E-04   7.3882738E+05   -1.8811773E+00
   1.2707263E-04   7.3245199E+05   -1.8807594E+00
   1.2765947E-04   7.2613301E+05   -1.8803405E+00
   1.2824901E-04   7.1986994E+05   -1.8799206E+00
   1.2884128E-04   7.1366228E+05   -1.8794997E+00
   1.2943628E-04   7.0750951E+05   -1.8790777E+00
   1.3003403E-04   7.0141116E+05   -1.8786548E+00
   1.3063454E-04   6.9536673E+05   -1.8782309E+00
   1.3123783E-04   6.8937573E+05   -1.8778059E+00
   1.3184390E-04   6.8343769E+05   -1.8773800E+00
   1.3245277E-04   6.7755213E+05   -1.8769531E+00
   1.3306445E-04   6.7171858E+05   -1.8765251E+00
   1.3367895E-04   6.6593656E+05   -1.8760962E+00
   1.3429630E-04   6.6020562E+05   -1.8756662E+00
   1.3491649E-04   6.5452530E+05   -1.8752353E+00
   1.3553955E-04   6.4889515E+05   -1.8748034E+00
   1.3616548E-04   6.4331470E+05   -1.8743705E+00
   1.3679431E-04   6.3778352E+05   -1.8739365E+00
   1.3742604E-04   6.3230117E+05   -1.8735016E+00
   1.3806069E-04   6.2686719E+05   -1.8730657E+00
   1.3869827E-04   6.2148117E+05   -1.8726288E+00
   1.3933879E-04   6.1614266E+05   -1.8721909E+00
   1.3998227E-04   6.1085125E+05   -1.8717521E+00
   1.4062872E-04   6.0560650E+05   -1.8713122E+00
   1.4127816E-04   6.0040800E+05   -1.8708714E+00
   1.4193060E-04   5.9525534E+05   -1.8704296E+00
   1.4258605E-04   5.9014810E+05   -1.8699868E+00
   1.4324453E-04   5.8508587E+05   -1.8695430E+00
   1.4390605E-04   5.8006825E+05   -1.8690982E+00
   1.4457062E-04   5.7509485E+05   -1.8686525E+00
   1.4523826E-04   5.7016526E+05   -1.8682057E+00
   1.4590899E-04   5.6527909E+05   -1.8677581E+00
   1.4658281E-04   5.6043595E+05   -1.8673094E+00
   1.4725974E-04   5.5563545E+05   -1.8668597E+00
   1.4793981E-04   5.5087721E+05   -1.8664091E+00
   1.4862301E-04   5.4616086E+05   -1.8659576E+00
   1.4930936E-04   5.4148602E+05   -1.8655050E+00
   1.4999889E-04   5.3685231E+05   -1.8650515E+00
   1.5069160E-04   5.3225936E+05   -1.8645971E+00
   1.5138751E-04   5.2770682E+05   -1.8641416E+00
   1.5208663E-04   5.2319431E+05   -1.8636852E+00
   1.5278899E-04   5.1872148E+05   -1.8632279E+00
   1.5349458E-04   5.1428798E+05   -1.8627696E+00
   1.5420343E-04   5.0989345E+05   -1.8623103E+00
   1.5491556E-04   5.0553753E+05   -1.8618501E+00
   1.5563098E-04   5.0121990E+05   -1.8613890E+00
   1.5634970E-04   4.9694020E+05   -1.8609269E+00
   1.5707174E-04   4.9269809E+05   -1.8604638E+00
   1.5779711E-04   4.8849323E+05   -1.8599998E+00
   1.5852584E-04   4.8432530E+05   -1.8595349E+00
   1.5925792E-04   4.8019396E+05   -1.8590690E+00
   1.5999339E-04   4.7609888E+05   -1.8586022E+00
   1.6073226E-04   4.7203974E+05   -1.8581344E+00
   1.6147454E-04   4.6801622E+05   -1.8576658E+00
   1.6222024E-04   4.6402799E+05   -1.8571961E+00
   1.6296939E-04   4.6007475E+05   -1.8567256E+00
   1.6372200E-04   4.5615618E+05   -1.8562541E+00
   1.6447809E-04   4.5227197E+05   -1.8557817E+00
   1.6523767E-04   4.4842181E+05   -1.8553084E+00
   1.6600075E-04   4.4460539E+05   -1.8548342E+00
   1.6676736E-04   4.4082242E+05   -1.8543590E+00
   1.6753751E-04   4.3707260E+05   -1.8538830E+00
   1.6831122E-04   4.3335563E+05   -1.8534060E+00
   1.6908849E-04   4.2967120E+05   -1.8529281E+00
   1.6986936E-04   4.2601905E+05   -1.8524493E+00
   1.7065384E-04   4.2239887E+05   -1.8519696E+00
   1.7144193E-04   4.1881038E+05   -1.8514890E+00
   1.7223367E-04   4.1525329E+05   -1.8510075E+00
   1.7302906E-04   4.1172733E+05   -1.8505251E+00
   1.7382813E-04   4.0823222E+05   -1.8500418E+00
   1.7463089E-04   4.0476769E+05   -1.8495576E+00
   1.7543735E-04   4.0133345E+05   -1.8490725E+00
   1.7624754E-04   3.9792923E+05   -1.8485865E+00
   1.7706147E-04   3.9455478E+05   -1.8480997E+00
   1.7787916E-04   3.9120982E+05   -1.8476119E+00
   1.7870062E-04   3.8789409E+05   -1.8471233E+00
   1.7952588E-04   3.8460733E+05   -1.8466338E+00
   1.8035495E-04   3.8134928E+05   -1.8461435E+00
   1.8118785E-04   3.7811969E+05   -1.8456523E+00
   1.8202459E-04   3.7491829E+05   -1.8451602E+00
   1.8286520E-04   3.7174485E+05   -1.8446672E+00
   1.8370969E-04   3.6859910E+05   -1.8441734E+00
   1.8455808E-04   3.6548081E+05   -1.8436787E+00
   1.8541039E-04   3.6238972E+05   -1.8431832E+00
   1.8626663E-04   3.5932560E+05   -1.8426868E+00
   1.8712683E-04   3.5628820E+05   -1.8421895E+00
   1.8799100E-04   3.5327729E+05   -1.8416914E+00
   1.8885917E-04   3.5029262E+05   -1.8411925E+00
   1.8973134E-04   3.4733397E+05   -1.8406928E+00
   1.9060754E-04   3.4440110E+05   -1.8401922E+00
   1.9148778E-04   3.4149379E+05   -1.8396907E+00
   1.9237209E-04   3.3861180E+05   -1.8391885E+00
   1.9326049E-04   3.3575491E+05   -1.8386854E+00
   1.9415299E-04   3.3292290E+05   -1.8381815E+00
   1.9504960E-04   3.3011554E+05   -1.8376767E+00
   1.9595036E-04   3.2733262E+05   -1.8371712E+00
   1.9685528E-04   3.2457391E+05   -1.8366648E+00
   1.9776438E-04   3.2183921E+05   -1.8361576E+00
   1.9867768E-04   3.1912829E+05   -1.8356496E+00
   1.9959519E-04   3.1644095E+05   -1.8351409E+00
   2.0051694E-04   3.1377698E+05   -1.8346313E+00
   2.0144295E-04   3.1113616E+05   -1.8341209E+00
   2.0237324E-04   3.0851829E+05   -1.8336097E+00
   2.0330782E-04   3.0592318E+05   -1.8330978E+00
   2.0424671E-04   3.0335060E+05   -1.8325850E+00
   2.0518995E-04   3.0080037E+05   -1.8320715E+00
   2.0613754E-04   2.9827229E+05   -1.8315572E+00
   2.0708950E-04   2.9576616E+05   -1.8310421E+00
   2.0804586E-04   2.9328178E+05   -1.8305263E+00
   2.0900664E-04   2.9081896E+05   -1.8300097E+00
   2.0997185E-04   2.8837751E+05   -1.8294923E+00
   2.1094152E-04   2.8595723E+05   -1.8289741E+00
   2.1191567E-04   2.8355795E+05   -1.8284553E+00
   2.1289432E-04   2.8117947E+05   -1.8279356E+00
   2.1387749E-04   2.7882161E+05   -1.8274152E+00
   2.1486520E-04   2.7648418E+05   -1.8268941E+00
   2.1585747E-04   2.7416701E+05   -1.8263722E+00
   2.1685432E-04   2.7186991E+05   -1.8258496E+00
   2.1785578E-04   2.6959271E+05   -1.8253263E+00
   2.1886186E-04   2.6733522E+05   -1.8248022E+00
   2.1987259E-04   2.6509729E+05   -1.8242774E+00
   2.2088798E-04   2.6287872E+05   -1.8237519E+00
   2.2190807E-04   2.6067935E+05   -1.8232257E+00
   2.2293286E-04   2.5849901E+05   -1.8226987E+00
   2.2396239E-04   2.5633752E+05   -1.8221711E+00
   2.2499667E-04   2.5419473E+05   -1.8216428E+00
   2.2603573E-04   2.5207047E+05   -1.8211137E+00
   2.2707958E-04   2.4996457E+05   -1.8205840E+00
   2.2812826E-04   2.4787686E+05   -1.8200535E+00
   2.2918178E-04   2.4580720E+05   -1.8195224E+00
   2.3024017E-04   2.4375541E+05   -1.8189906E+00
   2.3130344E-04   2.4172134E+05   -1.8184582E+00
   2.3237162E-04   2.3970483E+05   -1.8179250E+00
   2.3344474E-04   2.3770573E+05   -1.8173912E+00
   2.3452281E-04   2.3572388E+05   -1.8168567E+00
   2.3560586E-04   2.3375914E+05   -1.8163216E+00
   2.3669392E-04   2.3181134E+05   -1.8157858E+00
   2.3778699E-04   2.2988033E+05   -1.8152494E+00
   2.3888512E-04   2.2796598E+05   -1.8147123E+00
   2.3998831E-04   2.2606813E+05   -1.8141745E+00
   2.4109661E-04   2.2418663E+05   -1.8136362E+00
   2.4221001E-04   2.2232135E+05   -1.8130972E+00
   2.4332857E-04   2.2047213E+05   -1.8125576E+00
   2.4445228E-04   2.1863884E+05   -1.8120173E+00
   2.4558119E-04   2.1682133E+05   -1.8114764E+00
   2.4671531E-04   2.1501946E+05   -1.8109350E+00
   2.4785467E-04   2.1323311E+05   -1.8103929E+00
   2.4899928E-04   2.1146212E+05   -1.8098502E+00
   2.5014919E-04   2.0970637E+05   -1.8093069E+00
   2.5130440E-04   2.0796571E+05   -1.8087630E+00
   2.5246495E-04   2.0624002E+05   -1.8082185E+00
   2.5363086E-04   2.0452916E+05   -1.8076734E+00
   2.5480216E-04   2.0283301E+05   -1.8071278E+00
   2.5597886E-04   2.0115143E+05   -1.8065816E+00
   2.5716100E-04   1.9948429E+05   -1.8060348E+00
   2.5834859E-04   1.9783146E+05   -1.8054874E+00
   2.5954168E-04   1.9619283E+05   -1.8049395E+00
   2.6074027E-04   1.9456826E+05   -1.8043911E+00
   2.6194439E-04   1.9295763E+05   -1.8038420E+00
   2.6315408E-04   1.9136082E+05   -1.8032925E+00
   2.6436935E-04   1.8977770E+05   -1.8027424E+00
   2.6559024E-04   1.8820816E+05   -1.8021917E+00
   2.6681676E-04   1.8665207E+05   -1.8016405E+00
   2.6804895E-04   1.8510932E+05   -1.8010888E+00
   2.6928683E-04   1.8357978E+05   -1.8005366E+00
   2.7053042E-04   1.8206335E+05   -1.7999839E+00
   2.7177976E-04   1.8055990E+05   -1.7994306E+00
   2.7303487E-04   1.7906933E+05   -1.7988769E+00
   2.7429577E-04   1.7759151E+05   -1.7983226E+00
   2.7556250E-04   1.7612634E+05   -1.7977679E+00
   2.7683507E-04   1.7467371E+05   -1.7972127E+00
   2.7811353E-04   1.7323349E+05   -1.7966569E+00
   2.7939788E-04   1.7180560E+05   -1.7961008E+00
   2.8068817E-04   1.7038991E+05   -1.7955441E+00
   2.8198442E-04   1.6898632E+05   -1.7949869E+00
   2.8328665E-04   1.6759472E+05   -1.7944293E+00
   2.8459490E-04   1.6621501E+05   -1.7938713E+00
   2.8590919E-04   1.6484708E+05   -1.7933128E+00
   2.8722955E-04   1.6349083E+05   -1.7927538E+00
   2.8855600E-04   1.6214616E+05   -1.7921944E+00
   2.8988859E-04   1.6081296E+05   -1.7916346E+00
   2.9122732E-04   1.5949113E+05   -1.7910743E+00
   2.9257224E-04   1.5818058E+05   -1.7905136E+00
   2.9392337E-04   1.5688120E+05   -1.7899525E+00
   2.9528074E-04   1.5559289E+05   -1.7893910E+00
   2.9664438E-04   1.5431557E+05   -1.7888291E+00
   2.9801431E-04   1.5304913E+05   -1.7882668E+00
   2.9939057E-04   1.5179348E+05   -1.7877040E+00
   3.0077319E-04   1.5054851E+05   -1.7871409E+00
   3.0216219E-04   1.4931415E+05   -1.7865774E+00
   3.0355761E-04   1.4809029E+05   -1.7860135E+00
   3.0495947E-04   1.4687685E+05   -1.7854492E+00
   3.0636780E-04   1.4567372E+05   -1.7848846E+00
   3.0778264E-04   1.4448083E+05   -1.7843196E+00
   3.0920401E-04   1.4329808E+05   -1.7837543E+00
   3.1063195E-04   1.4212538E+05   -1.7831885E+00
   3.1206648E-04   1.4096265E+05   -1.7826225E+00
   3.1350764E-04   1.3980979E+05   -1.7820561E+00
   3.1495545E-04   1.3866673E+05   -1.7814894E+00
   3.1640994E-04   1.3753336E+05   -1.7809223E+00
   3.1787116E-04   1.3640962E+05   -1.7803549E+00
   3.1933912E-04   1.3529542E+05   -1.7797872E+00
   3.2081386E-04   1.3419066E+05   -1.7792192E+00
   3.2229541E-04   1.3309528E+05   -1.7786509E+00
   3.2378381E-04   1.3200918E+05   -1.7780823E+00
   3.2527908E-04   1.3093229E+05   -1.7775133E+00
   3.2678125E-04   1.2986452E+05   -1.7769441E+00
   3.2829036E-04   1.2880580E+05   -1.7763746E+00
   3.2980644E-04   1.2775605E+05   -1.7758049E+00
   3.3132952E-04   1.2671518E+05   -1.7752348E+00
   3.3285963E-04   1.2568313E+05   -1.7746645E+00
   3.3439681E-04   1.2465981E+05   -1.7740940E+00
   3.3594109E-04   1.2364514E+05   -1.7735231E+00
   3.3749250E-04   1.2263906E+05   -1.7729521E+00
   3.3905108E-04   1.2164148E+05   -1.7723808E+00
   3.4061685E-04   1.2065234E+05   -1.7718092E+00
   3.4218986E-04   1.1967155E+05   -1.7712374E+00
   3.4377013E-04   1.1869905E+05   -1.7706654E+00
   3.4535769E-04   1.1773476E+05   -1.7700932E+00
   3.4695259E-04   1.1677862E+05   -1.7695208E+00
   3.4855485E-04   1.1583054E+05   -1.7689481E+00
   3.5016452E-04   1.1489047E+05   -1.7683753E+00
   3.5178161E-04   1.1395832E+05   -1.7678022E+00
   3.5340618E-04   1.1303404E+05   -1.7672290E+00
   3.5503824E-04   1.1211755E+05   -1.7666556E+00
   3.5667785E-04   1.1120878E+05   -1.7660820E+00
   3.5832502E-04   1.1030768E+05   -1.7655083E+00
   3.5997981E-04   1.0941416E+05   -1.7649344E+00
   3.6164223E-04   1.0852817E+05   -1.7643603E+00
   3.6331233E-04   1.0764963E+05   -1.7637860E+00
   3.6499015E-04   1.0677850E+05   -1.7632117E+00
   3.6667571E-04   1.0591469E+05   -1.7626371E+00
   3.6836906E-04   1.0505814E+05   -1.7620625E+00
   3.7007022E-04   1.0420880E+05   -1.7614877E+00
   3.7177925E-04   1.0336660E+05   -1.7609128E+00
   3.7349616E-04   1.0253148E+05   -1.7603378E+00
   3.7522101E-04   1.0170338E+05   -1.7597626E+00
   3.7695382E-04   1.0088223E+05   -1.7591874E+00
   3.7869463E-04   1.0006797E+05   -1.7586121E+00
   3.8044348E-04   9.9260554E+04   -1.7580366E+00
   3.8220041E-04   9.8459911E+04   -1.7574611E+00
   3.8396545E-04   9.7665985E+04   -1.7568855E+00
   3.8573864E-04   9.6878718E+04   -1.7563099E+00
   3.8752002E-04   9.6098051E+04   -1.7557341E+00
   3.8930963E-04   9.5323928E+04   -1.7551583E+00
   3.9110750E-04   9.4556292E+04   -1.7545825E+00
   3.9291368E-04   9.3795087E+04   -1.7540066E+00
   3.9472820E-04   9.3040256E+04   -1.7534306E+00
   3.9655109E-04   9.2291745E+04   -1.7528546E+00
   3.9838241E-04   9.1549499E+04   -1.7522786E+00
   4.0022218E-04   9.0813463E+04   -1.7517026E+00
   4.0207045E-04   9.0083584E+04   -1.7511265E+00
   4.0392725E-04   8.9359808E+04   -1.7505504E+00
   4.0579263E-04   8.8642083E+04   -1.7499744E+00
   4.0766662E-04   8.7930356E+04   -1.7493983E+00
   4.0954927E-04   8.7224575E+04   -1.7488222E+00
   4.1144061E-04   8.6524688E+04   -1.7482461E+00
   4.1334068E-04   8.5830645E+04   -1.7476701E+00
   4.1524953E-04   8.5142396E+04   -1.7470941E+00
   4.1716720E-04   8.4459889E+04   -1.7465181E+00
   4.1909372E-04   8.3783075E+04   -1.7459421E+00
   4.2102914E-04   8.3111906E+04   -1.7453662E+00
   4.2297350E-04   8.2446332E+04   -1.7447903E+00
   4.2492683E-04   8.1786305E+04   -1.7442145E+00
   4.2688919E-04   8.1131778E+04   -1.7436388E+00
   4.2886061E-04   8.0482702E+04   -1.7430631E+00
   4.3084113E-04   7.9839030E+04   -1.7424875E+00
   4.3283080E-04   7.9200716E+04   -1.7419119E+00
   4.3482966E-04   7.8567714E+04   -1.7413365E+00
   4.3683775E-04   7.7939978E+04   -1.7407611E+00
   4.3885511E-04   7.7317462E+04   -1.7401859E+00
   4.4088179E-04   7.6700122E+04   -1.7396107E+00
   4.4291783E-04   7.6087912E+04   -1.7390357E+00
   4.4496327E-04   7.5480789E+04   -1.7384607E+00
   4.4701816E-04   7.4878709E+04   -1.7378859E+00
   4.4908253E-04   7.4281627E+04   -1.7373112E+00
   4.5115644E-04   7.3689502E+04   -1.7367367E+00
   4.5323993E-04   7.3102291E+04   -1.7361622E+00
   4.5533304E-04   7.2519951E+04   -1.7355880E+00
   4.5743582E-04   7.1942440E+04   -1.7350139E+00
   4.5954830E-04   7.1369717E+04   -1.7344399E+00
   4.6167054E-04   7.0801741E+04   -1.7338661E+00
   4.6380259E-04   7.0238470E+04   -1.7332925E+00
   4.6594448E-04   6.9679864E+04   -1.7327190E+00
   4.6809626E-04   6.9125884E+04   -1.7321457E+00
   4.7025797E-04   6.8576489E+04   -1.7315727E+00
   4.7242967E-04   6.8031640E+04   -1.7309998E+00
   4.7461140E-04   6.7491298E+04   -1.7304271E+00
   4.7680321E-04   6.6955425E+04   -1.7298546E+00
   4.7900514E-04   6.6423981E+04   -1.7292823E+00
   4.8121723E-04   6.5896930E+04   -1.7287103E+00
   4.8343954E-04   6.5374233E+04   -1.7281384E+00
   4.8567212E-04   6.4855852E+04   -1.7275668E+00
   4.8791500E-04   6.4341752E+04   -1.7269955E+00
   4.9016825E-04   6.3831894E+04   -1.7264243E+00
   4.9243189E-04   6.3326244E+04   -1.7258534E+00
   4.9470600E-04   6.2824764E+04   -1.7252828E+00
   4.9699060E-04   6.2327419E+04   -1.7247124E+00
   4.9928575E-04   6.1834174E+04   -1.7241423E+00
   5.0159151E-04   6.1344993E+04   -1.7235725E+00
   5.0390791E-04   6.0859843E+04   -1.7230029E+00
   5.0623501E-04   6.0378687E+04   -1.7224337E+00
   5.0857286E-04   5.9901492E+04   -1.7218647E+00
   5.1092150E-04   5.9428225E+04   -1.7212960E+00
   5.1328099E-04   5.8958851E+04   -1.7207276E+00
   5.1565137E-04   5.8493338E+04   -1.7201595E+00
   5.1803270E-04   5.8031652E+04   -1.7195917E+00
   5.2042503E-04   5.7573761E+04   -1.7190242E+00
   5.2282841E-04   5.7119632E+04   -1.7184571E+00
   5.2524289E-04   5.6669233E+04   -1.7178903E+00
   5.2766851E-04   5.6222532E+04   -1.7173238E+00
   5.3010534E-04   5.5779498E+04   -1.7167577E+00
   5.3255342E-04   5.5340099E+04   -1.7161919E+00
   5.3501281E-04   5.4904305E+04   -1.7156264E+00
   5.3748356E-04   5.4472084E+04   -1.7150613E+00
   5.3996571E-04   5.4043407E+04   -1.7144966E+00
   5.4245933E-04   5.3618243E+04   -1.7139323E+00
   5.4496446E-04   5.3196562E+04   -1.7133683E+00
   5.4748117E-04   5.2778334E+04   -1.7128047E+00
   5.5000949E-04   5.2363530E+04   -1.7122415E+00
   5.5254949E-04   5.1952121E+04   -1.7116786E+00
   5.5510123E-04   5.1544078E+04   -1.7111162E+00
   5.5766474E-04   5.1139373E+04   -1.7105542E+00
   5.6024010E-04   5.0737976E+04   -1.7099925E+00
   5.6282734E-04   5.0339860E+04   -1.7094313E+00
   5.6542654E-04   4.9944997E+04   -1.7088705E+00
   5.6803774E-04   4.9553359E+04   -1.7083102E+00
   5.7066099E-04   4.9164919E+04   -1.7077502E+00
   5.7329637E-04   4.8779650E+04   -1.7071907E+00
   5.7594391E-04   4.8397525E+04   -1.7066316E+00
   5.7860368E-04   4.8018517E+04   -1.7060730E+00
   5.8127573E-04   4.7642599E+04   -1.7055148E+00
   5.8396012E-04   4.7269746E+04   -1.7049571E+00
   5.8665691E-04   4.6899931E+04   -1.7043999E+00
   5.8936616E-04   4.6533129E+04   -1.7038431E+00
   5.9208791E-04   4.6169314E+04   -1.7032868E+00
   5.9482223E-04   4.5808461E+04   -1.7027309E+00
   5.9756919E-04   4.5450545E+04   -1.7021756E+00
   6.0032882E-04   4.5095540E+04   -1.7016207E+00
   6.0310120E-04   4.4743423E+04   -1.7010663E+00
   6.0588639E-04   4.4394168E+04   -1.7005124E+00
   6.0868443E-04   4.4047752E+04   -1.6999591E+00
   6.1149540E-04   4.3704151E+04   -1.6994062E+00
   6.1431935E-04   4.3363340E+04   -1.6988538E+00
   6.1715634E-04   4.3025297E+04   -1.6983020E+00
   6.2000644E-04   4.2689997E+04   -1.6977507E+00
   6.2286969E-04   4.2357417E+04   -1.6971999E+00
