#        a       HoverH0(a)       dlogHdloga_of_a(a)
   1.0000000E-04   1.1406239E+06   -1.8738460E+00
   1.0046181E-04   1.1308196E+06   -1.8734109E+00
   1.0092575E-04   1.1211019E+06   -1.8729748E+00
   1.0139184E-04   1.1114699E+06   -1.8725377E+00
   1.0186008E-04   1.1019228E+06   -1.8720996E+00
   1.0233048E-04   1.0924600E+06   -1.8716606E+00
   1.0280305E-04   1.0830806E+06   -1.8712205E+00
   1.0327781E-04   1.0737840E+06   -1.8707795E+00
   1.0375475E-04   1.0645693E+06   -1.8703375E+00
   1.0423390E-04   1.0554358E+06   -1.8698945E+00
   1.0471527E-04   1.0463828E+06   -1.8694505E+00
   1.0519885E-04   1.0374097E+06   -1.8690056E+00
   1.0568467E-04   1.0285155E+06   -1.8685596E+00
   1.0617274E-04   1.0196997E+06   -1.8681127E+00
   1.0666305E-04   1.0109616E+06   -1.8676648E+00
   1.0715563E-04   1.0023004E+06   -1.8672160E+00
   1.0765049E-04   9.9371550E+05   -1.8667662E+00
   1.0814763E-04   9.8520615E+05   -1.8663154E+00
   1.0864707E-04   9.7677170E+05   -1.8658636E+00
   1.0914881E-04   9.6841148E+05   -1.8654109E+00
   1.0965287E-04   9.6012481E+05   -1.8649572E+00
   1.1015926E-04   9.5191105E+05   -1.8645025E+00
   1.1066799E-04   9.4376953E+05   -1.8640469E+00
   1.1117906E-04   9.3569961E+05   -1.8635903E+00
   1.1169250E-04   9.2770065E+05   -1.8631328E+00
   1.1220831E-04   9.1977201E+05   -1.8626743E+00
   1.1272650E-04   9.1191306E+05   -1.8622149E+00
   1.1324708E-04   9.0412318E+05   -1.8617545E+00
   1.1377007E-04   8.9640175E+05   -1.8612932E+00
   1.1429547E-04   8.8874815E+05   -1.8608309E+00
   1.1482330E-04   8.8116178E+05   -1.8603676E+00
   1.1535356E-04   8.7364203E+05   -1.8599035E+00
   1.1588628E-04   8.6618831E+05   -1.8594383E+00
   1.1642145E-04   8.5880002E+05   -1.8589723E+00
   1.1695910E-04   8.5147658E+05   -1.8585053E+00
   1.1749923E-04   8.4421741E+05   -1.8580374E+00
   1.1804185E-04   8.3702194E+05   -1.8575685E+00
   1.1858698E-04   8.2988959E+05   -1.8570987E+00
   1.1913463E-04   8.2281979E+05   -1.8566280E+00
   1.1968481E-04   8.1581200E+05   -1.8561564E+00
   1.2023752E-04   8.0886564E+05   -1.8556838E+00
   1.2079279E-04   8.0198019E+05   -1.8552103E+00
   1.2135063E-04   7.9515508E+05   -1.8547359E+00
   1.2191104E-04   7.8838978E+05   -1.8542606E+00
   1.2247403E-04   7.8168376E+05   -1.8537843E+00
   1.2303963E-04   7.7503647E+05   -1.8533072E+00
   1.2360784E-04   7.6844741E+05   -1.8528291E+00
   1.2417868E-04   7.6191604E+05   -1.8523501E+00
   1.2475215E-04   7.5544186E+05   -1.8518703E+00
   1.2532826E-04   7.4902434E+05   -1.8513895E+00
   1.2590704E-04   7.4266299E+05   -1.8509078E+00
   1.2648850E-04   7.3635730E+05   -1.8504252E+00
   1.2707263E-04   7.3010677E+05   -1.8499418E+00
   1.2765947E-04   7.2391092E+05   -1.8494574E+00
   1.2824901E-04   7.1776925E+05   -1.8489722E+00
   1.2884128E-04   7.1168128E+05   -1.8484860E+00
   1.2943628E-04   7.0564653E+05   -1.8479990E+00
   1.3003403E-04   6.9966452E+05   -1.8475111E+00
   1.3063454E-04   6.9373478E+05   -1.8470223E+00
   1.3123783E-04   6.8785685E+05   -1.8465327E+00
   1.3184390E-04   6.8203026E+05   -1.8460422E+00
   1.3245277E-04   6.7625455E+05   -1.8455508E+00
   1.3306445E-04   6.7052928E+05   -1.8450585E+00
   1.3367895E-04   6.6485399E+05   -1.8445654E+00
   1.3429630E-04   6.5922823E+05   -1.8440714E+00
   1.3491649E-04   6.5365156E+05   -1.8435766E+00
   1.3553955E-04   6.4812354E+05   -1.8430809E+00
   1.3616548E-04   6.4264375E+05   -1.8425843E+00
   1.3679431E-04   6.3721175E+05   -1.8420870E+00
   1.3742604E-04   6.3182711E+05   -1.8415887E+00
   1.3806069E-04   6.2648942E+05   -1.8410896E+00
   1.3869827E-04   6.2119824E+05   -1.8405897E+00
   1.3933879E-04   6.1595317E+05   -1.8400890E+00
   1.3998227E-04   6.1075380E+05   -1.8395874E+00
   1.4062872E-04   6.0559972E+05   -1.8390850E+00
   1.4127816E-04   6.0049053E+05   -1.8385817E+00
   1.4193060E-04   5.9542582E+05   -1.8380777E+00
   1.4258605E-04   5.9040520E+05   -1.8375728E+00
   1.4324453E-04   5.8542827E+05   -1.8370671E+00
   1.4390605E-04   5.8049466E+05   -1.8365606E+00
   1.4457062E-04   5.7560396E+05   -1.8360533E+00
   1.4523826E-04   5.7075581E+05   -1.8355451E+00
   1.4590899E-04   5.6594982E+05   -1.8350362E+00
   1.4658281E-04   5.6118561E+05   -1.8345265E+00
   1.4725974E-04   5.5646282E+05   -1.8340160E+00
   1.4793981E-04   5.5178107E+05   -1.8335047E+00
   1.4862301E-04   5.4713999E+05   -1.8329926E+00
   1.4930936E-04   5.4253924E+05   -1.8324797E+00
   1.4999889E-04   5.3797845E+05   -1.8319660E+00
   1.5069160E-04   5.3345726E+05   -1.8314516E+00
   1.5138751E-04   5.2897531E+05   -1.8309364E+00
   1.5208663E-04   5.2453228E+05   -1.8304204E+00
   1.5278899E-04   5.2012779E+05   -1.8299036E+00
   1.5349458E-04   5.1576152E+05   -1.8293861E+00
   1.5420343E-04   5.1143313E+05   -1.8288679E+00
   1.5491556E-04   5.0714227E+05   -1.8283488E+00
   1.5563098E-04   5.0288862E+05   -1.8278291E+00
   1.5634970E-04   4.9867183E+05   -1.8273086E+00
   1.5707174E-04   4.9449160E+05   -1.8267873E+00
   1.5779711E-04   4.9034758E+05   -1.8262653E+00
   1.5852584E-04   4.8623946E+05   -1.8257426E+00
   1.5925792E-04   4.8216692E+05   -1.8252191E+00
   1.5999339E-04   4.7812964E+05   -1.8246949E+00
   1.6073226E-04   4.7412732E+05   -1.8241700E+00
   1.6147454E-04   4.7015963E+05   -1.8236444E+00
   1.6222024E-04   4.6622628E+05   -1.8231180E+00
   1.6296939E-04   4.6232696E+05   -1.8225910E+00
   1.6372200E-04   4.5846137E+05   -1.8220632E+00
   1.6447809E-04   4.5462920E+05   -1.8215348E+00
   1.6523767E-04   4.5083016E+05   -1.8210056E+00
   1.6600075E-04   4.4706396E+05   -1.8204758E+00
   1.6676736E-04   4.4333030E+05   -1.8199452E+00
   1.6753751E-04   4.3962890E+05   -1.8194140E+00
   1.6831122E-04   4.3595947E+05   -1.8188821E+00
   1.6908849E-04   4.3232173E+05   -1.8183495E+00
   1.6986936E-04   4.2871540E+05   -1.8178162E+00
   1.7065384E-04   4.2514019E+05   -1.8172823E+00
   1.7144193E-04   4.2159584E+05   -1.8167477E+00
   1.7223367E-04   4.1808207E+05   -1.8162125E+00
   1.7302906E-04   4.1459860E+05   -1.8156766E+00
   1.7382813E-04   4.1114518E+05   -1.8151401E+00
   1.7463089E-04   4.0772153E+05   -1.8146029E+00
   1.7543735E-04   4.0432739E+05   -1.8140650E+00
   1.7624754E-04   4.0096250E+05   -1.8135266E+00
   1.7706147E-04   3.9762660E+05   -1.8129875E+00
   1.7787916E-04   3.9431943E+05   -1.8124478E+00
   1.7870062E-04   3.9104074E+05   -1.8119074E+00
   1.7952588E-04   3.8779028E+05   -1.8113665E+00
   1.8035495E-04   3.8456780E+05   -1.8108249E+00
   1.8118785E-04   3.8137305E+05   -1.8102827E+00
   1.8202459E-04   3.7820578E+05   -1.8097399E+00
   1.8286520E-04   3.7506576E+05   -1.8091965E+00
   1.8370969E-04   3.7195274E+05   -1.8086526E+00
   1.8455808E-04   3.6886648E+05   -1.8081080E+00
   1.8541039E-04   3.6580675E+05   -1.8075628E+00
   1.8626663E-04   3.6277331E+05   -1.8070171E+00
   1.8712683E-04   3.5976593E+05   -1.8064708E+00
   1.8799100E-04   3.5678437E+05   -1.8059239E+00
   1.8885917E-04   3.5382842E+05   -1.8053765E+00
   1.8973134E-04   3.5089785E+05   -1.8048285E+00
   1.9060754E-04   3.4799243E+05   -1.8042800E+00
   1.9148778E-04   3.4511193E+05   -1.8037309E+00
   1.9237209E-04   3.4225615E+05   -1.8031812E+00
   1.9326049E-04   3.3942486E+05   -1.8026310E+00
   1.9415299E-04   3.3661784E+05   -1.8020803E+00
   1.9504960E-04   3.3383488E+05   -1.8015291E+00
   1.9595036E-04   3.3107578E+05   -1.8009773E+00
   1.9685528E-04   3.2834031E+05   -1.8004250E+00
   1.9776438E-04   3.2562827E+05   -1.7998722E+00
   1.9867768E-04   3.2293946E+05   -1.7993189E+00
   1.9959519E-04   3.2027367E+05   -1.7987651E+00
   2.0051694E-04   3.1763069E+05   -1.7982108E+00
   2.0144295E-04   3.1501033E+05   -1.7976560E+00
   2.0237324E-04   3.1241238E+05   -1.7971007E+00
   2.0330782E-04   3.0983665E+05   -1.7965449E+00
   2.0424671E-04   3.0728295E+05   -1.7959887E+00
   2.0518995E-04   3.0475107E+05   -1.7954319E+00
   2.0613754E-04   3.0224083E+05   -1.7948747E+00
   2.0708950E-04   2.9975204E+05   -1.7943171E+00
   2.0804586E-04   2.9728451E+05   -1.7937590E+00
   2.0900664E-04   2.9483805E+05   -1.7932004E+00
   2.0997185E-04   2.9241247E+05   -1.7926414E+00
   2.1094152E-04   2.9000760E+05   -1.7920820E+00
   2.1191567E-04   2.8762324E+05   -1.7915221E+00
   2.1289432E-04   2.8525923E+05   -1.7909618E+00
   2.1387749E-04   2.8291538E+05   -1.7904011E+00
   2.1486520E-04   2.8059150E+05   -1.7898399E+00
   2.1585747E-04   2.7828744E+05   -1.7892784E+00
   2.1685432E-04   2.7600301E+05   -1.7887164E+00
   2.1785578E-04   2.7373805E+05   -1.7881540E+00
   2.1886186E-04   2.7149237E+05   -1.7875912E+00
   2.1987259E-04   2.6926582E+05   -1.7870281E+00
   2.2088798E-04   2.6705822E+05   -1.7864646E+00
   2.2190807E-04   2.6486940E+05   -1.7859006E+00
   2.2293286E-04   2.6269921E+05   -1.7853363E+00
   2.2396239E-04   2.6054748E+05   -1.7847717E+00
   2.2499667E-04   2.5841404E+05   -1.7842067E+00
   2.2603573E-04   2.5629874E+05   -1.7836413E+00
   2.2707958E-04   2.5420142E+05   -1.7830755E+00
   2.2812826E-04   2.5212192E+05   -1.7825095E+00
   2.2918178E-04   2.5006008E+05   -1.7819430E+00
   2.3024017E-04   2.4801575E+05   -1.7813763E+00
   2.3130344E-04   2.4598878E+05   -1.7808092E+00
   2.3237162E-04   2.4397901E+05   -1.7802418E+00
   2.3344474E-04   2.4198630E+05   -1.7796741E+00
   2.3452281E-04   2.4001048E+05   -1.7791061E+00
   2.3560586E-04   2.3805143E+05   -1.7785377E+00
   2.3669392E-04   2.3610898E+05   -1.7779691E+00
   2.3778699E-04   2.3418299E+05   -1.7774002E+00
   2.3888512E-04   2.3227333E+05   -1.7768310E+00
   2.3998831E-04   2.3037984E+05   -1.7762615E+00
   2.4109661E-04   2.2850239E+05   -1.7756917E+00
   2.4221001E-04   2.2664083E+05   -1.7751216E+00
   2.4332857E-04   2.2479503E+05   -1.7745513E+00
   2.4445228E-04   2.2296485E+05   -1.7739808E+00
   2.4558119E-04   2.2115015E+05   -1.7734099E+00
   2.4671531E-04   2.1935079E+05   -1.7728389E+00
   2.4785467E-04   2.1756665E+05   -1.7722676E+00
   2.4899928E-04   2.1579759E+05   -1.7716960E+00
   2.5014919E-04   2.1404348E+05   -1.7711243E+00
   2.5130440E-04   2.1230419E+05   -1.7705523E+00
   2.5246495E-04   2.1057958E+05   -1.7699801E+00
   2.5363086E-04   2.0886953E+05   -1.7694076E+00
   2.5480216E-04   2.0717392E+05   -1.7688350E+00
   2.5597886E-04   2.0549261E+05   -1.7682622E+00
   2.5716100E-04   2.0382549E+05   -1.7676892E+00
   2.5834859E-04   2.0217243E+05   -1.7671160E+00
   2.5954168E-04   2.0053330E+05   -1.7665426E+00
   2.6074027E-04   1.9890798E+05   -1.7659690E+00
   2.6194439E-04   1.9729637E+05   -1.7653953E+00
   2.6315408E-04   1.9569832E+05   -1.7648214E+00
   2.6436935E-04   1.9411374E+05   -1.7642473E+00
   2.6559024E-04   1.9254249E+05   -1.7636731E+00
   2.6681676E-04   1.9098447E+05   -1.7630988E+00
   2.6804895E-04   1.8943955E+05   -1.7625243E+00
   2.6928683E-04   1.8790763E+05   -1.7619497E+00
   2.7053042E-04   1.8638860E+05   -1.7613749E+00
   2.7177976E-04   1.8488233E+05   -1.7608000E+00
   2.7303487E-04   1.8338872E+05   -1.7602250E+00
   2.7429577E-04   1.8190766E+05   -1.7596500E+00
   2.7556250E-04   1.8043903E+05   -1.7590748E+00
   2.7683507E-04   1.7898274E+05   -1.7584995E+00
   2.7811353E-04   1.7753868E+05   -1.7579241E+00
   2.7939788E-04   1.7610673E+05   -1.7573486E+00
   2.8068817E-04   1.7468679E+05   -1.7567731E+00
   2.8198442E-04   1.7327876E+05   -1.7561974E+00
   2.8328665E-04   1.7188254E+05   -1.7556218E+00
   2.8459490E-04   1.7049802E+05   -1.7550460E+00
   2.8590919E-04   1.6912510E+05   -1.7544702E+00
   2.8722955E-04   1.6776368E+05   -1.7538944E+00
   2.8855600E-04   1.6641366E+05   -1.7533185E+00
   2.8988859E-04   1.6507495E+05   -1.7527426E+00
   2.9122732E-04   1.6374743E+05   -1.7521666E+00
   2.9257224E-04   1.6243103E+05   -1.7515906E+00
   2.9392337E-04   1.6112563E+05   -1.7510146E+00
   2.9528074E-04   1.5983115E+05   -1.7504386E+00
   2.9664438E-04   1.5854749E+05   -1.7498626E+00
   2.9801431E-04   1.5727456E+05   -1.7492866E+00
   2.9939057E-04   1.5601226E+05   -1.7487106E+00
   3.0077319E-04   1.5476050E+05   -1.7481346E+00
   3.0216219E-04   1.5351920E+05   -1.7475586E+00
   3.0355761E-04   1.5228825E+05   -1.7469827E+00
   3.0495947E-04   1.5106758E+05   -1.7464068E+00
   3.0636780E-04   1.4985709E+05   -1.7458309E+00
   3.0778264E-04   1.4865669E+05   -1.7452551E+00
   3.0920401E-04   1.4746630E+05   -1.7446793E+00
   3.1063195E-04   1.4628582E+05   -1.7441035E+00
   3.1206648E-04   1.4511519E+05   -1.7435279E+00
   3.1350764E-04   1.4395430E+05   -1.7429523E+00
   3.1495545E-04   1.4280308E+05   -1.7423768E+00
   3.1640994E-04   1.4166144E+05   -1.7418013E+00
   3.1787116E-04   1.4052930E+05   -1.7412259E+00
   3.1933912E-04   1.3940658E+05   -1.7406507E+00
   3.2081386E-04   1.3829319E+05   -1.7400755E+00
   3.2229541E-04   1.3718906E+05   -1.7395005E+00
   3.2378381E-04   1.3609410E+05   -1.7389255E+00
   3.2527908E-04   1.3500825E+05   -1.7383507E+00
   3.2678125E-04   1.3393141E+05   -1.7377760E+00
   3.2829036E-04   1.3286351E+05   -1.7372014E+00
   3.2980644E-04   1.3180447E+05   -1.7366269E+00
   3.3132952E-04   1.3075423E+05   -1.7360526E+00
   3.3285963E-04   1.2971269E+05   -1.7354785E+00
   3.3439681E-04   1.2867979E+05   -1.7349045E+00
   3.3594109E-04   1.2765545E+05   -1.7343306E+00
   3.3749250E-04   1.2663961E+05   -1.7337569E+00
   3.3905108E-04   1.2563218E+05   -1.7331834E+00
   3.4061685E-04   1.2463309E+05   -1.7326101E+00
   3.4218986E-04   1.2364227E+05   -1.7320369E+00
   3.4377013E-04   1.2265966E+05   -1.7314640E+00
   3.4535769E-04   1.2168517E+05   -1.7308912E+00
   3.4695259E-04   1.2071874E+05   -1.7303186E+00
   3.4855485E-04   1.1976031E+05   -1.7297463E+00
   3.5016452E-04   1.1880980E+05   -1.7291741E+00
   3.5178161E-04   1.1786714E+05   -1.7286022E+00
   3.5340618E-04   1.1693227E+05   -1.7280305E+00
   3.5503824E-04   1.1600512E+05   -1.7274590E+00
   3.5667785E-04   1.1508563E+05   -1.7268878E+00
   3.5832502E-04   1.1417373E+05   -1.7263168E+00
   3.5997981E-04   1.1326934E+05   -1.7257460E+00
   3.6164223E-04   1.1237242E+05   -1.7251756E+00
   3.6331233E-04   1.1148289E+05   -1.7246053E+00
   3.6499015E-04   1.1060070E+05   -1.7240354E+00
   3.6667571E-04   1.0972577E+05   -1.7234657E+00
   3.6836906E-04   1.0885805E+05   -1.7228963E+00
   3.7007022E-04   1.0799748E+05   -1.7223271E+00
   3.7177925E-04   1.0714398E+05   -1.7217583E+00
   3.7349616E-04   1.0629752E+05   -1.7211897E+00
   3.7522101E-04   1.0545801E+05   -1.7206215E+00
   3.7695382E-04   1.0462542E+05   -1.7200536E+00
   3.7869463E-04   1.0379966E+05   -1.7194859E+00
   3.8044348E-04   1.0298069E+05   -1.7189186E+00
   3.8220041E-04   1.0216845E+05   -1.7183516E+00
   3.8396545E-04   1.0136289E+05   -1.7177850E+00
   3.8573864E-04   1.0056393E+05   -1.7172187E+00
   3.8752002E-04   9.9771535E+04   -1.7166527E+00
   3.8930963E-04   9.8985641E+04   -1.7160871E+00
   3.9110750E-04   9.8206192E+04   -1.7155218E+00
   3.9291368E-04   9.7433135E+04   -1.7149569E+00
   3.9472820E-04   9.6666415E+04   -1.7143923E+00
   3.9655109E-04   9.5905978E+04   -1.7138281E+00
   3.9838241E-04   9.5151770E+04   -1.7132643E+00
   4.0022218E-04   9.4403738E+04   -1.7127009E+00
   4.0207045E-04   9.3661830E+04   -1.7121379E+00
   4.0392725E-04   9.2925994E+04   -1.7115752E+00
   4.0579263E-04   9.2196177E+04   -1.7110130E+00
   4.0766662E-04   9.1472330E+04   -1.7104511E+00
   4.0954927E-04   9.0754400E+04   -1.7098897E+00
   4.1144061E-04   9.0042337E+04   -1.7093286E+00
   4.1334068E-04   8.9336093E+04   -1.7087680E+00
   4.1524953E-04   8.8635616E+04   -1.7082078E+00
   4.1716720E-04   8.7940859E+04   -1.7076481E+00
   4.1909372E-04   8.7251772E+04   -1.7070888E+00
   4.2102914E-04   8.6568308E+04   -1.7065299E+00
   4.2297350E-04   8.5890419E+04   -1.7059715E+00
   4.2492683E-04   8.5218057E+04   -1.7054135E+00
   4.2688919E-04   8.4551177E+04   -1.7048560E+00
   4.2886061E-04   8.3889730E+04   -1.7042989E+00
   4.3084113E-04   8.3233671E+04   -1.7037423E+00
   4.3283080E-04   8.2582955E+04   -1.7031862E+00
   4.3482966E-04   8.1937536E+04   -1.7026306E+00
   4.3683775E-04   8.1297369E+04   -1.7020754E+00
   4.3885511E-04   8.0662409E+04   -1.7015208E+00
   4.4088179E-04   8.0032614E+04   -1.7009666E+00
   4.4291783E-04   7.9407938E+04   -1.7004129E+00
   4.4496327E-04   7.8788339E+04   -1.6998598E+00
   4.4701816E-04   7.8173774E+04   -1.6993071E+00
   4.4908253E-04   7.7564200E+04   -1.6987550E+00
   4.5115644E-04   7.6959574E+04   -1.6982034E+00
   4.5323993E-04   7.6359856E+04   -1.6976523E+00
   4.5533304E-04   7.5765004E+04   -1.6971017E+00
   4.5743582E-04   7.5174977E+04   -1.6965517E+00
   4.5954830E-04   7.4589733E+04   -1.6960022E+00
   4.6167054E-04   7.4009232E+04   -1.6954533E+00
   4.6380259E-04   7.3433435E+04   -1.6949049E+00
   4.6594448E-04   7.2862302E+04   -1.6943570E+00
   4.6809626E-04   7.2295793E+04   -1.6938098E+00
   4.7025797E-04   7.1733870E+04   -1.6932631E+00
   4.7242967E-04   7.1176493E+04   -1.6927169E+00
   4.7461140E-04   7.0623625E+04   -1.6921714E+00
   4.7680321E-04   7.0075227E+04   -1.6916264E+00
   4.7900514E-04   6.9531262E+04   -1.6910820E+00
   4.8121723E-04   6.8991693E+04   -1.6905382E+00
   4.8343954E-04   6.8456482E+04   -1.6899950E+00
   4.8567212E-04   6.7925593E+04   -1.6894524E+00
   4.8791500E-04   6.7398990E+04   -1.6889103E+00
   4.9016825E-04   6.6876636E+04   -1.6883689E+00
   4.9243189E-04   6.6358496E+04   -1.6878282E+00
   4.9470600E-04   6.5844534E+04   -1.6872880E+00
   4.9699060E-04   6.5334716E+04   -1.6867484E+00
   4.9928575E-04   6.4829006E+04   -1.6862095E+00
   5.0159151E-04   6.4327369E+04   -1.6856712E+00
   5.0390791E-04   6.3829773E+04   -1.6851336E+00
   5.0623501E-04   6.3336183E+04   -1.6845966E+00
   5.0857286E-04   6.2846564E+04   -1.6840602E+00
   5.1092150E-04   6.2360885E+04   -1.6835245E+00
   5.1328099E-04   6.1879112E+04   -1.6829895E+00
   5.1565137E-04   6.1401213E+04   -1.6824551E+00
   5.1803270E-04   6.0927154E+04   -1.6819213E+00
   5.2042503E-04   6.0456903E+04   -1.6813883E+00
   5.2282841E-04   5.9990430E+04   -1.6808559E+00
   5.2524289E-04   5.9527701E+04   -1.6803242E+00
   5.2766851E-04   5.9068686E+04   -1.6797931E+00
   5.3010534E-04   5.8613354E+04   -1.6792628E+00
   5.3255342E-04   5.8161674E+04   -1.6787331E+00
   5.3501281E-04   5.7713616E+04   -1.6782042E+00
   5.3748356E-04   5.7269148E+04   -1.6776759E+00
   5.3996571E-04   5.6828242E+04   -1.6771483E+00
   5.4245933E-04   5.6390867E+04   -1.6766215E+00
   5.4496446E-04   5.5956995E+04   -1.6760953E+00
   5.4748117E-04   5.5526595E+04   -1.6755699E+00
   5.5000949E-04   5.5099638E+04   -1.6750452E+00
   5.5254949E-04   5.4676097E+04   -1.6745212E+00
   5.5510123E-04   5.4255943E+04   -1.6739979E+00
   5.5766474E-04   5.3839146E+04   -1.6734754E+00
   5.6024010E-04   5.3425681E+04   -1.6729536E+00
   5.6282734E-04   5.3015517E+04   -1.6724325E+00
   5.6542654E-04   5.2608629E+04   -1.6719122E+00
   5.6803774E-04   5.2204989E+04   -1.6713927E+00
   5.7066099E-04   5.1804570E+04   -1.6708738E+00
   5.7329637E-04   5.1407344E+04   -1.6703558E+00
   5.7594391E-04   5.1013286E+04   -1.6698385E+00
   5.7860368E-04   5.0622370E+04   -1.6693219E+00
   5.8127573E-04   5.0234568E+04   -1.6688062E+00
   5.8396012E-04   4.9849856E+04   -1.6682912E+00
   5.8665691E-04   4.9468207E+04   -1.6677769E+00
   5.8936616E-04   4.9089597E+04   -1.6672635E+00
   5.9208791E-04   4.8713999E+04   -1.6667508E+00
   5.9482223E-04   4.8341389E+04   -1.6662389E+00
   5.9756919E-04   4.7971742E+04   -1.6657278E+00
   6.0032882E-04   4.7605034E+04   -1.6652175E+00
   6.0310120E-04   4.7241240E+04   -1.6647080E+00
   6.0588639E-04   4.6880336E+04   -1.6641993E+00
   6.0868443E-04   4.6522298E+04   -1.6636914E+00
   6.1149540E-04   4.6167103E+04   -1.6631843E+00
   6.1431935E-04   4.5814726E+04   -1.6626780E+00
   6.1715634E-04   4.5465145E+04   -1.6621725E+00
   6.2000644E-04   4.5118336E+04   -1.6616679E+00
   6.2286969E-04   4.4774277E+04   -1.6611640E+00
