#        a       HoverH0(a)       dlogHdloga_of_a(a)
   1.0000000E-04   1.1889134E+06   -1.8854326E+00
   1.0046181E-04   1.1786310E+06   -1.8850252E+00
   1.0092575E-04   1.1684398E+06   -1.8846168E+00
   1.0139184E-04   1.1583389E+06   -1.8842073E+00
   1.0186008E-04   1.1483275E+06   -1.8837968E+00
   1.0233048E-04   1.1384047E+06   -1.8833853E+00
   1.0280305E-04   1.1285698E+06   -1.8829728E+00
   1.0327781E-04   1.1188221E+06   -1.8825593E+00
   1.0375475E-04   1.1091606E+06   -1.8821448E+00
   1.0423390E-04   1.0995847E+06   -1.8817292E+00
   1.0471527E-04   1.0900935E+06   -1.8813127E+00
   1.0519885E-04   1.0806863E+06   -1.8808951E+00
   1.0568467E-04   1.0713624E+06   -1.8804765E+00
   1.0617274E-04   1.0621210E+06   -1.8800570E+00
   1.0666305E-04   1.0529613E+06   -1.8796364E+00
   1.0715563E-04   1.0438827E+06   -1.8792148E+00
   1.0765049E-04   1.0348843E+06   -1.8787922E+00
   1.0814763E-04   1.0259655E+06   -1.8783686E+00
   1.0864707E-04   1.0171256E+06   -1.8779440E+00
   1.0914881E-04   1.0083638E+06   -1.8775184E+00
   1.0965287E-04   9.9967940E+05   -1.8770918E+00
   1.1015926E-04   9.9107177E+05   -1.8766642E+00
   1.1066799E-04   9.8254020E+05   -1.8762356E+00
   1.1117906E-04   9.7408400E+05   -1.8758060E+00
   1.1169250E-04   9.6570249E+05   -1.8753754E+00
   1.1220831E-04   9.5739500E+05   -1.8749438E+00
   1.1272650E-04   9.4916087E+05   -1.8745112E+00
   1.1324708E-04   9.4099943E+05   -1.8740776E+00
   1.1377007E-04   9.3291004E+05   -1.8736430E+00
   1.1429547E-04   9.2489204E+05   -1.8732074E+00
   1.1482330E-04   9.1694480E+05   -1.8727709E+00
   1.1535356E-04   9.0906767E+05   -1.8723333E+00
   1.1588628E-04   9.0126003E+05   -1.8718948E+00
   1.1642145E-04   8.9352126E+05   -1.8714552E+00
   1.1695910E-04   8.8585073E+05   -1.8710147E+00
   1.1749923E-04   8.7824783E+05   -1.8705732E+00
   1.1804185E-04   8.7071196E+05   -1.8701308E+00
   1.1858698E-04   8.6324252E+05   -1.8696873E+00
   1.1913463E-04   8.5583890E+05   -1.8692429E+00
   1.1968481E-04   8.4850051E+05   -1.8687974E+00
   1.2023752E-04   8.4122678E+05   -1.8683511E+00
   1.2079279E-04   8.3401712E+05   -1.8679037E+00
   1.2135063E-04   8.2687096E+05   -1.8674553E+00
   1.2191104E-04   8.1978773E+05   -1.8670060E+00
   1.2247403E-04   8.1276685E+05   -1.8665558E+00
   1.2303963E-04   8.0580778E+05   -1.8661045E+00
   1.2360784E-04   7.9890995E+05   -1.8656523E+00
   1.2417868E-04   7.9207283E+05   -1.8651991E+00
   1.2475215E-04   7.8529585E+05   -1.8647450E+00
   1.2532826E-04   7.7857849E+05   -1.8642898E+00
   1.2590704E-04   7.7192021E+05   -1.8638338E+00
   1.2648850E-04   7.6532048E+05   -1.8633768E+00
   1.2707263E-04   7.5877878E+05   -1.8629188E+00
   1.2765947E-04   7.5229458E+05   -1.8624598E+00
   1.2824901E-04   7.4586738E+05   -1.8619999E+00
   1.2884128E-04   7.3949665E+05   -1.8615391E+00
   1.2943628E-04   7.3318190E+05   -1.8610773E+00
   1.3003403E-04   7.2692261E+05   -1.8606146E+00
   1.3063454E-04   7.2071831E+05   -1.8601509E+00
   1.3123783E-04   7.1456848E+05   -1.8596863E+00
   1.3184390E-04   7.0847265E+05   -1.8592207E+00
   1.3245277E-04   7.0243032E+05   -1.8587542E+00
   1.3306445E-04   6.9644103E+05   -1.8582868E+00
   1.3367895E-04   6.9050430E+05   -1.8578184E+00
   1.3429630E-04   6.8461965E+05   -1.8573491E+00
   1.3491649E-04   6.7878662E+05   -1.8568789E+00
   1.3553955E-04   6.7300475E+05   -1.8564077E+00
   1.3616548E-04   6.6727358E+05   -1.8559357E+00
   1.3679431E-04   6.6159265E+05   -1.8554627E+00
   1.3742604E-04   6.5596153E+05   -1.8549887E+00
   1.3806069E-04   6.5037975E+05   -1.8545139E+00
   1.3869827E-04   6.4484688E+05   -1.8540381E+00
   1.3933879E-04   6.3936248E+05   -1.8535614E+00
   1.3998227E-04   6.3392612E+05   -1.8530839E+00
   1.4062872E-04   6.2853737E+05   -1.8526054E+00
   1.4127816E-04   6.2319580E+05   -1.8521260E+00
   1.4193060E-04   6.1790100E+05   -1.8516457E+00
   1.4258605E-04   6.1265253E+05   -1.8511645E+00
   1.4324453E-04   6.0744999E+05   -1.8506824E+00
   1.4390605E-04   6.0229298E+05   -1.8501994E+00
   1.4457062E-04   5.9718107E+05   -1.8497155E+00
   1.4523826E-04   5.9211387E+05   -1.8492307E+00
   1.4590899E-04   5.8709099E+05   -1.8487450E+00
   1.4658281E-04   5.8211201E+05   -1.8482585E+00
   1.4725974E-04   5.7717655E+05   -1.8477711E+00
   1.4793981E-04   5.7228423E+05   -1.8472827E+00
   1.4862301E-04   5.6743465E+05   -1.8467935E+00
   1.4930936E-04   5.6262744E+05   -1.8463035E+00
   1.4999889E-04   5.5786221E+05   -1.8458126E+00
   1.5069160E-04   5.5313860E+05   -1.8453207E+00
   1.5138751E-04   5.4845623E+05   -1.8448281E+00
   1.5208663E-04   5.4381472E+05   -1.8443346E+00
   1.5278899E-04   5.3921373E+05   -1.8438402E+00
   1.5349458E-04   5.3465288E+05   -1.8433449E+00
   1.5420343E-04   5.3013182E+05   -1.8428488E+00
   1.5491556E-04   5.2565020E+05   -1.8423519E+00
   1.5563098E-04   5.2120765E+05   -1.8418541E+00
   1.5634970E-04   5.1680384E+05   -1.8413554E+00
   1.5707174E-04   5.1243841E+05   -1.8408560E+00
   1.5779711E-04   5.0811103E+05   -1.8403557E+00
   1.5852584E-04   5.0382136E+05   -1.8398545E+00
   1.5925792E-04   4.9956905E+05   -1.8393525E+00
   1.5999339E-04   4.9535378E+05   -1.8388497E+00
   1.6073226E-04   4.9117522E+05   -1.8383461E+00
   1.6147454E-04   4.8703303E+05   -1.8378416E+00
   1.6222024E-04   4.8292691E+05   -1.8373364E+00
   1.6296939E-04   4.7885651E+05   -1.8368303E+00
   1.6372200E-04   4.7482153E+05   -1.8363234E+00
   1.6447809E-04   4.7082166E+05   -1.8358157E+00
   1.6523767E-04   4.6685657E+05   -1.8353072E+00
   1.6600075E-04   4.6292596E+05   -1.8347979E+00
   1.6676736E-04   4.5902951E+05   -1.8342878E+00
   1.6753751E-04   4.5516694E+05   -1.8337769E+00
   1.6831122E-04   4.5133793E+05   -1.8332652E+00
   1.6908849E-04   4.4754219E+05   -1.8327527E+00
   1.6986936E-04   4.4377942E+05   -1.8322395E+00
   1.7065384E-04   4.4004932E+05   -1.8317254E+00
   1.7144193E-04   4.3635162E+05   -1.8312106E+00
   1.7223367E-04   4.3268601E+05   -1.8306950E+00
   1.7302906E-04   4.2905221E+05   -1.8301787E+00
   1.7382813E-04   4.2544995E+05   -1.8296616E+00
   1.7463089E-04   4.2187893E+05   -1.8291437E+00
   1.7543735E-04   4.1833889E+05   -1.8286251E+00
   1.7624754E-04   4.1482955E+05   -1.8281057E+00
   1.7706147E-04   4.1135063E+05   -1.8275856E+00
   1.7787916E-04   4.0790186E+05   -1.8270647E+00
   1.7870062E-04   4.0448298E+05   -1.8265431E+00
   1.7952588E-04   4.0109372E+05   -1.8260207E+00
   1.8035495E-04   3.9773381E+05   -1.8254976E+00
   1.8118785E-04   3.9440300E+05   -1.8249738E+00
   1.8202459E-04   3.9110103E+05   -1.8244493E+00
   1.8286520E-04   3.8782765E+05   -1.8239240E+00
   1.8370969E-04   3.8458259E+05   -1.8233981E+00
   1.8455808E-04   3.8136561E+05   -1.8228714E+00
   1.8541039E-04   3.7817646E+05   -1.8223440E+00
   1.8626663E-04   3.7501488E+05   -1.8218159E+00
   1.8712683E-04   3.7188065E+05   -1.8212871E+00
   1.8799100E-04   3.6877351E+05   -1.8207576E+00
   1.8885917E-04   3.6569322E+05   -1.8202274E+00
   1.8973134E-04   3.6263955E+05   -1.8196965E+00
   1.9060754E-04   3.5961225E+05   -1.8191650E+00
   1.9148778E-04   3.5661110E+05   -1.8186328E+00
   1.9237209E-04   3.5363587E+05   -1.8180998E+00
   1.9326049E-04   3.5068632E+05   -1.8175663E+00
   1.9415299E-04   3.4776223E+05   -1.8170320E+00
   1.9504960E-04   3.4486336E+05   -1.8164971E+00
   1.9595036E-04   3.4198951E+05   -1.8159616E+00
   1.9685528E-04   3.3914044E+05   -1.8154254E+00
   1.9776438E-04   3.3631594E+05   -1.8148885E+00
   1.9867768E-04   3.3351579E+05   -1.8143510E+00
   1.9959519E-04   3.3073977E+05   -1.8138129E+00
   2.0051694E-04   3.2798767E+05   -1.8132741E+00
   2.0144295E-04   3.2525928E+05   -1.8127347E+00
   2.0237324E-04   3.2255439E+05   -1.8121947E+00
   2.0330782E-04   3.1987278E+05   -1.8116540E+00
   2.0424671E-04   3.1721427E+05   -1.8111128E+00
   2.0518995E-04   3.1457863E+05   -1.8105709E+00
   2.0613754E-04   3.1196567E+05   -1.8100284E+00
   2.0708950E-04   3.0937519E+05   -1.8094854E+00
   2.0804586E-04   3.0680698E+05   -1.8089417E+00
   2.0900664E-04   3.0426086E+05   -1.8083974E+00
   2.0997185E-04   3.0173663E+05   -1.8078526E+00
   2.1094152E-04   2.9923409E+05   -1.8073071E+00
   2.1191567E-04   2.9675305E+05   -1.8067611E+00
   2.1289432E-04   2.9429332E+05   -1.8062145E+00
   2.1387749E-04   2.9185472E+05   -1.8056674E+00
   2.1486520E-04   2.8943705E+05   -1.8051197E+00
   2.1585747E-04   2.8704014E+05   -1.8045714E+00
   2.1685432E-04   2.8466379E+05   -1.8040226E+00
   2.1785578E-04   2.8230783E+05   -1.8034732E+00
   2.1886186E-04   2.7997208E+05   -1.8029233E+00
   2.1987259E-04   2.7765636E+05   -1.8023729E+00
   2.2088798E-04   2.7536049E+05   -1.8018219E+00
   2.2190807E-04   2.7308430E+05   -1.8012704E+00
   2.2293286E-04   2.7082761E+05   -1.8007184E+00
   2.2396239E-04   2.6859026E+05   -1.8001658E+00
   2.2499667E-04   2.6637207E+05   -1.7996128E+00
   2.2603573E-04   2.6417287E+05   -1.7990592E+00
   2.2707958E-04   2.6199249E+05   -1.7985052E+00
   2.2812826E-04   2.5983077E+05   -1.7979506E+00
   2.2918178E-04   2.5768755E+05   -1.7973956E+00
   2.3024017E-04   2.5556267E+05   -1.7968400E+00
   2.3130344E-04   2.5345595E+05   -1.7962840E+00
   2.3237162E-04   2.5136724E+05   -1.7957275E+00
   2.3344474E-04   2.4929639E+05   -1.7951706E+00
   2.3452281E-04   2.4724323E+05   -1.7946132E+00
   2.3560586E-04   2.4520761E+05   -1.7940553E+00
   2.3669392E-04   2.4318937E+05   -1.7934969E+00
   2.3778699E-04   2.4118837E+05   -1.7929382E+00
   2.3888512E-04   2.3920445E+05   -1.7923789E+00
   2.3998831E-04   2.3723746E+05   -1.7918193E+00
   2.4109661E-04   2.3528725E+05   -1.7912592E+00
   2.4221001E-04   2.3335367E+05   -1.7906987E+00
   2.4332857E-04   2.3143659E+05   -1.7901377E+00
   2.4445228E-04   2.2953584E+05   -1.7895764E+00
   2.4558119E-04   2.2765130E+05   -1.7890146E+00
   2.4671531E-04   2.2578281E+05   -1.7884524E+00
   2.4785467E-04   2.2393024E+05   -1.7878899E+00
   2.4899928E-04   2.2209344E+05   -1.7873269E+00
   2.5014919E-04   2.2027229E+05   -1.7867635E+00
   2.5130440E-04   2.1846663E+05   -1.7861998E+00
   2.5246495E-04   2.1667634E+05   -1.7856357E+00
   2.5363086E-04   2.1490128E+05   -1.7850712E+00
   2.5480216E-04   2.1314131E+05   -1.7845064E+00
   2.5597886E-04   2.1139631E+05   -1.7839412E+00
   2.5716100E-04   2.0966614E+05   -1.7833756E+00
   2.5834859E-04   2.0795067E+05   -1.7828097E+00
   2.5954168E-04   2.0624978E+05   -1.7822434E+00
   2.6074027E-04   2.0456333E+05   -1.7816768E+00
   2.6194439E-04   2.0289120E+05   -1.7811099E+00
   2.6315408E-04   2.0123327E+05   -1.7805427E+00
   2.6436935E-04   1.9958940E+05   -1.7799751E+00
   2.6559024E-04   1.9795949E+05   -1.7794072E+00
   2.6681676E-04   1.9634339E+05   -1.7788390E+00
   2.6804895E-04   1.9474100E+05   -1.7782705E+00
   2.6928683E-04   1.9315220E+05   -1.7777018E+00
   2.7053042E-04   1.9157686E+05   -1.7771327E+00
   2.7177976E-04   1.9001486E+05   -1.7765633E+00
   2.7303487E-04   1.8846610E+05   -1.7759937E+00
   2.7429577E-04   1.8693045E+05   -1.7754237E+00
   2.7556250E-04   1.8540779E+05   -1.7748536E+00
   2.7683507E-04   1.8389803E+05   -1.7742831E+00
   2.7811353E-04   1.8240104E+05   -1.7737124E+00
   2.7939788E-04   1.8091671E+05   -1.7731415E+00
   2.8068817E-04   1.7944493E+05   -1.7725703E+00
   2.8198442E-04   1.7798559E+05   -1.7719988E+00
   2.8328665E-04   1.7653859E+05   -1.7714272E+00
   2.8459490E-04   1.7510381E+05   -1.7708553E+00
   2.8590919E-04   1.7368115E+05   -1.7702832E+00
   2.8722955E-04   1.7227050E+05   -1.7697108E+00
   2.8855600E-04   1.7087176E+05   -1.7691383E+00
   2.8988859E-04   1.6948483E+05   -1.7685655E+00
   2.9122732E-04   1.6810959E+05   -1.7679926E+00
   2.9257224E-04   1.6674596E+05   -1.7674195E+00
   2.9392337E-04   1.6539382E+05   -1.7668462E+00
   2.9528074E-04   1.6405308E+05   -1.7662727E+00
   2.9664438E-04   1.6272364E+05   -1.7656990E+00
   2.9801431E-04   1.6140540E+05   -1.7651252E+00
   2.9939057E-04   1.6009827E+05   -1.7645512E+00
   3.0077319E-04   1.5880213E+05   -1.7639771E+00
   3.0216219E-04   1.5751691E+05   -1.7634028E+00
   3.0355761E-04   1.5624251E+05   -1.7628283E+00
   3.0495947E-04   1.5497882E+05   -1.7622538E+00
   3.0636780E-04   1.5372576E+05   -1.7616791E+00
   3.0778264E-04   1.5248324E+05   -1.7611042E+00
   3.0920401E-04   1.5125116E+05   -1.7605293E+00
   3.1063195E-04   1.5002943E+05   -1.7599542E+00
   3.1206648E-04   1.4881797E+05   -1.7593791E+00
   3.1350764E-04   1.4761668E+05   -1.7588038E+00
   3.1495545E-04   1.4642547E+05   -1.7582284E+00
   3.1640994E-04   1.4524427E+05   -1.7576530E+00
   3.1787116E-04   1.4407297E+05   -1.7570775E+00
   3.1933912E-04   1.4291150E+05   -1.7565019E+00
   3.2081386E-04   1.4175977E+05   -1.7559262E+00
   3.2229541E-04   1.4061769E+05   -1.7553505E+00
   3.2378381E-04   1.3948518E+05   -1.7547747E+00
   3.2527908E-04   1.3836216E+05   -1.7541988E+00
   3.2678125E-04   1.3724855E+05   -1.7536229E+00
   3.2829036E-04   1.3614426E+05   -1.7530470E+00
   3.2980644E-04   1.3504922E+05   -1.7524710E+00
   3.3132952E-04   1.3396334E+05   -1.7518951E+00
   3.3285963E-04   1.3288654E+05   -1.7513190E+00
   3.3439681E-04   1.3181875E+05   -1.7507430E+00
   3.3594109E-04   1.3075988E+05   -1.7501670E+00
   3.3749250E-04   1.2970986E+05   -1.7495909E+00
   3.3905108E-04   1.2866862E+05   -1.7490149E+00
   3.4061685E-04   1.2763608E+05   -1.7484389E+00
   3.4218986E-04   1.2661215E+05   -1.7478629E+00
   3.4377013E-04   1.2559678E+05   -1.7472869E+00
   3.4535769E-04   1.2458988E+05   -1.7467109E+00
   3.4695259E-04   1.2359137E+05   -1.7461350E+00
   3.4855485E-04   1.2260120E+05   -1.7455591E+00
   3.5016452E-04   1.2161928E+05   -1.7449833E+00
   3.5178161E-04   1.2064555E+05   -1.7444075E+00
   3.5340618E-04   1.1967992E+05   -1.7438318E+00
   3.5503824E-04   1.1872235E+05   -1.7432561E+00
   3.5667785E-04   1.1777274E+05   -1.7426806E+00
   3.5832502E-04   1.1683105E+05   -1.7421050E+00
   3.5997981E-04   1.1589719E+05   -1.7415296E+00
   3.6164223E-04   1.1497109E+05   -1.7409543E+00
   3.6331233E-04   1.1405271E+05   -1.7403790E+00
   3.6499015E-04   1.1314195E+05   -1.7398039E+00
   3.6667571E-04   1.1223877E+05   -1.7392289E+00
   3.6836906E-04   1.1134309E+05   -1.7386539E+00
   3.7007022E-04   1.1045485E+05   -1.7380791E+00
   3.7177925E-04   1.0957399E+05   -1.7375044E+00
   3.7349616E-04   1.0870044E+05   -1.7369299E+00
   3.7522101E-04   1.0783414E+05   -1.7363555E+00
   3.7695382E-04   1.0697503E+05   -1.7357812E+00
   3.7869463E-04   1.0612304E+05   -1.7352071E+00
   3.8044348E-04   1.0527812E+05   -1.7346332E+00
   3.8220041E-04   1.0444020E+05   -1.7340594E+00
   3.8396545E-04   1.0360922E+05   -1.7334857E+00
   3.8573864E-04   1.0278512E+05   -1.7329123E+00
   3.8752002E-04   1.0196785E+05   -1.7323390E+00
   3.8930963E-04   1.0115735E+05   -1.7317659E+00
   3.9110750E-04   1.0035355E+05   -1.7311930E+00
   3.9291368E-04   9.9556406E+04   -1.7306203E+00
   3.9472820E-04   9.8765851E+04   -1.7300478E+00
   3.9655109E-04   9.7981832E+04   -1.7294755E+00
   3.9838241E-04   9.7204293E+04   -1.7289034E+00
   4.0022218E-04   9.6433178E+04   -1.7283316E+00
   4.0207045E-04   9.5668433E+04   -1.7277600E+00
   4.0392725E-04   9.4910002E+04   -1.7271886E+00
   4.0579263E-04   9.4157832E+04   -1.7266174E+00
   4.0766662E-04   9.3411869E+04   -1.7260465E+00
   4.0954927E-04   9.2672059E+04   -1.7254759E+00
   4.1144061E-04   9.1938350E+04   -1.7249055E+00
   4.1334068E-04   9.1210690E+04   -1.7243353E+00
   4.1524953E-04   9.0489026E+04   -1.7237655E+00
   4.1716720E-04   8.9773308E+04   -1.7231959E+00
   4.1909372E-04   8.9063484E+04   -1.7226266E+00
   4.2102914E-04   8.8359505E+04   -1.7220575E+00
   4.2297350E-04   8.7661320E+04   -1.7214888E+00
   4.2492683E-04   8.6968879E+04   -1.7209204E+00
   4.2688919E-04   8.6282134E+04   -1.7203522E+00
   4.2886061E-04   8.5601036E+04   -1.7197844E+00
   4.3084113E-04   8.4925537E+04   -1.7192169E+00
   4.3283080E-04   8.4255588E+04   -1.7186497E+00
   4.3482966E-04   8.3591143E+04   -1.7180829E+00
   4.3683775E-04   8.2932154E+04   -1.7175163E+00
   4.3885511E-04   8.2278575E+04   -1.7169501E+00
   4.4088179E-04   8.1630360E+04   -1.7163843E+00
   4.4291783E-04   8.0987462E+04   -1.7158188E+00
   4.4496327E-04   8.0349837E+04   -1.7152537E+00
   4.4701816E-04   7.9717440E+04   -1.7146889E+00
   4.4908253E-04   7.9090225E+04   -1.7141245E+00
   4.5115644E-04   7.8468150E+04   -1.7135604E+00
   4.5323993E-04   7.7851170E+04   -1.7129968E+00
   4.5533304E-04   7.7239241E+04   -1.7124335E+00
   4.5743582E-04   7.6632321E+04   -1.7118706E+00
   4.5954830E-04   7.6030368E+04   -1.7113081E+00
   4.6167054E-04   7.5433338E+04   -1.7107460E+00
   4.6380259E-04   7.4841190E+04   -1.7101843E+00
   4.6594448E-04   7.4253882E+04   -1.7096230E+00
   4.6809626E-04   7.3671374E+04   -1.7090622E+00
   4.7025797E-04   7.3093624E+04   -1.7085017E+00
   4.7242967E-04   7.2520593E+04   -1.7079417E+00
   4.7461140E-04   7.1952239E+04   -1.7073821E+00
   4.7680321E-04   7.1388523E+04   -1.7068230E+00
   4.7900514E-04   7.0829407E+04   -1.7062643E+00
   4.8121723E-04   7.0274850E+04   -1.7057060E+00
   4.8343954E-04   6.9724814E+04   -1.7051482E+00
   4.8567212E-04   6.9179262E+04   -1.7045909E+00
   4.8791500E-04   6.8638154E+04   -1.7040340E+00
   4.9016825E-04   6.8101453E+04   -1.7034776E+00
   4.9243189E-04   6.7569122E+04   -1.7029217E+00
   4.9470600E-04   6.7041123E+04   -1.7023662E+00
   4.9699060E-04   6.6517421E+04   -1.7018113E+00
   4.9928575E-04   6.5997978E+04   -1.7012568E+00
   5.0159151E-04   6.5482759E+04   -1.7007029E+00
   5.0390791E-04   6.4971728E+04   -1.7001494E+00
   5.0623501E-04   6.4464849E+04   -1.6995964E+00
   5.0857286E-04   6.3962087E+04   -1.6990440E+00
   5.1092150E-04   6.3463408E+04   -1.6984920E+00
   5.1328099E-04   6.2968778E+04   -1.6979406E+00
   5.1565137E-04   6.2478160E+04   -1.6973898E+00
   5.1803270E-04   6.1991523E+04   -1.6968394E+00
   5.2042503E-04   6.1508832E+04   -1.6962896E+00
   5.2282841E-04   6.1030054E+04   -1.6957403E+00
   5.2524289E-04   6.0555156E+04   -1.6951916E+00
   5.2766851E-04   6.0084105E+04   -1.6946434E+00
   5.3010534E-04   5.9616869E+04   -1.6940958E+00
   5.3255342E-04   5.9153415E+04   -1.6935488E+00
   5.3501281E-04   5.8693712E+04   -1.6930023E+00
   5.3748356E-04   5.8237728E+04   -1.6924564E+00
   5.3996571E-04   5.7785432E+04   -1.6919111E+00
   5.4245933E-04   5.7336792E+04   -1.6913663E+00
   5.4496446E-04   5.6891779E+04   -1.6908222E+00
   5.4748117E-04   5.6450361E+04   -1.6902786E+00
   5.5000949E-04   5.6012508E+04   -1.6897356E+00
   5.5254949E-04   5.5578190E+04   -1.6891932E+00
   5.5510123E-04   5.5147378E+04   -1.6886515E+00
   5.5766474E-04   5.4720041E+04   -1.6881103E+00
   5.6024010E-04   5.4296151E+04   -1.6875698E+00
   5.6282734E-04   5.3875679E+04   -1.6870299E+00
   5.6542654E-04   5.3458596E+04   -1.6864906E+00
   5.6803774E-04   5.3044874E+04   -1.6859519E+00
   5.7066099E-04   5.2634484E+04   -1.6854139E+00
   5.7329637E-04   5.2227398E+04   -1.6848765E+00
   5.7594391E-04   5.1823589E+04   -1.6843397E+00
   5.7860368E-04   5.1423030E+04   -1.6838037E+00
   5.8127573E-04   5.1025692E+04   -1.6832682E+00
   5.8396012E-04   5.0631550E+04   -1.6827334E+00
   5.8665691E-04   5.0240575E+04   -1.6821993E+00
   5.8936616E-04   4.9852743E+04   -1.6816658E+00
   5.9208791E-04   4.9468026E+04   -1.6811330E+00
   5.9482223E-04   4.9086398E+04   -1.6806009E+00
   5.9756919E-04   4.8707833E+04   -1.6800695E+00
   6.0032882E-04   4.8332306E+04   -1.6795387E+00
   6.0310120E-04   4.7959792E+04   -1.6790086E+00
   6.0588639E-04   4.7590265E+04   -1.6784793E+00
   6.0868443E-04   4.7223701E+04   -1.6779506E+00
   6.1149540E-04   4.6860073E+04   -1.6774226E+00
   6.1431935E-04   4.6499359E+04   -1.6768953E+00
   6.1715634E-04   4.6141534E+04   -1.6763688E+00
   6.2000644E-04   4.5786573E+04   -1.6758429E+00
   6.2286969E-04   4.5434453E+04   -1.6753178E+00
