#        a       HoverH0(a)       dlogHdloga_of_a(a)
   1.0000000E-04   1.0672895E+06   -1.8935256E+00
   1.0046181E-04   1.0580195E+06   -1.8931389E+00
   1.0092575E-04   1.0488319E+06   -1.8927513E+00
   1.0139184E-04   1.0397260E+06   -1.8923626E+00
   1.0186008E-04   1.0307009E+06   -1.8919729E+00
   1.0233048E-04   1.0217560E+06   -1.8915822E+00
   1.0280305E-04   1.0128906E+06   -1.8911905E+00
   1.0327781E-04   1.0041039E+06   -1.8907977E+00
   1.0375475E-04   9.9539527E+05   -1.8904039E+00
   1.0423390E-04   9.8676393E+05   -1.8900091E+00
   1.0471527E-04   9.7820922E+05   -1.8896133E+00
   1.0519885E-04   9.6973045E+05   -1.8892164E+00
   1.0568467E-04   9.6132693E+05   -1.8888186E+00
   1.0617274E-04   9.5299798E+05   -1.8884197E+00
   1.0666305E-04   9.4474293E+05   -1.8880198E+00
   1.0715563E-04   9.3656112E+05   -1.8876189E+00
   1.0765049E-04   9.2845188E+05   -1.8872169E+00
   1.0814763E-04   9.2041456E+05   -1.8868140E+00
   1.0864707E-04   9.1244852E+05   -1.8864100E+00
   1.0914881E-04   9.0455310E+05   -1.8860050E+00
   1.0965287E-04   8.9672768E+05   -1.8855990E+00
   1.1015926E-04   8.8897163E+05   -1.8851920E+00
   1.1066799E-04   8.8128431E+05   -1.8847840E+00
   1.1117906E-04   8.7366511E+05   -1.8843749E+00
   1.1169250E-04   8.6611342E+05   -1.8839648E+00
   1.1220831E-04   8.5862862E+05   -1.8835537E+00
   1.1272650E-04   8.5121013E+05   -1.8831417E+00
   1.1324708E-04   8.4385733E+05   -1.8827285E+00
   1.1377007E-04   8.3656965E+05   -1.8823144E+00
   1.1429547E-04   8.2934648E+05   -1.8818993E+00
   1.1482330E-04   8.2218726E+05   -1.8814832E+00
   1.1535356E-04   8.1509140E+05   -1.8810660E+00
   1.1588628E-04   8.0805834E+05   -1.8806478E+00
   1.1642145E-04   8.0108750E+05   -1.8802287E+00
   1.1695910E-04   7.9417834E+05   -1.8798085E+00
   1.1749923E-04   7.8733029E+05   -1.8793873E+00
   1.1804185E-04   7.8054281E+05   -1.8789651E+00
   1.1858698E-04   7.7381535E+05   -1.8785419E+00
   1.1913463E-04   7.6714737E+05   -1.8781177E+00
   1.1968481E-04   7.6053834E+05   -1.8776925E+00
   1.2023752E-04   7.5398772E+05   -1.8772663E+00
   1.2079279E-04   7.4749500E+05   -1.8768391E+00
   1.2135063E-04   7.4105965E+05   -1.8764109E+00
   1.2191104E-04   7.3468115E+05   -1.8759817E+00
   1.2247403E-04   7.2835899E+05   -1.8755515E+00
   1.2303963E-04   7.2209267E+05   -1.8751203E+00
   1.2360784E-04   7.1588169E+05   -1.8746881E+00
   1.2417868E-04   7.0972554E+05   -1.8742550E+00
   1.2475215E-04   7.0362374E+05   -1.8738208E+00
   1.2532826E-04   6.9757579E+05   -1.8733856E+00
   1.2590704E-04   6.9158122E+05   -1.8729494E+00
   1.2648850E-04   6.8563954E+05   -1.8725123E+00
   1.2707263E-04   6.7975028E+05   -1.8720742E+00
   1.2765947E-04   6.7391297E+05   -1.8716350E+00
   1.2824901E-04   6.6812714E+05   -1.8711949E+00
   1.2884128E-04   6.6239232E+05   -1.8707538E+00
   1.2943628E-04   6.5670807E+05   -1.8703117E+00
   1.3003403E-04   6.5107393E+05   -1.8698687E+00
   1.3063454E-04   6.4548944E+05   -1.8694246E+00
   1.3123783E-04   6.3995416E+05   -1.8689796E+00
   1.3184390E-04   6.3446765E+05   -1.8685336E+00
   1.3245277E-04   6.2902947E+05   -1.8680866E+00
   1.3306445E-04   6.2363919E+05   -1.8676387E+00
   1.3367895E-04   6.1829638E+05   -1.8671898E+00
   1.3429630E-04   6.1300060E+05   -1.8667399E+00
   1.3491649E-04   6.0775145E+05   -1.8662890E+00
   1.3553955E-04   6.0254850E+05   -1.8658372E+00
   1.3616548E-04   5.9739134E+05   -1.8653844E+00
   1.3679431E-04   5.9227956E+05   -1.8649307E+00
   1.3742604E-04   5.8721274E+05   -1.8644759E+00
   1.3806069E-04   5.8219050E+05   -1.8640203E+00
   1.3869827E-04   5.7721241E+05   -1.8635636E+00
   1.3933879E-04   5.7227810E+05   -1.8631060E+00
   1.3998227E-04   5.6738717E+05   -1.8626475E+00
   1.4062872E-04   5.6253923E+05   -1.8621880E+00
   1.4127816E-04   5.5773389E+05   -1.8617275E+00
   1.4193060E-04   5.5297077E+05   -1.8612661E+00
   1.4258605E-04   5.4824950E+05   -1.8608038E+00
   1.4324453E-04   5.4356970E+05   -1.8603405E+00
   1.4390605E-04   5.3893099E+05   -1.8598762E+00
   1.4457062E-04   5.3433302E+05   -1.8594110E+00
   1.4523826E-04   5.2977541E+05   -1.8589449E+00
   1.4590899E-04   5.2525781E+05   -1.8584779E+00
   1.4658281E-04   5.2077985E+05   -1.8580099E+00
   1.4725974E-04   5.1634118E+05   -1.8575409E+00
   1.4793981E-04   5.1194144E+05   -1.8570711E+00
   1.4862301E-04   5.0758030E+05   -1.8566003E+00
   1.4930936E-04   5.0325740E+05   -1.8561286E+00
   1.4999889E-04   4.9897241E+05   -1.8556560E+00
   1.5069160E-04   4.9472498E+05   -1.8551824E+00
   1.5138751E-04   4.9051477E+05   -1.8547079E+00
   1.5208663E-04   4.8634146E+05   -1.8542325E+00
   1.5278899E-04   4.8220471E+05   -1.8537562E+00
   1.5349458E-04   4.7810420E+05   -1.8532790E+00
   1.5420343E-04   4.7403960E+05   -1.8528009E+00
   1.5491556E-04   4.7001060E+05   -1.8523219E+00
   1.5563098E-04   4.6601686E+05   -1.8518419E+00
   1.5634970E-04   4.6205809E+05   -1.8513611E+00
   1.5707174E-04   4.5813396E+05   -1.8508793E+00
   1.5779711E-04   4.5424417E+05   -1.8503967E+00
   1.5852584E-04   4.5038840E+05   -1.8499132E+00
   1.5925792E-04   4.4656636E+05   -1.8494288E+00
   1.5999339E-04   4.4277774E+05   -1.8489434E+00
   1.6073226E-04   4.3902225E+05   -1.8484572E+00
   1.6147454E-04   4.3529958E+05   -1.8479702E+00
   1.6222024E-04   4.3160946E+05   -1.8474822E+00
   1.6296939E-04   4.2795157E+05   -1.8469934E+00
   1.6372200E-04   4.2432565E+05   -1.8465037E+00
   1.6447809E-04   4.2073140E+05   -1.8460131E+00
   1.6523767E-04   4.1716853E+05   -1.8455216E+00
   1.6600075E-04   4.1363677E+05   -1.8450293E+00
   1.6676736E-04   4.1013585E+05   -1.8445361E+00
   1.6753751E-04   4.0666548E+05   -1.8440421E+00
   1.6831122E-04   4.0322539E+05   -1.8435472E+00
   1.6908849E-04   3.9981532E+05   -1.8430514E+00
   1.6986936E-04   3.9643499E+05   -1.8425548E+00
   1.7065384E-04   3.9308414E+05   -1.8420574E+00
   1.7144193E-04   3.8976251E+05   -1.8415591E+00
   1.7223367E-04   3.8646984E+05   -1.8410599E+00
   1.7302906E-04   3.8320586E+05   -1.8405599E+00
   1.7382813E-04   3.7997033E+05   -1.8400591E+00
   1.7463089E-04   3.7676298E+05   -1.8395575E+00
   1.7543735E-04   3.7358357E+05   -1.8390550E+00
   1.7624754E-04   3.7043186E+05   -1.8385517E+00
   1.7706147E-04   3.6730758E+05   -1.8380476E+00
   1.7787916E-04   3.6421050E+05   -1.8375426E+00
   1.7870062E-04   3.6114037E+05   -1.8370369E+00
   1.7952588E-04   3.5809696E+05   -1.8365303E+00
   1.8035495E-04   3.5508003E+05   -1.8360229E+00
   1.8118785E-04   3.5208933E+05   -1.8355147E+00
   1.8202459E-04   3.4912465E+05   -1.8350057E+00
   1.8286520E-04   3.4618574E+05   -1.8344959E+00
   1.8370969E-04   3.4327238E+05   -1.8339854E+00
   1.8455808E-04   3.4038434E+05   -1.8334740E+00
   1.8541039E-04   3.3752139E+05   -1.8329618E+00
   1.8626663E-04   3.3468331E+05   -1.8324489E+00
   1.8712683E-04   3.3186988E+05   -1.8319352E+00
   1.8799100E-04   3.2908088E+05   -1.8314207E+00
   1.8885917E-04   3.2631609E+05   -1.8309054E+00
   1.8973134E-04   3.2357530E+05   -1.8303894E+00
   1.9060754E-04   3.2085829E+05   -1.8298725E+00
   1.9148778E-04   3.1816486E+05   -1.8293550E+00
   1.9237209E-04   3.1549479E+05   -1.8288366E+00
   1.9326049E-04   3.1284787E+05   -1.8283176E+00
   1.9415299E-04   3.1022390E+05   -1.8277977E+00
   1.9504960E-04   3.0762268E+05   -1.8272772E+00
   1.9595036E-04   3.0504401E+05   -1.8267558E+00
   1.9685528E-04   3.0248767E+05   -1.8262338E+00
   1.9776438E-04   2.9995348E+05   -1.8257110E+00
   1.9867768E-04   2.9744124E+05   -1.8251875E+00
   1.9959519E-04   2.9495075E+05   -1.8246632E+00
   2.0051694E-04   2.9248182E+05   -1.8241382E+00
   2.0144295E-04   2.9003426E+05   -1.8236126E+00
   2.0237324E-04   2.8760788E+05   -1.8230861E+00
   2.0330782E-04   2.8520249E+05   -1.8225590E+00
   2.0424671E-04   2.8281790E+05   -1.8220312E+00
   2.0518995E-04   2.8045394E+05   -1.8215027E+00
   2.0613754E-04   2.7811041E+05   -1.8209735E+00
   2.0708950E-04   2.7578713E+05   -1.8204436E+00
   2.0804586E-04   2.7348394E+05   -1.8199130E+00
   2.0900664E-04   2.7120064E+05   -1.8193817E+00
   2.0997185E-04   2.6893706E+05   -1.8188497E+00
   2.1094152E-04   2.6669304E+05   -1.8183171E+00
   2.1191567E-04   2.6446838E+05   -1.8177838E+00
   2.1289432E-04   2.6226293E+05   -1.8172498E+00
   2.1387749E-04   2.6007650E+05   -1.8167151E+00
   2.1486520E-04   2.5790895E+05   -1.8161798E+00
   2.1585747E-04   2.5576008E+05   -1.8156439E+00
   2.1685432E-04   2.5362975E+05   -1.8151073E+00
   2.1785578E-04   2.5151779E+05   -1.8145700E+00
   2.1886186E-04   2.4942403E+05   -1.8140322E+00
   2.1987259E-04   2.4734831E+05   -1.8134936E+00
   2.2088798E-04   2.4529048E+05   -1.8129545E+00
   2.2190807E-04   2.4325037E+05   -1.8124147E+00
   2.2293286E-04   2.4122782E+05   -1.8118743E+00
   2.2396239E-04   2.3922270E+05   -1.8113333E+00
   2.2499667E-04   2.3723483E+05   -1.8107916E+00
   2.2603573E-04   2.3526406E+05   -1.8102494E+00
   2.2707958E-04   2.3331025E+05   -1.8097066E+00
   2.2812826E-04   2.3137325E+05   -1.8091631E+00
   2.2918178E-04   2.2945290E+05   -1.8086191E+00
   2.3024017E-04   2.2754906E+05   -1.8080745E+00
   2.3130344E-04   2.2566159E+05   -1.8075293E+00
   2.3237162E-04   2.2379033E+05   -1.8069835E+00
   2.3344474E-04   2.2193515E+05   -1.8064371E+00
   2.3452281E-04   2.2009590E+05   -1.8058902E+00
   2.3560586E-04   2.1827244E+05   -1.8053427E+00
   2.3669392E-04   2.1646464E+05   -1.8047947E+00
   2.3778699E-04   2.1467236E+05   -1.8042460E+00
   2.3888512E-04   2.1289545E+05   -1.8036969E+00
   2.3998831E-04   2.1113378E+05   -1.8031472E+00
   2.4109661E-04   2.0938722E+05   -1.8025970E+00
   2.4221001E-04   2.0765564E+05   -1.8020462E+00
   2.4332857E-04   2.0593890E+05   -1.8014949E+00
   2.4445228E-04   2.0423687E+05   -1.8009431E+00
   2.4558119E-04   2.0254942E+05   -1.8003907E+00
   2.4671531E-04   2.0087643E+05   -1.7998379E+00
   2.4785467E-04   1.9921776E+05   -1.7992845E+00
   2.4899928E-04   1.9757330E+05   -1.7987306E+00
   2.5014919E-04   1.9594290E+05   -1.7981763E+00
   2.5130440E-04   1.9432646E+05   -1.7976214E+00
   2.5246495E-04   1.9272385E+05   -1.7970661E+00
   2.5363086E-04   1.9113494E+05   -1.7965102E+00
   2.5480216E-04   1.8955962E+05   -1.7959539E+00
   2.5597886E-04   1.8799776E+05   -1.7953971E+00
   2.5716100E-04   1.8644925E+05   -1.7948399E+00
   2.5834859E-04   1.8491397E+05   -1.7942822E+00
   2.5954168E-04   1.8339180E+05   -1.7937240E+00
   2.6074027E-04   1.8188264E+05   -1.7931654E+00
   2.6194439E-04   1.8038635E+05   -1.7926064E+00
   2.6315408E-04   1.7890284E+05   -1.7920469E+00
   2.6436935E-04   1.7743198E+05   -1.7914869E+00
   2.6559024E-04   1.7597367E+05   -1.7909266E+00
   2.6681676E-04   1.7452780E+05   -1.7903658E+00
   2.6804895E-04   1.7309425E+05   -1.7898046E+00
   2.6928683E-04   1.7167293E+05   -1.7892430E+00
   2.7053042E-04   1.7026371E+05   -1.7886810E+00
   2.7177976E-04   1.6886650E+05   -1.7881185E+00
   2.7303487E-04   1.6748119E+05   -1.7875557E+00
   2.7429577E-04   1.6610768E+05   -1.7869925E+00
   2.7556250E-04   1.6474586E+05   -1.7864289E+00
   2.7683507E-04   1.6339562E+05   -1.7858649E+00
   2.7811353E-04   1.6205688E+05   -1.7853006E+00
   2.7939788E-04   1.6072952E+05   -1.7847359E+00
   2.8068817E-04   1.5941345E+05   -1.7841708E+00
   2.8198442E-04   1.5810856E+05   -1.7836054E+00
   2.8328665E-04   1.5681477E+05   -1.7830396E+00
   2.8459490E-04   1.5553197E+05   -1.7824735E+00
   2.8590919E-04   1.5426006E+05   -1.7819070E+00
   2.8722955E-04   1.5299896E+05   -1.7813402E+00
   2.8855600E-04   1.5174856E+05   -1.7807731E+00
   2.8988859E-04   1.5050877E+05   -1.7802056E+00
   2.9122732E-04   1.4927951E+05   -1.7796378E+00
   2.9257224E-04   1.4806067E+05   -1.7790698E+00
   2.9392337E-04   1.4685217E+05   -1.7785014E+00
   2.9528074E-04   1.4565391E+05   -1.7779327E+00
   2.9664438E-04   1.4446581E+05   -1.7773637E+00
   2.9801431E-04   1.4328777E+05   -1.7767945E+00
   2.9939057E-04   1.4211972E+05   -1.7762249E+00
   3.0077319E-04   1.4096155E+05   -1.7756551E+00
   3.0216219E-04   1.3981320E+05   -1.7750850E+00
   3.0355761E-04   1.3867456E+05   -1.7745146E+00
   3.0495947E-04   1.3754555E+05   -1.7739440E+00
   3.0636780E-04   1.3642610E+05   -1.7733731E+00
   3.0778264E-04   1.3531611E+05   -1.7728020E+00
   3.0920401E-04   1.3421551E+05   -1.7722307E+00
   3.1063195E-04   1.3312421E+05   -1.7716591E+00
   3.1206648E-04   1.3204213E+05   -1.7710873E+00
   3.1350764E-04   1.3096919E+05   -1.7705152E+00
   3.1495545E-04   1.2990531E+05   -1.7699430E+00
   3.1640994E-04   1.2885042E+05   -1.7693705E+00
   3.1787116E-04   1.2780443E+05   -1.7687978E+00
   3.1933912E-04   1.2676726E+05   -1.7682250E+00
   3.2081386E-04   1.2573884E+05   -1.7676519E+00
   3.2229541E-04   1.2471910E+05   -1.7670786E+00
   3.2378381E-04   1.2370795E+05   -1.7665052E+00
   3.2527908E-04   1.2270532E+05   -1.7659316E+00
   3.2678125E-04   1.2171115E+05   -1.7653578E+00
   3.2829036E-04   1.2072534E+05   -1.7647839E+00
   3.2980644E-04   1.1974784E+05   -1.7642098E+00
   3.3132952E-04   1.1877856E+05   -1.7636355E+00
   3.3285963E-04   1.1781745E+05   -1.7630611E+00
   3.3439681E-04   1.1686442E+05   -1.7624866E+00
   3.3594109E-04   1.1591940E+05   -1.7619119E+00
   3.3749250E-04   1.1498234E+05   -1.7613371E+00
   3.3905108E-04   1.1405315E+05   -1.7607622E+00
   3.4061685E-04   1.1313176E+05   -1.7601872E+00
   3.4218986E-04   1.1221812E+05   -1.7596120E+00
   3.4377013E-04   1.1131215E+05   -1.7590368E+00
   3.4535769E-04   1.1041379E+05   -1.7584614E+00
   3.4695259E-04   1.0952297E+05   -1.7578860E+00
   3.4855485E-04   1.0863963E+05   -1.7573105E+00
   3.5016452E-04   1.0776369E+05   -1.7567349E+00
   3.5178161E-04   1.0689510E+05   -1.7561592E+00
   3.5340618E-04   1.0603380E+05   -1.7555835E+00
   3.5503824E-04   1.0517971E+05   -1.7550077E+00
   3.5667785E-04   1.0433278E+05   -1.7544319E+00
   3.5832502E-04   1.0349294E+05   -1.7538560E+00
   3.5997981E-04   1.0266014E+05   -1.7532801E+00
   3.6164223E-04   1.0183430E+05   -1.7527041E+00
   3.6331233E-04   1.0101538E+05   -1.7521281E+00
   3.6499015E-04   1.0020331E+05   -1.7515521E+00
   3.6667571E-04   9.9398036E+04   -1.7509760E+00
   3.6836906E-04   9.8599492E+04   -1.7504000E+00
   3.7007022E-04   9.7807622E+04   -1.7498239E+00
   3.7177925E-04   9.7022370E+04   -1.7492479E+00
   3.7349616E-04   9.6243677E+04   -1.7486718E+00
   3.7522101E-04   9.5471488E+04   -1.7480958E+00
   3.7695382E-04   9.4705745E+04   -1.7475198E+00
   3.7869463E-04   9.3946394E+04   -1.7469438E+00
   3.8044348E-04   9.3193379E+04   -1.7463678E+00
   3.8220041E-04   9.2446644E+04   -1.7457919E+00
   3.8396545E-04   9.1706136E+04   -1.7452160E+00
   3.8573864E-04   9.0971802E+04   -1.7446402E+00
   3.8752002E-04   9.0243586E+04   -1.7440644E+00
   3.8930963E-04   8.9521438E+04   -1.7434887E+00
   3.9110750E-04   8.8805303E+04   -1.7429131E+00
   3.9291368E-04   8.8095131E+04   -1.7423375E+00
   3.9472820E-04   8.7390870E+04   -1.7417620E+00
   3.9655109E-04   8.6692469E+04   -1.7411866E+00
   3.9838241E-04   8.5999878E+04   -1.7406113E+00
   4.0022218E-04   8.5313045E+04   -1.7400361E+00
   4.0207045E-04   8.4631923E+04   -1.7394610E+00
   4.0392725E-04   8.3956460E+04   -1.7388860E+00
   4.0579263E-04   8.3286610E+04   -1.7383111E+00
   4.0766662E-04   8.2622322E+04   -1.7377364E+00
   4.0954927E-04   8.1963550E+04   -1.7371618E+00
   4.1144061E-04   8.1310246E+04   -1.7365873E+00
   4.1334068E-04   8.0662363E+04   -1.7360129E+00
   4.1524953E-04   8.0019853E+04   -1.7354387E+00
   4.1716720E-04   7.9382672E+04   -1.7348647E+00
   4.1909372E-04   7.8750772E+04   -1.7342908E+00
   4.2102914E-04   7.8124109E+04   -1.7337171E+00
   4.2297350E-04   7.7502637E+04   -1.7331435E+00
   4.2492683E-04   7.6886313E+04   -1.7325701E+00
   4.2688919E-04   7.6275091E+04   -1.7319969E+00
   4.2886061E-04   7.5668928E+04   -1.7314239E+00
   4.3084113E-04   7.5067780E+04   -1.7308511E+00
   4.3283080E-04   7.4471605E+04   -1.7302785E+00
   4.3482966E-04   7.3880359E+04   -1.7297061E+00
   4.3683775E-04   7.3294001E+04   -1.7291339E+00
   4.3885511E-04   7.2712488E+04   -1.7285620E+00
   4.4088179E-04   7.2135778E+04   -1.7279902E+00
   4.4291783E-04   7.1563831E+04   -1.7274187E+00
   4.4496327E-04   7.0996606E+04   -1.7268474E+00
   4.4701816E-04   7.0434062E+04   -1.7262764E+00
   4.4908253E-04   6.9876160E+04   -1.7257056E+00
   4.5115644E-04   6.9322858E+04   -1.7251351E+00
   4.5323993E-04   6.8774119E+04   -1.7245648E+00
   4.5533304E-04   6.8229903E+04   -1.7239948E+00
   4.5743582E-04   6.7690171E+04   -1.7234251E+00
   4.5954830E-04   6.7154884E+04   -1.7228556E+00
   4.6167054E-04   6.6624005E+04   -1.7222865E+00
   4.6380259E-04   6.6097497E+04   -1.7217176E+00
   4.6594448E-04   6.5575321E+04   -1.7211490E+00
   4.6809626E-04   6.5057440E+04   -1.7205807E+00
   4.7025797E-04   6.4543819E+04   -1.7200127E+00
   4.7242967E-04   6.4034420E+04   -1.7194451E+00
   4.7461140E-04   6.3529207E+04   -1.7188777E+00
   4.7680321E-04   6.3028145E+04   -1.7183107E+00
   4.7900514E-04   6.2531199E+04   -1.7177440E+00
   4.8121723E-04   6.2038332E+04   -1.7171777E+00
   4.8343954E-04   6.1549511E+04   -1.7166116E+00
   4.8567212E-04   6.1064701E+04   -1.7160460E+00
   4.8791500E-04   6.0583867E+04   -1.7154807E+00
   4.9016825E-04   6.0106976E+04   -1.7149157E+00
   4.9243189E-04   5.9633994E+04   -1.7143511E+00
   4.9470600E-04   5.9164888E+04   -1.7137869E+00
   4.9699060E-04   5.8699624E+04   -1.7132230E+00
   4.9928575E-04   5.8238170E+04   -1.7126596E+00
   5.0159151E-04   5.7780494E+04   -1.7120965E+00
   5.0390791E-04   5.7326564E+04   -1.7115338E+00
   5.0623501E-04   5.6876347E+04   -1.7109715E+00
   5.0857286E-04   5.6429811E+04   -1.7104096E+00
   5.1092150E-04   5.5986927E+04   -1.7098481E+00
   5.1328099E-04   5.5547662E+04   -1.7092871E+00
   5.1565137E-04   5.5111986E+04   -1.7087264E+00
   5.1803270E-04   5.4679869E+04   -1.7081662E+00
   5.2042503E-04   5.4251279E+04   -1.7076064E+00
   5.2282841E-04   5.3826187E+04   -1.7070471E+00
   5.2524289E-04   5.3404564E+04   -1.7064882E+00
   5.2766851E-04   5.2986380E+04   -1.7059297E+00
   5.3010534E-04   5.2571606E+04   -1.7053717E+00
   5.3255342E-04   5.2160212E+04   -1.7048141E+00
   5.3501281E-04   5.1752171E+04   -1.7042570E+00
   5.3748356E-04   5.1347454E+04   -1.7037004E+00
   5.3996571E-04   5.0946032E+04   -1.7031442E+00
   5.4245933E-04   5.0547878E+04   -1.7025886E+00
   5.4496446E-04   5.0152964E+04   -1.7020334E+00
   5.4748117E-04   4.9761262E+04   -1.7014787E+00
   5.5000949E-04   4.9372746E+04   -1.7009245E+00
   5.5254949E-04   4.8987388E+04   -1.7003708E+00
   5.5510123E-04   4.8605162E+04   -1.6998176E+00
   5.5766474E-04   4.8226042E+04   -1.6992649E+00
   5.6024010E-04   4.7850000E+04   -1.6987127E+00
   5.6282734E-04   4.7477011E+04   -1.6981610E+00
   5.6542654E-04   4.7107049E+04   -1.6976099E+00
   5.6803774E-04   4.6740088E+04   -1.6970593E+00
   5.7066099E-04   4.6376104E+04   -1.6965092E+00
   5.7329637E-04   4.6015071E+04   -1.6959597E+00
   5.7594391E-04   4.5656964E+04   -1.6954107E+00
   5.7860368E-04   4.5301758E+04   -1.6948623E+00
   5.8127573E-04   4.4949430E+04   -1.6943144E+00
   5.8396012E-04   4.4599954E+04   -1.6937671E+00
   5.8665691E-04   4.4253307E+04   -1.6932204E+00
   5.8936616E-04   4.3909465E+04   -1.6926742E+00
   5.9208791E-04   4.3568404E+04   -1.6921286E+00
   5.9482223E-04   4.3230100E+04   -1.6915836E+00
   5.9756919E-04   4.2894531E+04   -1.6910391E+00
   6.0032882E-04   4.2561674E+04   -1.6904953E+00
   6.0310120E-04   4.2231505E+04   -1.6899520E+00
   6.0588639E-04   4.1904003E+04   -1.6894094E+00
   6.0868443E-04   4.1579144E+04   -1.6888673E+00
   6.1149540E-04   4.1256906E+04   -1.6883259E+00
   6.1431935E-04   4.0937269E+04   -1.6877851E+00
   6.1715634E-04   4.0620208E+04   -1.6872449E+00
   6.2000644E-04   4.0305704E+04   -1.6867053E+00
   6.2286969E-04   3.9993733E+04   -1.6861663E+00
