#        a       HoverH0(a)       dlogHdloga_of_a(a)
   1.0000000E-04   1.1542429E+06   -1.8637431E+00
   1.0046181E-04   1.1443749E+06   -1.8632859E+00
   1.0092575E-04   1.1345936E+06   -1.8628277E+00
   1.0139184E-04   1.1248984E+06   -1.8623686E+00
   1.0186008E-04   1.1152883E+06   -1.8619085E+00
   1.0233048E-04   1.1057627E+06   -1.8614475E+00
   1.0280305E-04   1.0963207E+06   -1.8609856E+00
   1.0327781E-04   1.0869618E+06   -1.8605226E+00
   1.0375475E-04   1.0776850E+06   -1.8600588E+00
   1.0423390E-04   1.0684896E+06   -1.8595940E+00
   1.0471527E-04   1.0593750E+06   -1.8591282E+00
   1.0519885E-04   1.0503404E+06   -1.8586616E+00
   1.0568467E-04   1.0413851E+06   -1.8581940E+00
   1.0617274E-04   1.0325084E+06   -1.8577254E+00
   1.0666305E-04   1.0237095E+06   -1.8572559E+00
   1.0715563E-04   1.0149878E+06   -1.8567855E+00
   1.0765049E-04   1.0063427E+06   -1.8563142E+00
   1.0814763E-04   9.9777328E+05   -1.8558419E+00
   1.0864707E-04   9.8927903E+05   -1.8553688E+00
   1.0914881E-04   9.8085923E+05   -1.8548947E+00
   1.0965287E-04   9.7251322E+05   -1.8544196E+00
   1.1015926E-04   9.6424034E+05   -1.8539437E+00
   1.1066799E-04   9.5603992E+05   -1.8534669E+00
   1.1117906E-04   9.4791134E+05   -1.8529891E+00
   1.1169250E-04   9.3985394E+05   -1.8525105E+00
   1.1220831E-04   9.3186708E+05   -1.8520309E+00
   1.1272650E-04   9.2395014E+05   -1.8515504E+00
   1.1324708E-04   9.1610249E+05   -1.8510690E+00
   1.1377007E-04   9.0832351E+05   -1.8505868E+00
   1.1429547E-04   9.0061259E+05   -1.8501036E+00
   1.1482330E-04   8.9296912E+05   -1.8496196E+00
   1.1535356E-04   8.8539250E+05   -1.8491346E+00
   1.1588628E-04   8.7788212E+05   -1.8486488E+00
   1.1642145E-04   8.7043740E+05   -1.8481621E+00
   1.1695910E-04   8.6305775E+05   -1.8476745E+00
   1.1749923E-04   8.5574259E+05   -1.8471860E+00
   1.1804185E-04   8.4849135E+05   -1.8466966E+00
   1.1858698E-04   8.4130345E+05   -1.8462064E+00
   1.1913463E-04   8.3417832E+05   -1.8457153E+00
   1.1968481E-04   8.2711541E+05   -1.8452233E+00
   1.2023752E-04   8.2011416E+05   -1.8447305E+00
   1.2079279E-04   8.1317403E+05   -1.8442368E+00
   1.2135063E-04   8.0629446E+05   -1.8437423E+00
   1.2191104E-04   7.9947492E+05   -1.8432469E+00
   1.2247403E-04   7.9271487E+05   -1.8427506E+00
   1.2303963E-04   7.8601377E+05   -1.8422535E+00
   1.2360784E-04   7.7937111E+05   -1.8417556E+00
   1.2417868E-04   7.7278636E+05   -1.8412568E+00
   1.2475215E-04   7.6625901E+05   -1.8407571E+00
   1.2532826E-04   7.5978854E+05   -1.8402567E+00
   1.2590704E-04   7.5337444E+05   -1.8397554E+00
   1.2648850E-04   7.4701622E+05   -1.8392532E+00
   1.2707263E-04   7.4071338E+05   -1.8387503E+00
   1.2765947E-04   7.3446542E+05   -1.8382465E+00
   1.2824901E-04   7.2827185E+05   -1.8377419E+00
   1.2884128E-04   7.2213220E+05   -1.8372365E+00
   1.2943628E-04   7.1604597E+05   -1.8367302E+00
   1.3003403E-04   7.1001270E+05   -1.8362232E+00
   1.3063454E-04   7.0403190E+05   -1.8357154E+00
   1.3123783E-04   6.9810312E+05   -1.8352067E+00
   1.3184390E-04   6.9222589E+05   -1.8346973E+00
   1.3245277E-04   6.8639976E+05   -1.8341870E+00
   1.3306445E-04   6.8062426E+05   -1.8336760E+00
   1.3367895E-04   6.7489894E+05   -1.8331641E+00
   1.3429630E-04   6.6922337E+05   -1.8326515E+00
   1.3491649E-04   6.6359709E+05   -1.8321381E+00
   1.3553955E-04   6.5801967E+05   -1.8316239E+00
   1.3616548E-04   6.5249068E+05   -1.8311090E+00
   1.3679431E-04   6.4700968E+05   -1.8305933E+00
   1.3742604E-04   6.4157625E+05   -1.8300768E+00
   1.3806069E-04   6.3618996E+05   -1.8295595E+00
   1.3869827E-04   6.3085040E+05   -1.8290415E+00
   1.3933879E-04   6.2555714E+05   -1.8285228E+00
   1.3998227E-04   6.2030979E+05   -1.8280033E+00
   1.4062872E-04   6.1510792E+05   -1.8274830E+00
   1.4127816E-04   6.0995114E+05   -1.8269620E+00
   1.4193060E-04   6.0483904E+05   -1.8264402E+00
   1.4258605E-04   5.9977123E+05   -1.8259178E+00
   1.4324453E-04   5.9474731E+05   -1.8253946E+00
   1.4390605E-04   5.8976690E+05   -1.8248706E+00
   1.4457062E-04   5.8482961E+05   -1.8243459E+00
   1.4523826E-04   5.7993506E+05   -1.8238206E+00
   1.4590899E-04   5.7508286E+05   -1.8232945E+00
   1.4658281E-04   5.7027265E+05   -1.8227677E+00
   1.4725974E-04   5.6550404E+05   -1.8222401E+00
   1.4793981E-04   5.6077667E+05   -1.8217119E+00
   1.4862301E-04   5.5609017E+05   -1.8211830E+00
   1.4930936E-04   5.5144418E+05   -1.8206534E+00
   1.4999889E-04   5.4683834E+05   -1.8201231E+00
   1.5069160E-04   5.4227230E+05   -1.8195921E+00
   1.5138751E-04   5.3774571E+05   -1.8190604E+00
   1.5208663E-04   5.3325820E+05   -1.8185281E+00
   1.5278899E-04   5.2880944E+05   -1.8179950E+00
   1.5349458E-04   5.2439908E+05   -1.8174614E+00
   1.5420343E-04   5.2002679E+05   -1.8169270E+00
   1.5491556E-04   5.1569222E+05   -1.8163920E+00
   1.5563098E-04   5.1139505E+05   -1.8158563E+00
   1.5634970E-04   5.0713493E+05   -1.8153200E+00
   1.5707174E-04   5.0291155E+05   -1.8147830E+00
   1.5779711E-04   4.9872457E+05   -1.8142454E+00
   1.5852584E-04   4.9457367E+05   -1.8137072E+00
   1.5925792E-04   4.9045854E+05   -1.8131683E+00
   1.5999339E-04   4.8637886E+05   -1.8126288E+00
   1.6073226E-04   4.8233432E+05   -1.8120887E+00
   1.6147454E-04   4.7832459E+05   -1.8115479E+00
   1.6222024E-04   4.7434939E+05   -1.8110065E+00
   1.6296939E-04   4.7040839E+05   -1.8104646E+00
   1.6372200E-04   4.6650131E+05   -1.8099220E+00
   1.6447809E-04   4.6262783E+05   -1.8093788E+00
   1.6523767E-04   4.5878766E+05   -1.8088351E+00
   1.6600075E-04   4.5498051E+05   -1.8082907E+00
   1.6676736E-04   4.5120609E+05   -1.8077457E+00
   1.6753751E-04   4.4746410E+05   -1.8072002E+00
   1.6831122E-04   4.4375426E+05   -1.8066541E+00
   1.6908849E-04   4.4007628E+05   -1.8061074E+00
   1.6986936E-04   4.3642989E+05   -1.8055602E+00
   1.7065384E-04   4.3281481E+05   -1.8050124E+00
   1.7144193E-04   4.2923075E+05   -1.8044641E+00
   1.7223367E-04   4.2567745E+05   -1.8039151E+00
   1.7302906E-04   4.2215463E+05   -1.8033657E+00
   1.7382813E-04   4.1866203E+05   -1.8028157E+00
   1.7463089E-04   4.1519937E+05   -1.8022652E+00
   1.7543735E-04   4.1176640E+05   -1.8017141E+00
   1.7624754E-04   4.0836285E+05   -1.8011625E+00
   1.7706147E-04   4.0498847E+05   -1.8006104E+00
   1.7787916E-04   4.0164298E+05   -1.8000578E+00
   1.7870062E-04   3.9832615E+05   -1.7995047E+00
   1.7952588E-04   3.9503772E+05   -1.7989510E+00
   1.8035495E-04   3.9177743E+05   -1.7983969E+00
   1.8118785E-04   3.8854505E+05   -1.7978423E+00
   1.8202459E-04   3.8534032E+05   -1.7972871E+00
   1.8286520E-04   3.8216300E+05   -1.7967315E+00
   1.8370969E-04   3.7901285E+05   -1.7961754E+00
   1.8455808E-04   3.7588962E+05   -1.7956189E+00
   1.8541039E-04   3.7279310E+05   -1.7950619E+00
   1.8626663E-04   3.6972303E+05   -1.7945044E+00
   1.8712683E-04   3.6667918E+05   -1.7939464E+00
   1.8799100E-04   3.6366133E+05   -1.7933880E+00
   1.8885917E-04   3.6066925E+05   -1.7928292E+00
   1.8973134E-04   3.5770270E+05   -1.7922699E+00
   1.9060754E-04   3.5476147E+05   -1.7917102E+00
   1.9148778E-04   3.5184533E+05   -1.7911500E+00
   1.9237209E-04   3.4895407E+05   -1.7905894E+00
   1.9326049E-04   3.4608745E+05   -1.7900284E+00
   1.9415299E-04   3.4324528E+05   -1.7894670E+00
   1.9504960E-04   3.4042732E+05   -1.7889052E+00
   1.9595036E-04   3.3763337E+05   -1.7883430E+00
   1.9685528E-04   3.3486323E+05   -1.7877803E+00
   1.9776438E-04   3.3211667E+05   -1.7872173E+00
   1.9867768E-04   3.2939349E+05   -1.7866539E+00
   1.9959519E-04   3.2669349E+05   -1.7860901E+00
   2.0051694E-04   3.2401646E+05   -1.7855260E+00
   2.0144295E-04   3.2136221E+05   -1.7849614E+00
   2.0237324E-04   3.1873053E+05   -1.7843966E+00
   2.0330782E-04   3.1612122E+05   -1.7838313E+00
   2.0424671E-04   3.1353409E+05   -1.7832657E+00
   2.0518995E-04   3.1096894E+05   -1.7826997E+00
   2.0613754E-04   3.0842559E+05   -1.7821335E+00
   2.0708950E-04   3.0590383E+05   -1.7815668E+00
   2.0804586E-04   3.0340349E+05   -1.7809999E+00
   2.0900664E-04   3.0092437E+05   -1.7804326E+00
   2.0997185E-04   2.9846628E+05   -1.7798650E+00
   2.1094152E-04   2.9602905E+05   -1.7792971E+00
   2.1191567E-04   2.9361249E+05   -1.7787288E+00
   2.1289432E-04   2.9121642E+05   -1.7781603E+00
   2.1387749E-04   2.8884066E+05   -1.7775915E+00
   2.1486520E-04   2.8648503E+05   -1.7770224E+00
   2.1585747E-04   2.8414936E+05   -1.7764530E+00
   2.1685432E-04   2.8183347E+05   -1.7758833E+00
   2.1785578E-04   2.7953719E+05   -1.7753134E+00
   2.1886186E-04   2.7726035E+05   -1.7747432E+00
   2.1987259E-04   2.7500277E+05   -1.7741727E+00
   2.2088798E-04   2.7276430E+05   -1.7736020E+00
   2.2190807E-04   2.7054475E+05   -1.7730310E+00
   2.2293286E-04   2.6834398E+05   -1.7724598E+00
   2.2396239E-04   2.6616180E+05   -1.7718883E+00
   2.2499667E-04   2.6399807E+05   -1.7713167E+00
   2.2603573E-04   2.6185262E+05   -1.7707448E+00
   2.2707958E-04   2.5972529E+05   -1.7701726E+00
   2.2812826E-04   2.5761592E+05   -1.7696003E+00
   2.2918178E-04   2.5552435E+05   -1.7690277E+00
   2.3024017E-04   2.5345043E+05   -1.7684550E+00
   2.3130344E-04   2.5139401E+05   -1.7678820E+00
   2.3237162E-04   2.4935494E+05   -1.7673089E+00
   2.3344474E-04   2.4733305E+05   -1.7667356E+00
   2.3452281E-04   2.4532821E+05   -1.7661621E+00
   2.3560586E-04   2.4334027E+05   -1.7655884E+00
   2.3669392E-04   2.4136907E+05   -1.7650146E+00
   2.3778699E-04   2.3941447E+05   -1.7644406E+00
   2.3888512E-04   2.3747632E+05   -1.7638665E+00
   2.3998831E-04   2.3555449E+05   -1.7632922E+00
   2.4109661E-04   2.3364884E+05   -1.7627178E+00
   2.4221001E-04   2.3175921E+05   -1.7621432E+00
   2.4332857E-04   2.2988547E+05   -1.7615685E+00
   2.4445228E-04   2.2802748E+05   -1.7609937E+00
   2.4558119E-04   2.2618512E+05   -1.7604187E+00
   2.4671531E-04   2.2435823E+05   -1.7598437E+00
   2.4785467E-04   2.2254668E+05   -1.7592686E+00
   2.4899928E-04   2.2075035E+05   -1.7586933E+00
   2.5014919E-04   2.1896910E+05   -1.7581180E+00
   2.5130440E-04   2.1720280E+05   -1.7575425E+00
   2.5246495E-04   2.1545131E+05   -1.7569670E+00
   2.5363086E-04   2.1371452E+05   -1.7563914E+00
   2.5480216E-04   2.1199229E+05   -1.7558158E+00
   2.5597886E-04   2.1028450E+05   -1.7552401E+00
   2.5716100E-04   2.0859101E+05   -1.7546643E+00
   2.5834859E-04   2.0691172E+05   -1.7540885E+00
   2.5954168E-04   2.0524649E+05   -1.7535126E+00
   2.6074027E-04   2.0359520E+05   -1.7529367E+00
   2.6194439E-04   2.0195773E+05   -1.7523608E+00
   2.6315408E-04   2.0033396E+05   -1.7517849E+00
   2.6436935E-04   1.9872378E+05   -1.7512089E+00
   2.6559024E-04   1.9712706E+05   -1.7506329E+00
   2.6681676E-04   1.9554369E+05   -1.7500569E+00
   2.6804895E-04   1.9397355E+05   -1.7494809E+00
   2.6928683E-04   1.9241653E+05   -1.7489049E+00
   2.7053042E-04   1.9087251E+05   -1.7483289E+00
   2.7177976E-04   1.8934139E+05   -1.7477530E+00
   2.7303487E-04   1.8782305E+05   -1.7471770E+00
   2.7429577E-04   1.8631737E+05   -1.7466011E+00
   2.7556250E-04   1.8482426E+05   -1.7460252E+00
   2.7683507E-04   1.8334360E+05   -1.7454494E+00
   2.7811353E-04   1.8187529E+05   -1.7448736E+00
   2.7939788E-04   1.8041921E+05   -1.7442979E+00
   2.8068817E-04   1.7897526E+05   -1.7437222E+00
   2.8198442E-04   1.7754334E+05   -1.7431466E+00
   2.8328665E-04   1.7612335E+05   -1.7425711E+00
   2.8459490E-04   1.7471517E+05   -1.7419956E+00
   2.8590919E-04   1.7331872E+05   -1.7414202E+00
   2.8722955E-04   1.7193388E+05   -1.7408450E+00
   2.8855600E-04   1.7056056E+05   -1.7402698E+00
   2.8988859E-04   1.6919865E+05   -1.7396947E+00
   2.9122732E-04   1.6784807E+05   -1.7391197E+00
   2.9257224E-04   1.6650870E+05   -1.7385449E+00
   2.9392337E-04   1.6518047E+05   -1.7379701E+00
   2.9528074E-04   1.6386326E+05   -1.7373955E+00
   2.9664438E-04   1.6255698E+05   -1.7368210E+00
   2.9801431E-04   1.6126155E+05   -1.7362467E+00
   2.9939057E-04   1.5997686E+05   -1.7356725E+00
   3.0077319E-04   1.5870283E+05   -1.7350985E+00
   3.0216219E-04   1.5743935E+05   -1.7345246E+00
   3.0355761E-04   1.5618636E+05   -1.7339509E+00
   3.0495947E-04   1.5494374E+05   -1.7333773E+00
   3.0636780E-04   1.5371141E+05   -1.7328039E+00
   3.0778264E-04   1.5248929E+05   -1.7322307E+00
   3.0920401E-04   1.5127729E+05   -1.7316577E+00
   3.1063195E-04   1.5007531E+05   -1.7310849E+00
   3.1206648E-04   1.4888328E+05   -1.7305123E+00
   3.1350764E-04   1.4770110E+05   -1.7299399E+00
   3.1495545E-04   1.4652870E+05   -1.7293677E+00
   3.1640994E-04   1.4536599E+05   -1.7287957E+00
   3.1787116E-04   1.4421288E+05   -1.7282239E+00
   3.1933912E-04   1.4306930E+05   -1.7276524E+00
   3.2081386E-04   1.4193516E+05   -1.7270811E+00
   3.2229541E-04   1.4081038E+05   -1.7265100E+00
   3.2378381E-04   1.3969488E+05   -1.7259392E+00
   3.2527908E-04   1.3858859E+05   -1.7253687E+00
   3.2678125E-04   1.3749141E+05   -1.7247984E+00
   3.2829036E-04   1.3640328E+05   -1.7242283E+00
   3.2980644E-04   1.3532412E+05   -1.7236586E+00
   3.3132952E-04   1.3425384E+05   -1.7230891E+00
   3.3285963E-04   1.3319239E+05   -1.7225199E+00
   3.3439681E-04   1.3213967E+05   -1.7219510E+00
   3.3594109E-04   1.3109561E+05   -1.7213823E+00
   3.3749250E-04   1.3006014E+05   -1.7208140E+00
   3.3905108E-04   1.2903320E+05   -1.7202460E+00
   3.4061685E-04   1.2801469E+05   -1.7196783E+00
   3.4218986E-04   1.2700456E+05   -1.7191109E+00
   3.4377013E-04   1.2600272E+05   -1.7185438E+00
   3.4535769E-04   1.2500912E+05   -1.7179771E+00
   3.4695259E-04   1.2402367E+05   -1.7174107E+00
   3.4855485E-04   1.2304631E+05   -1.7168446E+00
   3.5016452E-04   1.2207698E+05   -1.7162789E+00
   3.5178161E-04   1.2111559E+05   -1.7157135E+00
   3.5340618E-04   1.2016209E+05   -1.7151485E+00
   3.5503824E-04   1.1921641E+05   -1.7145838E+00
   3.5667785E-04   1.1827847E+05   -1.7140195E+00
   3.5832502E-04   1.1734822E+05   -1.7134556E+00
   3.5997981E-04   1.1642559E+05   -1.7128921E+00
   3.6164223E-04   1.1551052E+05   -1.7123289E+00
   3.6331233E-04   1.1460293E+05   -1.7117662E+00
   3.6499015E-04   1.1370277E+05   -1.7112038E+00
   3.6667571E-04   1.1280997E+05   -1.7106418E+00
   3.6836906E-04   1.1192447E+05   -1.7100803E+00
   3.7007022E-04   1.1104621E+05   -1.7095191E+00
   3.7177925E-04   1.1017512E+05   -1.7089584E+00
   3.7349616E-04   1.0931115E+05   -1.7083981E+00
   3.7522101E-04   1.0845424E+05   -1.7078382E+00
   3.7695382E-04   1.0760432E+05   -1.7072788E+00
   3.7869463E-04   1.0676134E+05   -1.7067198E+00
   3.8044348E-04   1.0592523E+05   -1.7061612E+00
   3.8220041E-04   1.0509594E+05   -1.7056031E+00
   3.8396545E-04   1.0427341E+05   -1.7050455E+00
   3.8573864E-04   1.0345759E+05   -1.7044883E+00
   3.8752002E-04   1.0264841E+05   -1.7039316E+00
   3.8930963E-04   1.0184582E+05   -1.7033753E+00
   3.9110750E-04   1.0104977E+05   -1.7028196E+00
   3.9291368E-04   1.0026019E+05   -1.7022643E+00
   3.9472820E-04   9.9477039E+04   -1.7017095E+00
   3.9655109E-04   9.8700257E+04   -1.7011551E+00
   3.9838241E-04   9.7929790E+04   -1.7006013E+00
   4.0022218E-04   9.7165586E+04   -1.7000480E+00
   4.0207045E-04   9.6407591E+04   -1.6994952E+00
   4.0392725E-04   9.5655753E+04   -1.6989429E+00
   4.0579263E-04   9.4910019E+04   -1.6983912E+00
   4.0766662E-04   9.4170338E+04   -1.6978399E+00
   4.0954927E-04   9.3436660E+04   -1.6972892E+00
   4.1144061E-04   9.2708932E+04   -1.6967390E+00
   4.1334068E-04   9.1987105E+04   -1.6961894E+00
   4.1524953E-04   9.1271130E+04   -1.6956403E+00
   4.1716720E-04   9.0560956E+04   -1.6950917E+00
   4.1909372E-04   8.9856535E+04   -1.6945437E+00
   4.2102914E-04   8.9157818E+04   -1.6939963E+00
   4.2297350E-04   8.8464757E+04   -1.6934494E+00
   4.2492683E-04   8.7777305E+04   -1.6929031E+00
   4.2688919E-04   8.7095414E+04   -1.6923574E+00
   4.2886061E-04   8.6419038E+04   -1.6918122E+00
   4.3084113E-04   8.5748130E+04   -1.6912677E+00
   4.3283080E-04   8.5082643E+04   -1.6907237E+00
   4.3482966E-04   8.4422533E+04   -1.6901803E+00
   4.3683775E-04   8.3767754E+04   -1.6896375E+00
   4.3885511E-04   8.3118261E+04   -1.6890953E+00
   4.4088179E-04   8.2474010E+04   -1.6885538E+00
   4.4291783E-04   8.1834956E+04   -1.6880128E+00
   4.4496327E-04   8.1201056E+04   -1.6874724E+00
   4.4701816E-04   8.0572267E+04   -1.6869327E+00
   4.4908253E-04   7.9948546E+04   -1.6863936E+00
   4.5115644E-04   7.9329850E+04   -1.6858551E+00
   4.5323993E-04   7.8716138E+04   -1.6853173E+00
   4.5533304E-04   7.8107366E+04   -1.6847801E+00
   4.5743582E-04   7.7503495E+04   -1.6842436E+00
   4.5954830E-04   7.6904482E+04   -1.6837077E+00
   4.6167054E-04   7.6310287E+04   -1.6831724E+00
   4.6380259E-04   7.5720870E+04   -1.6826378E+00
   4.6594448E-04   7.5136190E+04   -1.6821039E+00
   4.6809626E-04   7.4556208E+04   -1.6815706E+00
   4.7025797E-04   7.3980885E+04   -1.6810380E+00
   4.7242967E-04   7.3410181E+04   -1.6805061E+00
   4.7461140E-04   7.2844058E+04   -1.6799749E+00
   4.7680321E-04   7.2282478E+04   -1.6794443E+00
   4.7900514E-04   7.1725402E+04   -1.6789145E+00
   4.8121723E-04   7.1172794E+04   -1.6783853E+00
   4.8343954E-04   7.0624615E+04   -1.6778568E+00
   4.8567212E-04   7.0080829E+04   -1.6773291E+00
   4.8791500E-04   6.9541399E+04   -1.6768020E+00
   4.9016825E-04   6.9006288E+04   -1.6762757E+00
   4.9243189E-04   6.8475461E+04   -1.6757500E+00
   4.9470600E-04   6.7948882E+04   -1.6752251E+00
   4.9699060E-04   6.7426515E+04   -1.6747009E+00
   4.9928575E-04   6.6908325E+04   -1.6741774E+00
   5.0159151E-04   6.6394278E+04   -1.6736547E+00
   5.0390791E-04   6.5884338E+04   -1.6731326E+00
   5.0623501E-04   6.5378473E+04   -1.6726114E+00
   5.0857286E-04   6.4876647E+04   -1.6720908E+00
   5.1092150E-04   6.4378827E+04   -1.6715711E+00
   5.1328099E-04   6.3884980E+04   -1.6710520E+00
   5.1565137E-04   6.3395073E+04   -1.6705337E+00
   5.1803270E-04   6.2909073E+04   -1.6700162E+00
   5.2042503E-04   6.2426948E+04   -1.6694994E+00
   5.2282841E-04   6.1948665E+04   -1.6689834E+00
   5.2524289E-04   6.1474192E+04   -1.6684682E+00
   5.2766851E-04   6.1003498E+04   -1.6679538E+00
   5.3010534E-04   6.0536551E+04   -1.6674401E+00
   5.3255342E-04   6.0073321E+04   -1.6669272E+00
   5.3501281E-04   5.9613776E+04   -1.6664151E+00
   5.3748356E-04   5.9157886E+04   -1.6659037E+00
   5.3996571E-04   5.8705620E+04   -1.6653932E+00
   5.4245933E-04   5.8256949E+04   -1.6648834E+00
   5.4496446E-04   5.7811843E+04   -1.6643745E+00
   5.4748117E-04   5.7370272E+04   -1.6638664E+00
   5.5000949E-04   5.6932207E+04   -1.6633590E+00
   5.5254949E-04   5.6497619E+04   -1.6628525E+00
   5.5510123E-04   5.6066479E+04   -1.6623468E+00
   5.5766474E-04   5.5638759E+04   -1.6618419E+00
   5.6024010E-04   5.5214430E+04   -1.6613378E+00
   5.6282734E-04   5.4793464E+04   -1.6608345E+00
   5.6542654E-04   5.4375834E+04   -1.6603321E+00
   5.6803774E-04   5.3961511E+04   -1.6598305E+00
   5.7066099E-04   5.3550470E+04   -1.6593297E+00
   5.7329637E-04   5.3142682E+04   -1.6588297E+00
   5.7594391E-04   5.2738120E+04   -1.6583306E+00
   5.7860368E-04   5.2336759E+04   -1.6578324E+00
   5.8127573E-04   5.1938571E+04   -1.6573349E+00
   5.8396012E-04   5.1543531E+04   -1.6568384E+00
   5.8665691E-04   5.1151613E+04   -1.6563427E+00
   5.8936616E-04   5.0762790E+04   -1.6558478E+00
   5.9208791E-04   5.0377038E+04   -1.6553538E+00
   5.9482223E-04   4.9994330E+04   -1.6548606E+00
   5.9756919E-04   4.9614643E+04   -1.6543683E+00
   6.0032882E-04   4.9237951E+04   -1.6538769E+00
   6.0310120E-04   4.8864229E+04   -1.6533864E+00
   6.0588639E-04   4.8493454E+04   -1.6528967E+00
   6.0868443E-04   4.8125600E+04   -1.6524079E+00
   6.1149540E-04   4.7760644E+04   -1.6519199E+00
   6.1431935E-04   4.7398563E+04   -1.6514329E+00
   6.1715634E-04   4.7039331E+04   -1.6509467E+00
   6.2000644E-04   4.6682927E+04   -1.6504614E+00
   6.2286969E-04   4.6329327E+04   -1.6499770E+00
