#        a       HoverH0(a)       dlogHdloga_of_a(a)
   1.0000000E-04   1.2109904E+06   -1.8720479E+00
   1.0046181E-04   1.2005912E+06   -1.8716087E+00
   1.0092575E-04   1.1902838E+06   -1.8711685E+00
   1.0139184E-04   1.1800672E+06   -1.8707274E+00
   1.0186008E-04   1.1699408E+06   -1.8702853E+00
   1.0233048E-04   1.1599035E+06   -1.8698421E+00
   1.0280305E-04   1.1499548E+06   -1.8693981E+00
   1.0327781E-04   1.1400937E+06   -1.8689530E+00
   1.0375475E-04   1.1303195E+06   -1.8685069E+00
   1.0423390E-04   1.1206314E+06   -1.8680599E+00
   1.0471527E-04   1.1110286E+06   -1.8676119E+00
   1.0519885E-04   1.1015104E+06   -1.8671630E+00
   1.0568467E-04   1.0920760E+06   -1.8667130E+00
   1.0617274E-04   1.0827246E+06   -1.8662621E+00
   1.0666305E-04   1.0734555E+06   -1.8658102E+00
   1.0715563E-04   1.0642681E+06   -1.8653574E+00
   1.0765049E-04   1.0551614E+06   -1.8649036E+00
   1.0814763E-04   1.0461349E+06   -1.8644488E+00
   1.0864707E-04   1.0371877E+06   -1.8639931E+00
   1.0914881E-04   1.0283193E+06   -1.8635364E+00
   1.0965287E-04   1.0195288E+06   -1.8630788E+00
   1.1015926E-04   1.0108156E+06   -1.8626202E+00
   1.1066799E-04   1.0021790E+06   -1.8621606E+00
   1.1117906E-04   9.9361828E+05   -1.8617001E+00
   1.1169250E-04   9.8513278E+05   -1.8612387E+00
   1.1220831E-04   9.7672183E+05   -1.8607763E+00
   1.1272650E-04   9.6838475E+05   -1.8603129E+00
   1.1324708E-04   9.6012089E+05   -1.8598486E+00
   1.1377007E-04   9.5192959E+05   -1.8593834E+00
   1.1429547E-04   9.4381020E+05   -1.8589172E+00
   1.1482330E-04   9.3576208E+05   -1.8584501E+00
   1.1535356E-04   9.2778458E+05   -1.8579821E+00
   1.1588628E-04   9.1987707E+05   -1.8575131E+00
   1.1642145E-04   9.1203894E+05   -1.8570432E+00
   1.1695910E-04   9.0426955E+05   -1.8565724E+00
   1.1749923E-04   8.9656829E+05   -1.8561007E+00
   1.1804185E-04   8.8893456E+05   -1.8556280E+00
   1.1858698E-04   8.8136774E+05   -1.8551544E+00
   1.1913463E-04   8.7386724E+05   -1.8546799E+00
   1.1968481E-04   8.6643247E+05   -1.8542044E+00
   1.2023752E-04   8.5906284E+05   -1.8537281E+00
   1.2079279E-04   8.5175776E+05   -1.8532508E+00
   1.2135063E-04   8.4451666E+05   -1.8527726E+00
   1.2191104E-04   8.3733897E+05   -1.8522936E+00
   1.2247403E-04   8.3022411E+05   -1.8518136E+00
   1.2303963E-04   8.2317154E+05   -1.8513327E+00
   1.2360784E-04   8.1618068E+05   -1.8508509E+00
   1.2417868E-04   8.0925099E+05   -1.8503683E+00
   1.2475215E-04   8.0238192E+05   -1.8498847E+00
   1.2532826E-04   7.9557293E+05   -1.8494002E+00
   1.2590704E-04   7.8882349E+05   -1.8489149E+00
   1.2648850E-04   7.8213305E+05   -1.8484286E+00
   1.2707263E-04   7.7550110E+05   -1.8479415E+00
   1.2765947E-04   7.6892711E+05   -1.8474535E+00
   1.2824901E-04   7.6241057E+05   -1.8469646E+00
   1.2884128E-04   7.5595096E+05   -1.8464749E+00
   1.2943628E-04   7.4954777E+05   -1.8459843E+00
   1.3003403E-04   7.4320050E+05   -1.8454928E+00
   1.3063454E-04   7.3690865E+05   -1.8450004E+00
   1.3123783E-04   7.3067172E+05   -1.8445072E+00
   1.3184390E-04   7.2448923E+05   -1.8440131E+00
   1.3245277E-04   7.1836069E+05   -1.8435182E+00
   1.3306445E-04   7.1228562E+05   -1.8430224E+00
   1.3367895E-04   7.0626353E+05   -1.8425257E+00
   1.3429630E-04   7.0029397E+05   -1.8420282E+00
   1.3491649E-04   6.9437645E+05   -1.8415299E+00
   1.3553955E-04   6.8851052E+05   -1.8410307E+00
   1.3616548E-04   6.8269571E+05   -1.8405307E+00
   1.3679431E-04   6.7693158E+05   -1.8400299E+00
   1.3742604E-04   6.7121766E+05   -1.8395282E+00
   1.3806069E-04   6.6555352E+05   -1.8390257E+00
   1.3869827E-04   6.5993870E+05   -1.8385223E+00
   1.3933879E-04   6.5437277E+05   -1.8380182E+00
   1.3998227E-04   6.4885528E+05   -1.8375132E+00
   1.4062872E-04   6.4338582E+05   -1.8370074E+00
   1.4127816E-04   6.3796395E+05   -1.8365008E+00
   1.4193060E-04   6.3258925E+05   -1.8359934E+00
   1.4258605E-04   6.2726130E+05   -1.8354852E+00
   1.4324453E-04   6.2197968E+05   -1.8349762E+00
   1.4390605E-04   6.1674398E+05   -1.8344663E+00
   1.4457062E-04   6.1155379E+05   -1.8339557E+00
   1.4523826E-04   6.0640870E+05   -1.8334443E+00
   1.4590899E-04   6.0130832E+05   -1.8329321E+00
   1.4658281E-04   5.9625225E+05   -1.8324192E+00
   1.4725974E-04   5.9124009E+05   -1.8319054E+00
   1.4793981E-04   5.8627145E+05   -1.8313909E+00
   1.4862301E-04   5.8134594E+05   -1.8308756E+00
   1.4930936E-04   5.7646319E+05   -1.8303595E+00
   1.4999889E-04   5.7162280E+05   -1.8298427E+00
   1.5069160E-04   5.6682441E+05   -1.8293251E+00
   1.5138751E-04   5.6206764E+05   -1.8288067E+00
   1.5208663E-04   5.5735212E+05   -1.8282876E+00
   1.5278899E-04   5.5267749E+05   -1.8277678E+00
   1.5349458E-04   5.4804337E+05   -1.8272472E+00
   1.5420343E-04   5.4344942E+05   -1.8267258E+00
   1.5491556E-04   5.3889527E+05   -1.8262037E+00
   1.5563098E-04   5.3438058E+05   -1.8256809E+00
   1.5634970E-04   5.2990498E+05   -1.8251574E+00
   1.5707174E-04   5.2546813E+05   -1.8246331E+00
   1.5779711E-04   5.2106970E+05   -1.8241081E+00
   1.5852584E-04   5.1670933E+05   -1.8235824E+00
   1.5925792E-04   5.1238669E+05   -1.8230560E+00
   1.5999339E-04   5.0810144E+05   -1.8225288E+00
   1.6073226E-04   5.0385326E+05   -1.8220010E+00
   1.6147454E-04   4.9964182E+05   -1.8214724E+00
   1.6222024E-04   4.9546678E+05   -1.8209432E+00
   1.6296939E-04   4.9132783E+05   -1.8204133E+00
   1.6372200E-04   4.8722464E+05   -1.8198826E+00
   1.6447809E-04   4.8315691E+05   -1.8193513E+00
   1.6523767E-04   4.7912431E+05   -1.8188194E+00
   1.6600075E-04   4.7512653E+05   -1.8182867E+00
   1.6676736E-04   4.7116326E+05   -1.8177534E+00
   1.6753751E-04   4.6723420E+05   -1.8172194E+00
   1.6831122E-04   4.6333905E+05   -1.8166847E+00
   1.6908849E-04   4.5947750E+05   -1.8161494E+00
   1.6986936E-04   4.5564926E+05   -1.8156134E+00
   1.7065384E-04   4.5185404E+05   -1.8150768E+00
   1.7144193E-04   4.4809153E+05   -1.8145395E+00
   1.7223367E-04   4.4436145E+05   -1.8140016E+00
   1.7302906E-04   4.4066352E+05   -1.8134631E+00
   1.7382813E-04   4.3699744E+05   -1.8129239E+00
   1.7463089E-04   4.3336295E+05   -1.8123841E+00
   1.7543735E-04   4.2975975E+05   -1.8118437E+00
   1.7624754E-04   4.2618757E+05   -1.8113027E+00
   1.7706147E-04   4.2264613E+05   -1.8107610E+00
   1.7787916E-04   4.1913518E+05   -1.8102188E+00
   1.7870062E-04   4.1565442E+05   -1.8096759E+00
   1.7952588E-04   4.1220360E+05   -1.8091325E+00
   1.8035495E-04   4.0878246E+05   -1.8085884E+00
   1.8118785E-04   4.0539073E+05   -1.8080438E+00
   1.8202459E-04   4.0202815E+05   -1.8074986E+00
   1.8286520E-04   3.9869446E+05   -1.8069528E+00
   1.8370969E-04   3.9538941E+05   -1.8064064E+00
   1.8455808E-04   3.9211275E+05   -1.8058595E+00
   1.8541039E-04   3.8886422E+05   -1.8053120E+00
   1.8626663E-04   3.8564358E+05   -1.8047639E+00
   1.8712683E-04   3.8245058E+05   -1.8042153E+00
   1.8799100E-04   3.7928497E+05   -1.8036662E+00
   1.8885917E-04   3.7614652E+05   -1.8031165E+00
   1.8973134E-04   3.7303498E+05   -1.8025662E+00
   1.9060754E-04   3.6995012E+05   -1.8020154E+00
   1.9148778E-04   3.6689170E+05   -1.8014641E+00
   1.9237209E-04   3.6385949E+05   -1.8009123E+00
   1.9326049E-04   3.6085326E+05   -1.8003600E+00
   1.9415299E-04   3.5787278E+05   -1.7998071E+00
   1.9504960E-04   3.5491782E+05   -1.7992537E+00
   1.9595036E-04   3.5198816E+05   -1.7986999E+00
   1.9685528E-04   3.4908357E+05   -1.7981455E+00
   1.9776438E-04   3.4620384E+05   -1.7975906E+00
   1.9867768E-04   3.4334874E+05   -1.7970353E+00
   1.9959519E-04   3.4051805E+05   -1.7964795E+00
   2.0051694E-04   3.3771157E+05   -1.7959231E+00
   2.0144295E-04   3.3492908E+05   -1.7953664E+00
   2.0237324E-04   3.3217036E+05   -1.7948091E+00
   2.0330782E-04   3.2943522E+05   -1.7942514E+00
   2.0424671E-04   3.2672343E+05   -1.7936933E+00
   2.0518995E-04   3.2403481E+05   -1.7931347E+00
   2.0613754E-04   3.2136913E+05   -1.7925756E+00
   2.0708950E-04   3.1872621E+05   -1.7920161E+00
   2.0804586E-04   3.1610583E+05   -1.7914562E+00
   2.0900664E-04   3.1350781E+05   -1.7908958E+00
   2.0997185E-04   3.1093195E+05   -1.7903350E+00
   2.1094152E-04   3.0837804E+05   -1.7897738E+00
   2.1191567E-04   3.0584590E+05   -1.7892122E+00
   2.1289432E-04   3.0333534E+05   -1.7886502E+00
   2.1387749E-04   3.0084617E+05   -1.7880878E+00
   2.1486520E-04   2.9837820E+05   -1.7875250E+00
   2.1585747E-04   2.9593124E+05   -1.7869618E+00
   2.1685432E-04   2.9350511E+05   -1.7863982E+00
   2.1785578E-04   2.9109962E+05   -1.7858343E+00
   2.1886186E-04   2.8871460E+05   -1.7852699E+00
   2.1987259E-04   2.8634987E+05   -1.7847052E+00
   2.2088798E-04   2.8400525E+05   -1.7841401E+00
   2.2190807E-04   2.8168055E+05   -1.7835747E+00
   2.2293286E-04   2.7937561E+05   -1.7830090E+00
   2.2396239E-04   2.7709026E+05   -1.7824428E+00
   2.2499667E-04   2.7482432E+05   -1.7818764E+00
   2.2603573E-04   2.7257762E+05   -1.7813096E+00
   2.2707958E-04   2.7034999E+05   -1.7807425E+00
   2.2812826E-04   2.6814127E+05   -1.7801750E+00
   2.2918178E-04   2.6595128E+05   -1.7796073E+00
   2.3024017E-04   2.6377988E+05   -1.7790392E+00
   2.3130344E-04   2.6162689E+05   -1.7784709E+00
   2.3237162E-04   2.5949215E+05   -1.7779022E+00
   2.3344474E-04   2.5737550E+05   -1.7773332E+00
   2.3452281E-04   2.5527679E+05   -1.7767640E+00
   2.3560586E-04   2.5319586E+05   -1.7761945E+00
   2.3669392E-04   2.5113255E+05   -1.7756247E+00
   2.3778699E-04   2.4908671E+05   -1.7750546E+00
   2.3888512E-04   2.4705818E+05   -1.7744842E+00
   2.3998831E-04   2.4504681E+05   -1.7739137E+00
   2.4109661E-04   2.4305247E+05   -1.7733428E+00
   2.4221001E-04   2.4107498E+05   -1.7727717E+00
   2.4332857E-04   2.3911422E+05   -1.7722004E+00
   2.4445228E-04   2.3717002E+05   -1.7716288E+00
   2.4558119E-04   2.3524226E+05   -1.7710570E+00
   2.4671531E-04   2.3333077E+05   -1.7704850E+00
   2.4785467E-04   2.3143543E+05   -1.7699128E+00
   2.4899928E-04   2.2955610E+05   -1.7693403E+00
   2.5014919E-04   2.2769262E+05   -1.7687677E+00
   2.5130440E-04   2.2584486E+05   -1.7681948E+00
   2.5246495E-04   2.2401270E+05   -1.7676218E+00
   2.5363086E-04   2.2219598E+05   -1.7670486E+00
   2.5480216E-04   2.2039458E+05   -1.7664752E+00
   2.5597886E-04   2.1860836E+05   -1.7659016E+00
   2.5716100E-04   2.1683719E+05   -1.7653278E+00
   2.5834859E-04   2.1508094E+05   -1.7647539E+00
   2.5954168E-04   2.1333947E+05   -1.7641798E+00
   2.6074027E-04   2.1161267E+05   -1.7636056E+00
   2.6194439E-04   2.0990040E+05   -1.7630313E+00
   2.6315408E-04   2.0820254E+05   -1.7624568E+00
   2.6436935E-04   2.0651895E+05   -1.7618821E+00
   2.6559024E-04   2.0484953E+05   -1.7613074E+00
   2.6681676E-04   2.0319413E+05   -1.7607325E+00
   2.6804895E-04   2.0155265E+05   -1.7601575E+00
   2.6928683E-04   1.9992496E+05   -1.7595824E+00
   2.7053042E-04   1.9831093E+05   -1.7590072E+00
   2.7177976E-04   1.9671046E+05   -1.7584319E+00
   2.7303487E-04   1.9512343E+05   -1.7578565E+00
   2.7429577E-04   1.9354971E+05   -1.7572810E+00
   2.7556250E-04   1.9198919E+05   -1.7567055E+00
   2.7683507E-04   1.9044176E+05   -1.7561298E+00
   2.7811353E-04   1.8890730E+05   -1.7555541E+00
   2.7939788E-04   1.8738570E+05   -1.7549784E+00
   2.8068817E-04   1.8587685E+05   -1.7544026E+00
   2.8198442E-04   1.8438064E+05   -1.7538267E+00
   2.8328665E-04   1.8289696E+05   -1.7532508E+00
   2.8459490E-04   1.8142570E+05   -1.7526749E+00
   2.8590919E-04   1.7996676E+05   -1.7520990E+00
   2.8722955E-04   1.7852002E+05   -1.7515230E+00
   2.8855600E-04   1.7708538E+05   -1.7509470E+00
   2.8988859E-04   1.7566273E+05   -1.7503710E+00
   2.9122732E-04   1.7425197E+05   -1.7497950E+00
   2.9257224E-04   1.7285301E+05   -1.7492190E+00
   2.9392337E-04   1.7146573E+05   -1.7486430E+00
   2.9528074E-04   1.7009004E+05   -1.7480670E+00
   2.9664438E-04   1.6872583E+05   -1.7474910E+00
   2.9801431E-04   1.6737300E+05   -1.7469151E+00
   2.9939057E-04   1.6603147E+05   -1.7463392E+00
   3.0077319E-04   1.6470112E+05   -1.7457633E+00
   3.0216219E-04   1.6338187E+05   -1.7451875E+00
   3.0355761E-04   1.6207362E+05   -1.7446117E+00
   3.0495947E-04   1.6077626E+05   -1.7440360E+00
   3.0636780E-04   1.5948972E+05   -1.7434603E+00
   3.0778264E-04   1.5821389E+05   -1.7428847E+00
   3.0920401E-04   1.5694868E+05   -1.7423092E+00
   3.1063195E-04   1.5569400E+05   -1.7417338E+00
   3.1206648E-04   1.5444976E+05   -1.7411584E+00
   3.1350764E-04   1.5321587E+05   -1.7405832E+00
   3.1495545E-04   1.5199224E+05   -1.7400080E+00
   3.1640994E-04   1.5077879E+05   -1.7394330E+00
   3.1787116E-04   1.4957541E+05   -1.7388581E+00
   3.1933912E-04   1.4838204E+05   -1.7382833E+00
   3.2081386E-04   1.4719857E+05   -1.7377086E+00
   3.2229541E-04   1.4602493E+05   -1.7371340E+00
   3.2378381E-04   1.4486104E+05   -1.7365596E+00
   3.2527908E-04   1.4370680E+05   -1.7359853E+00
   3.2678125E-04   1.4256213E+05   -1.7354111E+00
   3.2829036E-04   1.4142695E+05   -1.7348372E+00
   3.2980644E-04   1.4030119E+05   -1.7342633E+00
   3.3132952E-04   1.3918475E+05   -1.7336897E+00
   3.3285963E-04   1.3807757E+05   -1.7331162E+00
   3.3439681E-04   1.3697955E+05   -1.7325429E+00
   3.3594109E-04   1.3589062E+05   -1.7319697E+00
   3.3749250E-04   1.3481071E+05   -1.7313968E+00
   3.3905108E-04   1.3373973E+05   -1.7308241E+00
   3.4061685E-04   1.3267761E+05   -1.7302515E+00
   3.4218986E-04   1.3162427E+05   -1.7296792E+00
   3.4377013E-04   1.3057964E+05   -1.7291071E+00
   3.4535769E-04   1.2954364E+05   -1.7285352E+00
   3.4695259E-04   1.2851619E+05   -1.7279635E+00
   3.4855485E-04   1.2749724E+05   -1.7273921E+00
   3.5016452E-04   1.2648669E+05   -1.7268209E+00
   3.5178161E-04   1.2548448E+05   -1.7262499E+00
   3.5340618E-04   1.2449055E+05   -1.7256792E+00
   3.5503824E-04   1.2350481E+05   -1.7251087E+00
   3.5667785E-04   1.2252719E+05   -1.7245385E+00
   3.5832502E-04   1.2155764E+05   -1.7239686E+00
   3.5997981E-04   1.2059607E+05   -1.7233990E+00
   3.6164223E-04   1.1964243E+05   -1.7228296E+00
   3.6331233E-04   1.1869663E+05   -1.7222605E+00
   3.6499015E-04   1.1775862E+05   -1.7216917E+00
   3.6667571E-04   1.1682833E+05   -1.7211232E+00
   3.6836906E-04   1.1590570E+05   -1.7205550E+00
   3.7007022E-04   1.1499065E+05   -1.7199871E+00
   3.7177925E-04   1.1408312E+05   -1.7194195E+00
   3.7349616E-04   1.1318305E+05   -1.7188522E+00
   3.7522101E-04   1.1229038E+05   -1.7182853E+00
   3.7695382E-04   1.1140504E+05   -1.7177187E+00
   3.7869463E-04   1.1052696E+05   -1.7171524E+00
   3.8044348E-04   1.0965610E+05   -1.7165865E+00
   3.8220041E-04   1.0879237E+05   -1.7160209E+00
   3.8396545E-04   1.0793574E+05   -1.7154557E+00
   3.8573864E-04   1.0708612E+05   -1.7148908E+00
   3.8752002E-04   1.0624347E+05   -1.7143263E+00
   3.8930963E-04   1.0540773E+05   -1.7137621E+00
   3.9110750E-04   1.0457883E+05   -1.7131984E+00
   3.9291368E-04   1.0375672E+05   -1.7126350E+00
   3.9472820E-04   1.0294134E+05   -1.7120720E+00
   3.9655109E-04   1.0213263E+05   -1.7115094E+00
   3.9838241E-04   1.0133054E+05   -1.7109472E+00
   4.0022218E-04   1.0053501E+05   -1.7103854E+00
   4.0207045E-04   9.9745978E+04   -1.7098240E+00
   4.0392725E-04   9.8963397E+04   -1.7092631E+00
   4.0579263E-04   9.8187210E+04   -1.7087025E+00
   4.0766662E-04   9.7417362E+04   -1.7081424E+00
   4.0954927E-04   9.6653800E+04   -1.7075827E+00
   4.1144061E-04   9.5896470E+04   -1.7070234E+00
   4.1334068E-04   9.5145318E+04   -1.7064646E+00
   4.1524953E-04   9.4400294E+04   -1.7059062E+00
   4.1716720E-04   9.3661344E+04   -1.7053483E+00
   4.1909372E-04   9.2928417E+04   -1.7047909E+00
   4.2102914E-04   9.2201462E+04   -1.7042339E+00
   4.2297350E-04   9.1480429E+04   -1.7036773E+00
   4.2492683E-04   9.0765267E+04   -1.7031213E+00
   4.2688919E-04   9.0055927E+04   -1.7025657E+00
   4.2886061E-04   8.9352358E+04   -1.7020106E+00
   4.3084113E-04   8.8654514E+04   -1.7014560E+00
   4.3283080E-04   8.7962344E+04   -1.7009019E+00
   4.3482966E-04   8.7275800E+04   -1.7003483E+00
   4.3683775E-04   8.6594837E+04   -1.6997952E+00
   4.3885511E-04   8.5919405E+04   -1.6992426E+00
   4.4088179E-04   8.5249458E+04   -1.6986905E+00
   4.4291783E-04   8.4584950E+04   -1.6981390E+00
   4.4496327E-04   8.3925835E+04   -1.6975880E+00
   4.4701816E-04   8.3272067E+04   -1.6970375E+00
   4.4908253E-04   8.2623602E+04   -1.6964875E+00
   4.5115644E-04   8.1980394E+04   -1.6959381E+00
   4.5323993E-04   8.1342399E+04   -1.6953892E+00
   4.5533304E-04   8.0709573E+04   -1.6948409E+00
   4.5743582E-04   8.0081873E+04   -1.6942932E+00
   4.5954830E-04   7.9459255E+04   -1.6937460E+00
   4.6167054E-04   7.8841677E+04   -1.6931993E+00
   4.6380259E-04   7.8229095E+04   -1.6926533E+00
   4.6594448E-04   7.7621468E+04   -1.6921078E+00
   4.6809626E-04   7.7018754E+04   -1.6915629E+00
   4.7025797E-04   7.6420912E+04   -1.6910185E+00
   4.7242967E-04   7.5827900E+04   -1.6904748E+00
   4.7461140E-04   7.5239678E+04   -1.6899317E+00
   4.7680321E-04   7.4656207E+04   -1.6893891E+00
   4.7900514E-04   7.4077445E+04   -1.6888472E+00
   4.8121723E-04   7.3503353E+04   -1.6883059E+00
   4.8343954E-04   7.2933892E+04   -1.6877652E+00
   4.8567212E-04   7.2369024E+04   -1.6872251E+00
   4.8791500E-04   7.1808708E+04   -1.6866856E+00
   4.9016825E-04   7.1252908E+04   -1.6861468E+00
   4.9243189E-04   7.0701586E+04   -1.6856086E+00
   4.9470600E-04   7.0154703E+04   -1.6850710E+00
   4.9699060E-04   6.9612222E+04   -1.6845341E+00
   4.9928575E-04   6.9074107E+04   -1.6839978E+00
   5.0159151E-04   6.8540321E+04   -1.6834622E+00
   5.0390791E-04   6.8010828E+04   -1.6829272E+00
   5.0623501E-04   6.7485592E+04   -1.6823929E+00
   5.0857286E-04   6.6964576E+04   -1.6818592E+00
   5.1092150E-04   6.6447746E+04   -1.6813262E+00
   5.1328099E-04   6.5935067E+04   -1.6807939E+00
   5.1565137E-04   6.5426504E+04   -1.6802623E+00
   5.1803270E-04   6.4922023E+04   -1.6797314E+00
   5.2042503E-04   6.4421589E+04   -1.6792011E+00
   5.2282841E-04   6.3925168E+04   -1.6786715E+00
   5.2524289E-04   6.3432728E+04   -1.6781427E+00
   5.2766851E-04   6.2944234E+04   -1.6776145E+00
   5.3010534E-04   6.2459654E+04   -1.6770870E+00
   5.3255342E-04   6.1978954E+04   -1.6765602E+00
   5.3501281E-04   6.1502104E+04   -1.6760342E+00
   5.3748356E-04   6.1029070E+04   -1.6755088E+00
   5.3996571E-04   6.0559821E+04   -1.6749842E+00
   5.4245933E-04   6.0094325E+04   -1.6744603E+00
   5.4496446E-04   5.9632552E+04   -1.6739371E+00
   5.4748117E-04   5.9174469E+04   -1.6734147E+00
   5.5000949E-04   5.8720046E+04   -1.6728930E+00
   5.5254949E-04   5.8269253E+04   -1.6723720E+00
   5.5510123E-04   5.7822059E+04   -1.6718518E+00
   5.5766474E-04   5.7378435E+04   -1.6713324E+00
   5.6024010E-04   5.6938350E+04   -1.6708136E+00
   5.6282734E-04   5.6501776E+04   -1.6702957E+00
   5.6542654E-04   5.6068683E+04   -1.6697785E+00
   5.6803774E-04   5.5639042E+04   -1.6692620E+00
   5.7066099E-04   5.5212824E+04   -1.6687463E+00
   5.7329637E-04   5.4790002E+04   -1.6682314E+00
   5.7594391E-04   5.4370546E+04   -1.6677173E+00
   5.7860368E-04   5.3954430E+04   -1.6672040E+00
   5.8127573E-04   5.3541625E+04   -1.6666914E+00
   5.8396012E-04   5.3132103E+04   -1.6661796E+00
   5.8665691E-04   5.2725838E+04   -1.6656686E+00
   5.8936616E-04   5.2322803E+04   -1.6651584E+00
   5.9208791E-04   5.1922970E+04   -1.6646490E+00
   5.9482223E-04   5.1526314E+04   -1.6641404E+00
   5.9756919E-04   5.1132807E+04   -1.6636326E+00
   6.0032882E-04   5.0742424E+04   -1.6631256E+00
   6.0310120E-04   5.0355140E+04   -1.6626194E+00
   6.0588639E-04   4.9970927E+04   -1.6621140E+00
   6.0868443E-04   4.9589762E+04   -1.6616094E+00
   6.1149540E-04   4.9211618E+04   -1.6611057E+00
   6.1431935E-04   4.8836471E+04   -1.6606028E+00
   6.1715634E-04   4.8464296E+04   -1.6601007E+00
   6.2000644E-04   4.8095069E+04   -1.6595994E+00
   6.2286969E-04   4.7728765E+04   -1.6590990E+00
