#        a       HoverH0(a)       dlogHdloga_of_a(a)
   1.0000000E-04   1.0993988E+06   -1.8469993E+00
   1.0046181E-04   1.0900839E+06   -1.8465096E+00
   1.0092575E-04   1.0808503E+06   -1.8460191E+00
   1.0139184E-04   1.0716973E+06   -1.8455277E+00
   1.0186008E-04   1.0626243E+06   -1.8450354E+00
   1.0233048E-04   1.0536304E+06   -1.8445422E+00
   1.0280305E-04   1.0447151E+06   -1.8440482E+00
   1.0327781E-04   1.0358776E+06   -1.8435534E+00
   1.0375475E-04   1.0271171E+06   -1.8430576E+00
   1.0423390E-04   1.0184331E+06   -1.8425611E+00
   1.0471527E-04   1.0098248E+06   -1.8420636E+00
   1.0519885E-04   1.0012916E+06   -1.8415654E+00
   1.0568467E-04   9.9283276E+05   -1.8410663E+00
   1.0617274E-04   9.8444764E+05   -1.8405663E+00
   1.0666305E-04   9.7613559E+05   -1.8400655E+00
   1.0715563E-04   9.6789596E+05   -1.8395639E+00
   1.0765049E-04   9.5972811E+05   -1.8390615E+00
   1.0814763E-04   9.5163138E+05   -1.8385582E+00
   1.0864707E-04   9.4360515E+05   -1.8380541E+00
   1.0914881E-04   9.3564879E+05   -1.8375492E+00
   1.0965287E-04   9.2776168E+05   -1.8370435E+00
   1.1015926E-04   9.1994320E+05   -1.8365369E+00
   1.1066799E-04   9.1219273E+05   -1.8360296E+00
   1.1117906E-04   9.0450968E+05   -1.8355215E+00
   1.1169250E-04   8.9689345E+05   -1.8350125E+00
   1.1220831E-04   8.8934343E+05   -1.8345027E+00
   1.1272650E-04   8.8185903E+05   -1.8339922E+00
   1.1324708E-04   8.7443969E+05   -1.8334809E+00
   1.1377007E-04   8.6708481E+05   -1.8329687E+00
   1.1429547E-04   8.5979382E+05   -1.8324558E+00
   1.1482330E-04   8.5256615E+05   -1.8319422E+00
   1.1535356E-04   8.4540125E+05   -1.8314277E+00
   1.1588628E-04   8.3829855E+05   -1.8309125E+00
   1.1642145E-04   8.3125749E+05   -1.8303964E+00
   1.1695910E-04   8.2427754E+05   -1.8298797E+00
   1.1749923E-04   8.1735814E+05   -1.8293621E+00
   1.1804185E-04   8.1049877E+05   -1.8288439E+00
   1.1858698E-04   8.0369887E+05   -1.8283248E+00
   1.1913463E-04   7.9695794E+05   -1.8278050E+00
   1.1968481E-04   7.9027543E+05   -1.8272845E+00
   1.2023752E-04   7.8365084E+05   -1.8267632E+00
   1.2079279E-04   7.7708365E+05   -1.8262412E+00
   1.2135063E-04   7.7057335E+05   -1.8257184E+00
   1.2191104E-04   7.6411944E+05   -1.8251949E+00
   1.2247403E-04   7.5772141E+05   -1.8246707E+00
   1.2303963E-04   7.5137876E+05   -1.8241458E+00
   1.2360784E-04   7.4509101E+05   -1.8236201E+00
   1.2417868E-04   7.3885767E+05   -1.8230938E+00
   1.2475215E-04   7.3267825E+05   -1.8225667E+00
   1.2532826E-04   7.2655228E+05   -1.8220389E+00
   1.2590704E-04   7.2047929E+05   -1.8215104E+00
   1.2648850E-04   7.1445879E+05   -1.8209813E+00
   1.2707263E-04   7.0849034E+05   -1.8204514E+00
   1.2765947E-04   7.0257345E+05   -1.8199208E+00
   1.2824901E-04   6.9670769E+05   -1.8193896E+00
   1.2884128E-04   6.9089260E+05   -1.8188577E+00
   1.2943628E-04   6.8512772E+05   -1.8183251E+00
   1.3003403E-04   6.7941261E+05   -1.8177918E+00
   1.3063454E-04   6.7374683E+05   -1.8172579E+00
   1.3123783E-04   6.6812994E+05   -1.8167233E+00
   1.3184390E-04   6.6256152E+05   -1.8161880E+00
   1.3245277E-04   6.5704112E+05   -1.8156521E+00
   1.3306445E-04   6.5156833E+05   -1.8151155E+00
   1.3367895E-04   6.4614272E+05   -1.8145783E+00
   1.3429630E-04   6.4076388E+05   -1.8140405E+00
   1.3491649E-04   6.3543139E+05   -1.8135020E+00
   1.3553955E-04   6.3014484E+05   -1.8129629E+00
   1.3616548E-04   6.2490383E+05   -1.8124232E+00
   1.3679431E-04   6.1970795E+05   -1.8118828E+00
   1.3742604E-04   6.1455680E+05   -1.8113418E+00
   1.3806069E-04   6.0944999E+05   -1.8108002E+00
   1.3869827E-04   6.0438713E+05   -1.8102581E+00
   1.3933879E-04   5.9936782E+05   -1.8097153E+00
   1.3998227E-04   5.9439168E+05   -1.8091719E+00
   1.4062872E-04   5.8945834E+05   -1.8086279E+00
   1.4127816E-04   5.8456740E+05   -1.8080833E+00
   1.4193060E-04   5.7971850E+05   -1.8075381E+00
   1.4258605E-04   5.7491127E+05   -1.8069924E+00
   1.4324453E-04   5.7014534E+05   -1.8064461E+00
   1.4390605E-04   5.6542034E+05   -1.8058992E+00
   1.4457062E-04   5.6073591E+05   -1.8053518E+00
   1.4523826E-04   5.5609169E+05   -1.8048038E+00
   1.4590899E-04   5.5148733E+05   -1.8042552E+00
   1.4658281E-04   5.4692248E+05   -1.8037061E+00
   1.4725974E-04   5.4239679E+05   -1.8031565E+00
   1.4793981E-04   5.3790991E+05   -1.8026063E+00
   1.4862301E-04   5.3346150E+05   -1.8020555E+00
   1.4930936E-04   5.2905121E+05   -1.8015043E+00
   1.4999889E-04   5.2467873E+05   -1.8009525E+00
   1.5069160E-04   5.2034370E+05   -1.8004002E+00
   1.5138751E-04   5.1604581E+05   -1.7998474E+00
   1.5208663E-04   5.1178471E+05   -1.7992941E+00
   1.5278899E-04   5.0756010E+05   -1.7987403E+00
   1.5349458E-04   5.0337165E+05   -1.7981860E+00
   1.5420343E-04   4.9921903E+05   -1.7976312E+00
   1.5491556E-04   4.9510194E+05   -1.7970759E+00
   1.5563098E-04   4.9102006E+05   -1.7965201E+00
   1.5634970E-04   4.8697308E+05   -1.7959638E+00
   1.5707174E-04   4.8296070E+05   -1.7954071E+00
   1.5779711E-04   4.7898260E+05   -1.7948499E+00
   1.5852584E-04   4.7503849E+05   -1.7942922E+00
   1.5925792E-04   4.7112807E+05   -1.7937341E+00
   1.5999339E-04   4.6725104E+05   -1.7931756E+00
   1.6073226E-04   4.6340710E+05   -1.7926166E+00
   1.6147454E-04   4.5959598E+05   -1.7920571E+00
   1.6222024E-04   4.5581737E+05   -1.7914973E+00
   1.6296939E-04   4.5207100E+05   -1.7909369E+00
   1.6372200E-04   4.4835657E+05   -1.7903762E+00
   1.6447809E-04   4.4467382E+05   -1.7898151E+00
   1.6523767E-04   4.4102245E+05   -1.7892535E+00
   1.6600075E-04   4.3740220E+05   -1.7886915E+00
   1.6676736E-04   4.3381279E+05   -1.7881292E+00
   1.6753751E-04   4.3025396E+05   -1.7875664E+00
   1.6831122E-04   4.2672542E+05   -1.7870033E+00
   1.6908849E-04   4.2322692E+05   -1.7864397E+00
   1.6986936E-04   4.1975819E+05   -1.7858758E+00
   1.7065384E-04   4.1631897E+05   -1.7853115E+00
   1.7144193E-04   4.1290901E+05   -1.7847469E+00
   1.7223367E-04   4.0952804E+05   -1.7841818E+00
   1.7302906E-04   4.0617582E+05   -1.7836165E+00
   1.7382813E-04   4.0285208E+05   -1.7830507E+00
   1.7463089E-04   3.9955659E+05   -1.7824847E+00
   1.7543735E-04   3.9628908E+05   -1.7819183E+00
   1.7624754E-04   3.9304933E+05   -1.7813515E+00
   1.7706147E-04   3.8983707E+05   -1.7807844E+00
   1.7787916E-04   3.8665208E+05   -1.7802171E+00
   1.7870062E-04   3.8349412E+05   -1.7796493E+00
   1.7952588E-04   3.8036294E+05   -1.7790813E+00
   1.8035495E-04   3.7725832E+05   -1.7785130E+00
   1.8118785E-04   3.7418001E+05   -1.7779444E+00
   1.8202459E-04   3.7112780E+05   -1.7773755E+00
   1.8286520E-04   3.6810145E+05   -1.7768063E+00
   1.8370969E-04   3.6510073E+05   -1.7762368E+00
   1.8455808E-04   3.6212543E+05   -1.7756670E+00
   1.8541039E-04   3.5917532E+05   -1.7750970E+00
   1.8626663E-04   3.5625018E+05   -1.7745267E+00
   1.8712683E-04   3.5334978E+05   -1.7739561E+00
   1.8799100E-04   3.5047393E+05   -1.7733853E+00
   1.8885917E-04   3.4762239E+05   -1.7728143E+00
   1.8973134E-04   3.4479496E+05   -1.7722430E+00
   1.9060754E-04   3.4199143E+05   -1.7716715E+00
   1.9148778E-04   3.3921159E+05   -1.7710997E+00
   1.9237209E-04   3.3645523E+05   -1.7705277E+00
   1.9326049E-04   3.3372214E+05   -1.7699555E+00
   1.9415299E-04   3.3101213E+05   -1.7693831E+00
   1.9504960E-04   3.2832500E+05   -1.7688105E+00
   1.9595036E-04   3.2566054E+05   -1.7682377E+00
   1.9685528E-04   3.2301855E+05   -1.7676647E+00
   1.9776438E-04   3.2039884E+05   -1.7670915E+00
   1.9867768E-04   3.1780122E+05   -1.7665181E+00
   1.9959519E-04   3.1522549E+05   -1.7659446E+00
   2.0051694E-04   3.1267147E+05   -1.7653709E+00
   2.0144295E-04   3.1013895E+05   -1.7647970E+00
   2.0237324E-04   3.0762777E+05   -1.7642230E+00
   2.0330782E-04   3.0513772E+05   -1.7636488E+00
   2.0424671E-04   3.0266863E+05   -1.7630745E+00
   2.0518995E-04   3.0022031E+05   -1.7625000E+00
   2.0613754E-04   2.9779258E+05   -1.7619254E+00
   2.0708950E-04   2.9538527E+05   -1.7613507E+00
   2.0804586E-04   2.9299820E+05   -1.7607758E+00
   2.0900664E-04   2.9063119E+05   -1.7602009E+00
   2.0997185E-04   2.8828406E+05   -1.7596258E+00
   2.1094152E-04   2.8595664E+05   -1.7590506E+00
   2.1191567E-04   2.8364877E+05   -1.7584754E+00
   2.1289432E-04   2.8136027E+05   -1.7579000E+00
   2.1387749E-04   2.7909097E+05   -1.7573246E+00
   2.1486520E-04   2.7684071E+05   -1.7567490E+00
   2.1585747E-04   2.7460932E+05   -1.7561734E+00
   2.1685432E-04   2.7239664E+05   -1.7555978E+00
   2.1785578E-04   2.7020251E+05   -1.7550221E+00
   2.1886186E-04   2.6802675E+05   -1.7544463E+00
   2.1987259E-04   2.6586923E+05   -1.7538705E+00
   2.2088798E-04   2.6372977E+05   -1.7532946E+00
   2.2190807E-04   2.6160822E+05   -1.7527187E+00
   2.2293286E-04   2.5950443E+05   -1.7521428E+00
   2.2396239E-04   2.5741824E+05   -1.7515668E+00
   2.2499667E-04   2.5534950E+05   -1.7509909E+00
   2.2603573E-04   2.5329805E+05   -1.7504149E+00
   2.2707958E-04   2.5126375E+05   -1.7498389E+00
   2.2812826E-04   2.4924646E+05   -1.7492629E+00
   2.2918178E-04   2.4724601E+05   -1.7486870E+00
   2.3024017E-04   2.4526227E+05   -1.7481110E+00
   2.3130344E-04   2.4329509E+05   -1.7475351E+00
   2.3237162E-04   2.4134433E+05   -1.7469592E+00
   2.3344474E-04   2.3940985E+05   -1.7463833E+00
   2.3452281E-04   2.3749150E+05   -1.7458074E+00
   2.3560586E-04   2.3558915E+05   -1.7452317E+00
   2.3669392E-04   2.3370266E+05   -1.7446559E+00
   2.3778699E-04   2.3183189E+05   -1.7440802E+00
   2.3888512E-04   2.2997671E+05   -1.7435046E+00
   2.3998831E-04   2.2813697E+05   -1.7429290E+00
   2.4109661E-04   2.2631255E+05   -1.7423535E+00
   2.4221001E-04   2.2450332E+05   -1.7417781E+00
   2.4332857E-04   2.2270914E+05   -1.7412028E+00
   2.4445228E-04   2.2092989E+05   -1.7406276E+00
   2.4558119E-04   2.1916543E+05   -1.7400525E+00
   2.4671531E-04   2.1741564E+05   -1.7394774E+00
   2.4785467E-04   2.1568039E+05   -1.7389025E+00
   2.4899928E-04   2.1395956E+05   -1.7383277E+00
   2.5014919E-04   2.1225302E+05   -1.7377531E+00
   2.5130440E-04   2.1056065E+05   -1.7371785E+00
   2.5246495E-04   2.0888232E+05   -1.7366041E+00
   2.5363086E-04   2.0721792E+05   -1.7360299E+00
   2.5480216E-04   2.0556733E+05   -1.7354558E+00
   2.5597886E-04   2.0393042E+05   -1.7348818E+00
   2.5716100E-04   2.0230709E+05   -1.7343080E+00
   2.5834859E-04   2.0069720E+05   -1.7337343E+00
   2.5954168E-04   1.9910065E+05   -1.7331609E+00
   2.6074027E-04   1.9751733E+05   -1.7325876E+00
   2.6194439E-04   1.9594711E+05   -1.7320145E+00
   2.6315408E-04   1.9438989E+05   -1.7314416E+00
   2.6436935E-04   1.9284556E+05   -1.7308689E+00
   2.6559024E-04   1.9131400E+05   -1.7302963E+00
   2.6681676E-04   1.8979510E+05   -1.7297240E+00
   2.6804895E-04   1.8828876E+05   -1.7291519E+00
   2.6928683E-04   1.8679486E+05   -1.7285801E+00
   2.7053042E-04   1.8531331E+05   -1.7280084E+00
   2.7177976E-04   1.8384399E+05   -1.7274370E+00
   2.7303487E-04   1.8238680E+05   -1.7268658E+00
   2.7429577E-04   1.8094164E+05   -1.7262949E+00
   2.7556250E-04   1.7950840E+05   -1.7257242E+00
   2.7683507E-04   1.7808698E+05   -1.7251537E+00
   2.7811353E-04   1.7667728E+05   -1.7245836E+00
   2.7939788E-04   1.7527920E+05   -1.7240136E+00
   2.8068817E-04   1.7389264E+05   -1.7234440E+00
   2.8198442E-04   1.7251750E+05   -1.7228746E+00
   2.8328665E-04   1.7115368E+05   -1.7223056E+00
   2.8459490E-04   1.6980109E+05   -1.7217368E+00
   2.8590919E-04   1.6845964E+05   -1.7211683E+00
   2.8722955E-04   1.6712921E+05   -1.7206001E+00
   2.8855600E-04   1.6580973E+05   -1.7200322E+00
   2.8988859E-04   1.6450110E+05   -1.7194647E+00
   2.9122732E-04   1.6320322E+05   -1.7188974E+00
   2.9257224E-04   1.6191600E+05   -1.7183305E+00
   2.9392337E-04   1.6063936E+05   -1.7177639E+00
   2.9528074E-04   1.5937319E+05   -1.7171976E+00
   2.9664438E-04   1.5811742E+05   -1.7166317E+00
   2.9801431E-04   1.5687196E+05   -1.7160662E+00
   2.9939057E-04   1.5563670E+05   -1.7155009E+00
   3.0077319E-04   1.5441158E+05   -1.7149361E+00
   3.0216219E-04   1.5319650E+05   -1.7143716E+00
   3.0355761E-04   1.5199138E+05   -1.7138075E+00
   3.0495947E-04   1.5079613E+05   -1.7132437E+00
   3.0636780E-04   1.4961067E+05   -1.7126804E+00
   3.0778264E-04   1.4843491E+05   -1.7121174E+00
   3.0920401E-04   1.4726877E+05   -1.7115548E+00
   3.1063195E-04   1.4611217E+05   -1.7109926E+00
   3.1206648E-04   1.4496503E+05   -1.7104308E+00
   3.1350764E-04   1.4382728E+05   -1.7098695E+00
   3.1495545E-04   1.4269881E+05   -1.7093085E+00
   3.1640994E-04   1.4157957E+05   -1.7087480E+00
   3.1787116E-04   1.4046947E+05   -1.7081878E+00
   3.1933912E-04   1.3936844E+05   -1.7076282E+00
   3.2081386E-04   1.3827639E+05   -1.7070689E+00
   3.2229541E-04   1.3719325E+05   -1.7065101E+00
   3.2378381E-04   1.3611894E+05   -1.7059518E+00
   3.2527908E-04   1.3505340E+05   -1.7053939E+00
   3.2678125E-04   1.3399654E+05   -1.7048364E+00
   3.2829036E-04   1.3294829E+05   -1.7042794E+00
   3.2980644E-04   1.3190858E+05   -1.7037229E+00
   3.3132952E-04   1.3087734E+05   -1.7031669E+00
   3.3285963E-04   1.2985449E+05   -1.7026113E+00
   3.3439681E-04   1.2883997E+05   -1.7020562E+00
   3.3594109E-04   1.2783370E+05   -1.7015016E+00
   3.3749250E-04   1.2683561E+05   -1.7009475E+00
   3.3905108E-04   1.2584563E+05   -1.7003940E+00
   3.4061685E-04   1.2486370E+05   -1.6998409E+00
   3.4218986E-04   1.2388975E+05   -1.6992883E+00
   3.4377013E-04   1.2292371E+05   -1.6987362E+00
   3.4535769E-04   1.2196551E+05   -1.6981847E+00
   3.4695259E-04   1.2101509E+05   -1.6976337E+00
   3.4855485E-04   1.2007238E+05   -1.6970832E+00
   3.5016452E-04   1.1913731E+05   -1.6965332E+00
   3.5178161E-04   1.1820983E+05   -1.6959838E+00
   3.5340618E-04   1.1728986E+05   -1.6954350E+00
   3.5503824E-04   1.1637735E+05   -1.6948867E+00
   3.5667785E-04   1.1547222E+05   -1.6943389E+00
   3.5832502E-04   1.1457443E+05   -1.6937917E+00
   3.5997981E-04   1.1368390E+05   -1.6932451E+00
   3.6164223E-04   1.1280058E+05   -1.6926990E+00
   3.6331233E-04   1.1192440E+05   -1.6921536E+00
   3.6499015E-04   1.1105531E+05   -1.6916087E+00
   3.6667571E-04   1.1019324E+05   -1.6910643E+00
   3.6836906E-04   1.0933814E+05   -1.6905206E+00
   3.7007022E-04   1.0848995E+05   -1.6899775E+00
   3.7177925E-04   1.0764860E+05   -1.6894350E+00
   3.7349616E-04   1.0681405E+05   -1.6888930E+00
   3.7522101E-04   1.0598623E+05   -1.6883517E+00
   3.7695382E-04   1.0516509E+05   -1.6878110E+00
   3.7869463E-04   1.0435057E+05   -1.6872709E+00
   3.8044348E-04   1.0354262E+05   -1.6867315E+00
   3.8220041E-04   1.0274117E+05   -1.6861927E+00
   3.8396545E-04   1.0194619E+05   -1.6856545E+00
   3.8573864E-04   1.0115760E+05   -1.6851169E+00
   3.8752002E-04   1.0037537E+05   -1.6845800E+00
   3.8930963E-04   9.9599428E+04   -1.6840437E+00
   3.9110750E-04   9.8829730E+04   -1.6835081E+00
   3.9291368E-04   9.8066222E+04   -1.6829731E+00
   3.9472820E-04   9.7308852E+04   -1.6824388E+00
   3.9655109E-04   9.6557568E+04   -1.6819052E+00
   3.9838241E-04   9.5812321E+04   -1.6813722E+00
   4.0022218E-04   9.5073058E+04   -1.6808399E+00
   4.0207045E-04   9.4339731E+04   -1.6803083E+00
   4.0392725E-04   9.3612290E+04   -1.6797773E+00
   4.0579263E-04   9.2890685E+04   -1.6792471E+00
   4.0766662E-04   9.2174867E+04   -1.6787175E+00
   4.0954927E-04   9.1464789E+04   -1.6781887E+00
   4.1144061E-04   9.0760402E+04   -1.6776605E+00
   4.1334068E-04   9.0061658E+04   -1.6771330E+00
   4.1524953E-04   8.9368511E+04   -1.6766063E+00
   4.1716720E-04   8.8680913E+04   -1.6760802E+00
   4.1909372E-04   8.7998819E+04   -1.6755549E+00
   4.2102914E-04   8.7322183E+04   -1.6750303E+00
   4.2297350E-04   8.6650959E+04   -1.6745064E+00
   4.2492683E-04   8.5985101E+04   -1.6739832E+00
   4.2688919E-04   8.5324566E+04   -1.6734608E+00
   4.2886061E-04   8.4669309E+04   -1.6729391E+00
   4.3084113E-04   8.4019286E+04   -1.6724181E+00
   4.3283080E-04   8.3374453E+04   -1.6718979E+00
   4.3482966E-04   8.2734767E+04   -1.6713785E+00
   4.3683775E-04   8.2100185E+04   -1.6708597E+00
   4.3885511E-04   8.1470666E+04   -1.6703418E+00
   4.4088179E-04   8.0846166E+04   -1.6698246E+00
   4.4291783E-04   8.0226644E+04   -1.6693081E+00
   4.4496327E-04   7.9612059E+04   -1.6687925E+00
   4.4701816E-04   7.9002369E+04   -1.6682776E+00
   4.4908253E-04   7.8397534E+04   -1.6677635E+00
   4.5115644E-04   7.7797515E+04   -1.6672501E+00
   4.5323993E-04   7.7202269E+04   -1.6667375E+00
   4.5533304E-04   7.6611760E+04   -1.6662258E+00
   4.5743582E-04   7.6025946E+04   -1.6657148E+00
   4.5954830E-04   7.5444789E+04   -1.6652046E+00
   4.6167054E-04   7.4868250E+04   -1.6646952E+00
   4.6380259E-04   7.4296291E+04   -1.6641866E+00
   4.6594448E-04   7.3728874E+04   -1.6636788E+00
   4.6809626E-04   7.3165962E+04   -1.6631718E+00
   4.7025797E-04   7.2607518E+04   -1.6626656E+00
   4.7242967E-04   7.2053503E+04   -1.6621602E+00
   4.7461140E-04   7.1503882E+04   -1.6616557E+00
   4.7680321E-04   7.0958618E+04   -1.6611519E+00
   4.7900514E-04   7.0417676E+04   -1.6606490E+00
   4.8121723E-04   6.9881019E+04   -1.6601469E+00
   4.8343954E-04   6.9348613E+04   -1.6596457E+00
   4.8567212E-04   6.8820421E+04   -1.6591453E+00
   4.8791500E-04   6.8296410E+04   -1.6586457E+00
   4.9016825E-04   6.7776545E+04   -1.6581469E+00
   4.9243189E-04   6.7260791E+04   -1.6576490E+00
   4.9470600E-04   6.6749115E+04   -1.6571520E+00
   4.9699060E-04   6.6241483E+04   -1.6566558E+00
   4.9928575E-04   6.5737862E+04   -1.6561604E+00
   5.0159151E-04   6.5238218E+04   -1.6556659E+00
   5.0390791E-04   6.4742519E+04   -1.6551723E+00
   5.0623501E-04   6.4250733E+04   -1.6546795E+00
   5.0857286E-04   6.3762827E+04   -1.6541876E+00
   5.1092150E-04   6.3278770E+04   -1.6536965E+00
   5.1328099E-04   6.2798529E+04   -1.6532064E+00
   5.1565137E-04   6.2322073E+04   -1.6527171E+00
   5.1803270E-04   6.1849372E+04   -1.6522286E+00
   5.2042503E-04   6.1380394E+04   -1.6517411E+00
   5.2282841E-04   6.0915109E+04   -1.6512544E+00
   5.2524289E-04   6.0453486E+04   -1.6507686E+00
   5.2766851E-04   5.9995496E+04   -1.6502837E+00
   5.3010534E-04   5.9541108E+04   -1.6497997E+00
   5.3255342E-04   5.9090293E+04   -1.6493166E+00
   5.3501281E-04   5.8643022E+04   -1.6488344E+00
   5.3748356E-04   5.8199266E+04   -1.6483530E+00
   5.3996571E-04   5.7758996E+04   -1.6478726E+00
   5.4245933E-04   5.7322183E+04   -1.6473931E+00
   5.4496446E-04   5.6888799E+04   -1.6469145E+00
   5.4748117E-04   5.6458816E+04   -1.6464367E+00
   5.5000949E-04   5.6032206E+04   -1.6459599E+00
   5.5254949E-04   5.5608942E+04   -1.6454841E+00
   5.5510123E-04   5.5188996E+04   -1.6450091E+00
   5.5766474E-04   5.4772341E+04   -1.6445350E+00
   5.6024010E-04   5.4358951E+04   -1.6440619E+00
   5.6282734E-04   5.3948797E+04   -1.6435897E+00
   5.6542654E-04   5.3541855E+04   -1.6431184E+00
   5.6803774E-04   5.3138098E+04   -1.6426480E+00
   5.7066099E-04   5.2737500E+04   -1.6421786E+00
   5.7329637E-04   5.2340034E+04   -1.6417101E+00
   5.7594391E-04   5.1945677E+04   -1.6412425E+00
   5.7860368E-04   5.1554401E+04   -1.6407759E+00
   5.8127573E-04   5.1166183E+04   -1.6403102E+00
   5.8396012E-04   5.0780997E+04   -1.6398454E+00
   5.8665691E-04   5.0398819E+04   -1.6393816E+00
   5.8936616E-04   5.0019624E+04   -1.6389187E+00
   5.9208791E-04   4.9643387E+04   -1.6384568E+00
   5.9482223E-04   4.9270085E+04   -1.6379958E+00
   5.9756919E-04   4.8899694E+04   -1.6375358E+00
   6.0032882E-04   4.8532190E+04   -1.6370767E+00
   6.0310120E-04   4.8167550E+04   -1.6366186E+00
   6.0588639E-04   4.7805751E+04   -1.6361614E+00
   6.0868443E-04   4.7446768E+04   -1.6357052E+00
   6.1149540E-04   4.7090581E+04   -1.6352499E+00
   6.1431935E-04   4.6737165E+04   -1.6347956E+00
   6.1715634E-04   4.6386499E+04   -1.6343423E+00
   6.2000644E-04   4.6038560E+04   -1.6338899E+00
   6.2286969E-04   4.5693325E+04   -1.6334385E+00
