#        a       HoverH0(a)       dlogHdloga_of_a(a)
   1.0000000E-04   1.1246202E+06   -1.8973685E+00
   1.0046181E-04   1.1148325E+06   -1.8969922E+00
   1.0092575E-04   1.1051319E+06   -1.8966148E+00
   1.0139184E-04   1.0955176E+06   -1.8962365E+00
   1.0186008E-04   1.0859889E+06   -1.8958571E+00
   1.0233048E-04   1.0765449E+06   -1.8954766E+00
   1.0280305E-04   1.0671849E+06   -1.8950952E+00
   1.0327781E-04   1.0579082E+06   -1.8947127E+00
   1.0375475E-04   1.0487139E+06   -1.8943293E+00
   1.0423390E-04   1.0396014E+06   -1.8939448E+00
   1.0471527E-04   1.0305699E+06   -1.8935592E+00
   1.0519885E-04   1.0216187E+06   -1.8931727E+00
   1.0568467E-04   1.0127471E+06   -1.8927851E+00
   1.0617274E-04   1.0039542E+06   -1.8923965E+00
   1.0666305E-04   9.9523953E+05   -1.8920069E+00
   1.0715563E-04   9.8660225E+05   -1.8916163E+00
   1.0765049E-04   9.7804169E+05   -1.8912246E+00
   1.0814763E-04   9.6955717E+05   -1.8908320E+00
   1.0864707E-04   9.6114798E+05   -1.8904383E+00
   1.0914881E-04   9.5281347E+05   -1.8900435E+00
   1.0965287E-04   9.4455294E+05   -1.8896478E+00
   1.1015926E-04   9.3636574E+05   -1.8892511E+00
   1.1066799E-04   9.2825120E+05   -1.8888533E+00
   1.1117906E-04   9.2020867E+05   -1.8884545E+00
   1.1169250E-04   9.1223750E+05   -1.8880547E+00
   1.1220831E-04   9.0433705E+05   -1.8876538E+00
   1.1272650E-04   8.9650668E+05   -1.8872520E+00
   1.1324708E-04   8.8874576E+05   -1.8868491E+00
   1.1377007E-04   8.8105366E+05   -1.8864452E+00
   1.1429547E-04   8.7342976E+05   -1.8860403E+00
   1.1482330E-04   8.6587346E+05   -1.8856344E+00
   1.1535356E-04   8.5838413E+05   -1.8852275E+00
   1.1588628E-04   8.5096117E+05   -1.8848195E+00
   1.1642145E-04   8.4360400E+05   -1.8844106E+00
   1.1695910E-04   8.3631201E+05   -1.8840006E+00
   1.1749923E-04   8.2908462E+05   -1.8835896E+00
   1.1804185E-04   8.2192124E+05   -1.8831776E+00
   1.1858698E-04   8.1482131E+05   -1.8827645E+00
   1.1913463E-04   8.0778425E+05   -1.8823505E+00
   1.1968481E-04   8.0080949E+05   -1.8819355E+00
   1.2023752E-04   7.9389647E+05   -1.8815194E+00
   1.2079279E-04   7.8704465E+05   -1.8811024E+00
   1.2135063E-04   7.8025346E+05   -1.8806843E+00
   1.2191104E-04   7.7352236E+05   -1.8802652E+00
   1.2247403E-04   7.6685081E+05   -1.8798451E+00
   1.2303963E-04   7.6023827E+05   -1.8794240E+00
   1.2360784E-04   7.5368422E+05   -1.8790019E+00
   1.2417868E-04   7.4718813E+05   -1.8785788E+00
   1.2475215E-04   7.4074947E+05   -1.8781547E+00
   1.2532826E-04   7.3436773E+05   -1.8777296E+00
   1.2590704E-04   7.2804240E+05   -1.8773035E+00
   1.2648850E-04   7.2177297E+05   -1.8768763E+00
   1.2707263E-04   7.1555894E+05   -1.8764482E+00
   1.2765947E-04   7.0939981E+05   -1.8760191E+00
   1.2824901E-04   7.0329509E+05   -1.8755890E+00
   1.2884128E-04   6.9724428E+05   -1.8751579E+00
   1.2943628E-04   6.9124691E+05   -1.8747258E+00
   1.3003403E-04   6.8530249E+05   -1.8742927E+00
   1.3063454E-04   6.7941054E+05   -1.8738586E+00
   1.3123783E-04   6.7357061E+05   -1.8734235E+00
   1.3184390E-04   6.6778220E+05   -1.8729874E+00
   1.3245277E-04   6.6204488E+05   -1.8725503E+00
   1.3306445E-04   6.5635817E+05   -1.8721123E+00
   1.3367895E-04   6.5072162E+05   -1.8716732E+00
   1.3429630E-04   6.4513478E+05   -1.8712332E+00
   1.3491649E-04   6.3959720E+05   -1.8707922E+00
   1.3553955E-04   6.3410845E+05   -1.8703502E+00
   1.3616548E-04   6.2866809E+05   -1.8699072E+00
   1.3679431E-04   6.2327567E+05   -1.8694633E+00
   1.3742604E-04   6.1793077E+05   -1.8690183E+00
   1.3806069E-04   6.1263297E+05   -1.8685724E+00
   1.3869827E-04   6.0738183E+05   -1.8681255E+00
   1.3933879E-04   6.0217694E+05   -1.8676777E+00
   1.3998227E-04   5.9701789E+05   -1.8672288E+00
   1.4062872E-04   5.9190427E+05   -1.8667790E+00
   1.4127816E-04   5.8683566E+05   -1.8663282E+00
   1.4193060E-04   5.8181166E+05   -1.8658765E+00
   1.4258605E-04   5.7683188E+05   -1.8654238E+00
   1.4324453E-04   5.7189592E+05   -1.8649701E+00
   1.4390605E-04   5.6700338E+05   -1.8645155E+00
   1.4457062E-04   5.6215387E+05   -1.8640599E+00
   1.4523826E-04   5.5734701E+05   -1.8636033E+00
   1.4590899E-04   5.5258242E+05   -1.8631458E+00
   1.4658281E-04   5.4785972E+05   -1.8626873E+00
   1.4725974E-04   5.4317852E+05   -1.8622279E+00
   1.4793981E-04   5.3853847E+05   -1.8617675E+00
   1.4862301E-04   5.3393918E+05   -1.8613062E+00
   1.4930936E-04   5.2938031E+05   -1.8608439E+00
   1.4999889E-04   5.2486147E+05   -1.8603807E+00
   1.5069160E-04   5.2038232E+05   -1.8599166E+00
   1.5138751E-04   5.1594250E+05   -1.8594515E+00
   1.5208663E-04   5.1154166E+05   -1.8589854E+00
   1.5278899E-04   5.0717945E+05   -1.8585184E+00
   1.5349458E-04   5.0285552E+05   -1.8580505E+00
   1.5420343E-04   4.9856952E+05   -1.8575817E+00
   1.5491556E-04   4.9432113E+05   -1.8571119E+00
   1.5563098E-04   4.9011000E+05   -1.8566412E+00
   1.5634970E-04   4.8593580E+05   -1.8561696E+00
   1.5707174E-04   4.8179820E+05   -1.8556970E+00
   1.5779711E-04   4.7769687E+05   -1.8552235E+00
   1.5852584E-04   4.7363149E+05   -1.8547491E+00
   1.5925792E-04   4.6960173E+05   -1.8542738E+00
   1.5999339E-04   4.6560728E+05   -1.8537976E+00
   1.6073226E-04   4.6164782E+05   -1.8533204E+00
   1.6147454E-04   4.5772304E+05   -1.8528424E+00
   1.6222024E-04   4.5383262E+05   -1.8523634E+00
   1.6296939E-04   4.4997627E+05   -1.8518836E+00
   1.6372200E-04   4.4615367E+05   -1.8514028E+00
   1.6447809E-04   4.4236453E+05   -1.8509211E+00
   1.6523767E-04   4.3860854E+05   -1.8504386E+00
   1.6600075E-04   4.3488542E+05   -1.8499551E+00
   1.6676736E-04   4.3119485E+05   -1.8494708E+00
   1.6753751E-04   4.2753656E+05   -1.8489855E+00
   1.6831122E-04   4.2391026E+05   -1.8484994E+00
   1.6908849E-04   4.2031565E+05   -1.8480124E+00
   1.6986936E-04   4.1675247E+05   -1.8475245E+00
   1.7065384E-04   4.1322041E+05   -1.8470358E+00
   1.7144193E-04   4.0971922E+05   -1.8465461E+00
   1.7223367E-04   4.0624861E+05   -1.8460556E+00
   1.7302906E-04   4.0280831E+05   -1.8455642E+00
   1.7382813E-04   3.9939805E+05   -1.8450720E+00
   1.7463089E-04   3.9601756E+05   -1.8445789E+00
   1.7543735E-04   3.9266658E+05   -1.8440849E+00
   1.7624754E-04   3.8934483E+05   -1.8435901E+00
   1.7706147E-04   3.8605207E+05   -1.8430944E+00
   1.7787916E-04   3.8278803E+05   -1.8425978E+00
   1.7870062E-04   3.7955246E+05   -1.8421004E+00
   1.7952588E-04   3.7634510E+05   -1.8416022E+00
   1.8035495E-04   3.7316570E+05   -1.8411031E+00
   1.8118785E-04   3.7001401E+05   -1.8406032E+00
   1.8202459E-04   3.6688978E+05   -1.8401025E+00
   1.8286520E-04   3.6379278E+05   -1.8396009E+00
   1.8370969E-04   3.6072275E+05   -1.8390985E+00
   1.8455808E-04   3.5767946E+05   -1.8385953E+00
   1.8541039E-04   3.5466267E+05   -1.8380912E+00
   1.8626663E-04   3.5167214E+05   -1.8375863E+00
   1.8712683E-04   3.4870763E+05   -1.8370806E+00
   1.8799100E-04   3.4576893E+05   -1.8365741E+00
   1.8885917E-04   3.4285579E+05   -1.8360668E+00
   1.8973134E-04   3.3996799E+05   -1.8355587E+00
   1.9060754E-04   3.3710530E+05   -1.8350498E+00
   1.9148778E-04   3.3426750E+05   -1.8345401E+00
   1.9237209E-04   3.3145437E+05   -1.8340295E+00
   1.9326049E-04   3.2866569E+05   -1.8335182E+00
   1.9415299E-04   3.2590123E+05   -1.8330061E+00
   1.9504960E-04   3.2316080E+05   -1.8324933E+00
   1.9595036E-04   3.2044416E+05   -1.8319796E+00
   1.9685528E-04   3.1775112E+05   -1.8314652E+00
   1.9776438E-04   3.1508146E+05   -1.8309499E+00
   1.9867768E-04   3.1243496E+05   -1.8304340E+00
   1.9959519E-04   3.0981144E+05   -1.8299172E+00
   2.0051694E-04   3.0721067E+05   -1.8293997E+00
   2.0144295E-04   3.0463247E+05   -1.8288814E+00
   2.0237324E-04   3.0207662E+05   -1.8283624E+00
   2.0330782E-04   2.9954293E+05   -1.8278427E+00
   2.0424671E-04   2.9703121E+05   -1.8273221E+00
   2.0518995E-04   2.9454125E+05   -1.8268009E+00
   2.0613754E-04   2.9207287E+05   -1.8262789E+00
   2.0708950E-04   2.8962588E+05   -1.8257561E+00
   2.0804586E-04   2.8720007E+05   -1.8252327E+00
   2.0900664E-04   2.8479528E+05   -1.8247085E+00
   2.0997185E-04   2.8241130E+05   -1.8241836E+00
   2.1094152E-04   2.8004795E+05   -1.8236579E+00
   2.1191567E-04   2.7770505E+05   -1.8231316E+00
   2.1289432E-04   2.7538243E+05   -1.8226045E+00
   2.1387749E-04   2.7307989E+05   -1.8220768E+00
   2.1486520E-04   2.7079726E+05   -1.8215483E+00
   2.1585747E-04   2.6853437E+05   -1.8210191E+00
   2.1685432E-04   2.6629104E+05   -1.8204893E+00
   2.1785578E-04   2.6406709E+05   -1.8199587E+00
   2.1886186E-04   2.6186236E+05   -1.8194275E+00
   2.1987259E-04   2.5967667E+05   -1.8188956E+00
   2.2088798E-04   2.5750985E+05   -1.8183630E+00
   2.2190807E-04   2.5536175E+05   -1.8178298E+00
   2.2293286E-04   2.5323218E+05   -1.8172958E+00
   2.2396239E-04   2.5112100E+05   -1.8167612E+00
   2.2499667E-04   2.4902802E+05   -1.8162260E+00
   2.2603573E-04   2.4695310E+05   -1.8156901E+00
   2.2707958E-04   2.4489608E+05   -1.8151535E+00
   2.2812826E-04   2.4285678E+05   -1.8146163E+00
   2.2918178E-04   2.4083507E+05   -1.8140785E+00
   2.3024017E-04   2.3883078E+05   -1.8135400E+00
   2.3130344E-04   2.3684376E+05   -1.8130009E+00
   2.3237162E-04   2.3487385E+05   -1.8124612E+00
   2.3344474E-04   2.3292091E+05   -1.8119208E+00
   2.3452281E-04   2.3098478E+05   -1.8113799E+00
   2.3560586E-04   2.2906531E+05   -1.8108383E+00
   2.3669392E-04   2.2716236E+05   -1.8102961E+00
   2.3778699E-04   2.2527579E+05   -1.8097533E+00
   2.3888512E-04   2.2340544E+05   -1.8092099E+00
   2.3998831E-04   2.2155118E+05   -1.8086659E+00
   2.4109661E-04   2.1971285E+05   -1.8081213E+00
   2.4221001E-04   2.1789033E+05   -1.8075762E+00
   2.4332857E-04   2.1608347E+05   -1.8070304E+00
   2.4445228E-04   2.1429213E+05   -1.8064841E+00
   2.4558119E-04   2.1251618E+05   -1.8059372E+00
   2.4671531E-04   2.1075547E+05   -1.8053898E+00
   2.4785467E-04   2.0900988E+05   -1.8048418E+00
   2.4899928E-04   2.0727927E+05   -1.8042932E+00
   2.5014919E-04   2.0556352E+05   -1.8037441E+00
   2.5130440E-04   2.0386248E+05   -1.8031944E+00
   2.5246495E-04   2.0217603E+05   -1.8026442E+00
   2.5363086E-04   2.0050403E+05   -1.8020935E+00
   2.5480216E-04   1.9884637E+05   -1.8015423E+00
   2.5597886E-04   1.9720292E+05   -1.8009905E+00
   2.5716100E-04   1.9557355E+05   -1.8004382E+00
   2.5834859E-04   1.9395813E+05   -1.7998853E+00
   2.5954168E-04   1.9235654E+05   -1.7993320E+00
   2.6074027E-04   1.9076867E+05   -1.7987782E+00
   2.6194439E-04   1.8919439E+05   -1.7982239E+00
   2.6315408E-04   1.8763358E+05   -1.7976690E+00
   2.6436935E-04   1.8608612E+05   -1.7971137E+00
   2.6559024E-04   1.8455190E+05   -1.7965579E+00
   2.6681676E-04   1.8303079E+05   -1.7960017E+00
   2.6804895E-04   1.8152269E+05   -1.7954449E+00
   2.6928683E-04   1.8002747E+05   -1.7948877E+00
   2.7053042E-04   1.7854503E+05   -1.7943300E+00
   2.7177976E-04   1.7707525E+05   -1.7937719E+00
   2.7303487E-04   1.7561803E+05   -1.7932133E+00
   2.7429577E-04   1.7417324E+05   -1.7926543E+00
   2.7556250E-04   1.7274079E+05   -1.7920948E+00
   2.7683507E-04   1.7132055E+05   -1.7915349E+00
   2.7811353E-04   1.6991244E+05   -1.7909746E+00
   2.7939788E-04   1.6851633E+05   -1.7904138E+00
   2.8068817E-04   1.6713212E+05   -1.7898527E+00
   2.8198442E-04   1.6575972E+05   -1.7892911E+00
   2.8328665E-04   1.6439900E+05   -1.7887291E+00
   2.8459490E-04   1.6304989E+05   -1.7881667E+00
   2.8590919E-04   1.6171226E+05   -1.7876039E+00
   2.8722955E-04   1.6038602E+05   -1.7870407E+00
   2.8855600E-04   1.5907107E+05   -1.7864771E+00
   2.8988859E-04   1.5776731E+05   -1.7859132E+00
   2.9122732E-04   1.5647465E+05   -1.7853489E+00
   2.9257224E-04   1.5519297E+05   -1.7847842E+00
   2.9392337E-04   1.5392220E+05   -1.7842191E+00
   2.9528074E-04   1.5266223E+05   -1.7836537E+00
   2.9664438E-04   1.5141297E+05   -1.7830880E+00
   2.9801431E-04   1.5017433E+05   -1.7825218E+00
   2.9939057E-04   1.4894620E+05   -1.7819554E+00
   3.0077319E-04   1.4772851E+05   -1.7813886E+00
   3.0216219E-04   1.4652115E+05   -1.7808215E+00
   3.0355761E-04   1.4532404E+05   -1.7802541E+00
   3.0495947E-04   1.4413708E+05   -1.7796863E+00
   3.0636780E-04   1.4296020E+05   -1.7791183E+00
   3.0778264E-04   1.4179330E+05   -1.7785499E+00
   3.0920401E-04   1.4063629E+05   -1.7779812E+00
   3.1063195E-04   1.3948908E+05   -1.7774123E+00
   3.1206648E-04   1.3835160E+05   -1.7768430E+00
   3.1350764E-04   1.3722375E+05   -1.7762735E+00
   3.1495545E-04   1.3610546E+05   -1.7757037E+00
   3.1640994E-04   1.3499663E+05   -1.7751336E+00
   3.1787116E-04   1.3389719E+05   -1.7745633E+00
   3.1933912E-04   1.3280705E+05   -1.7739927E+00
   3.2081386E-04   1.3172613E+05   -1.7734218E+00
   3.2229541E-04   1.3065435E+05   -1.7728507E+00
   3.2378381E-04   1.2959164E+05   -1.7722794E+00
   3.2527908E-04   1.2853791E+05   -1.7717078E+00
   3.2678125E-04   1.2749308E+05   -1.7711360E+00
   3.2829036E-04   1.2645708E+05   -1.7705639E+00
   3.2980644E-04   1.2542982E+05   -1.7699917E+00
   3.3132952E-04   1.2441124E+05   -1.7694192E+00
   3.3285963E-04   1.2340126E+05   -1.7688466E+00
   3.3439681E-04   1.2239980E+05   -1.7682737E+00
   3.3594109E-04   1.2140678E+05   -1.7677006E+00
   3.3749250E-04   1.2042215E+05   -1.7671274E+00
   3.3905108E-04   1.1944581E+05   -1.7665540E+00
   3.4061685E-04   1.1847770E+05   -1.7659803E+00
   3.4218986E-04   1.1751775E+05   -1.7654066E+00
   3.4377013E-04   1.1656588E+05   -1.7648326E+00
   3.4535769E-04   1.1562203E+05   -1.7642585E+00
   3.4695259E-04   1.1468613E+05   -1.7636843E+00
   3.4855485E-04   1.1375810E+05   -1.7631099E+00
   3.5016452E-04   1.1283788E+05   -1.7625354E+00
   3.5178161E-04   1.1192540E+05   -1.7619607E+00
   3.5340618E-04   1.1102059E+05   -1.7613859E+00
   3.5503824E-04   1.1012339E+05   -1.7608110E+00
   3.5667785E-04   1.0923373E+05   -1.7602360E+00
   3.5832502E-04   1.0835155E+05   -1.7596608E+00
   3.5997981E-04   1.0747677E+05   -1.7590856E+00
   3.6164223E-04   1.0660934E+05   -1.7585102E+00
   3.6331233E-04   1.0574919E+05   -1.7579348E+00
   3.6499015E-04   1.0489626E+05   -1.7573593E+00
   3.6667571E-04   1.0405048E+05   -1.7567837E+00
   3.6836906E-04   1.0321180E+05   -1.7562080E+00
   3.7007022E-04   1.0238015E+05   -1.7556323E+00
   3.7177925E-04   1.0155547E+05   -1.7550565E+00
   3.7349616E-04   1.0073770E+05   -1.7544806E+00
   3.7522101E-04   9.9926777E+04   -1.7539047E+00
   3.7695382E-04   9.9122648E+04   -1.7533288E+00
   3.7869463E-04   9.8325250E+04   -1.7527528E+00
   3.8044348E-04   9.7534526E+04   -1.7521768E+00
   3.8220041E-04   9.6750417E+04   -1.7516008E+00
   3.8396545E-04   9.5972867E+04   -1.7510247E+00
   3.8573864E-04   9.5201819E+04   -1.7504487E+00
   3.8752002E-04   9.4437215E+04   -1.7498726E+00
   3.8930963E-04   9.3679001E+04   -1.7492965E+00
   3.9110750E-04   9.2927122E+04   -1.7487205E+00
   3.9291368E-04   9.2181521E+04   -1.7481444E+00
   3.9472820E-04   9.1442146E+04   -1.7475684E+00
   3.9655109E-04   9.0708942E+04   -1.7469924E+00
   3.9838241E-04   8.9981855E+04   -1.7464164E+00
   4.0022218E-04   8.9260834E+04   -1.7458405E+00
   4.0207045E-04   8.8545825E+04   -1.7452646E+00
   4.0392725E-04   8.7836777E+04   -1.7446887E+00
   4.0579263E-04   8.7133637E+04   -1.7441129E+00
   4.0766662E-04   8.6436356E+04   -1.7435372E+00
   4.0954927E-04   8.5744882E+04   -1.7429616E+00
   4.1144061E-04   8.5059165E+04   -1.7423860E+00
   4.1334068E-04   8.4379156E+04   -1.7418105E+00
   4.1524953E-04   8.3704805E+04   -1.7412350E+00
   4.1716720E-04   8.3036063E+04   -1.7406597E+00
   4.1909372E-04   8.2372883E+04   -1.7400845E+00
   4.2102914E-04   8.1715216E+04   -1.7395094E+00
   4.2297350E-04   8.1063014E+04   -1.7389343E+00
   4.2492683E-04   8.0416231E+04   -1.7383594E+00
   4.2688919E-04   7.9774820E+04   -1.7377847E+00
   4.2886061E-04   7.9138734E+04   -1.7372100E+00
   4.3084113E-04   7.8507928E+04   -1.7366355E+00
   4.3283080E-04   7.7882356E+04   -1.7360611E+00
   4.3482966E-04   7.7261974E+04   -1.7354869E+00
   4.3683775E-04   7.6646735E+04   -1.7349128E+00
   4.3885511E-04   7.6036598E+04   -1.7343389E+00
   4.4088179E-04   7.5431516E+04   -1.7337652E+00
   4.4291783E-04   7.4831447E+04   -1.7331916E+00
   4.4496327E-04   7.4236348E+04   -1.7326182E+00
   4.4701816E-04   7.3646176E+04   -1.7320449E+00
   4.4908253E-04   7.3060889E+04   -1.7314719E+00
   4.5115644E-04   7.2480445E+04   -1.7308991E+00
   4.5323993E-04   7.1904802E+04   -1.7303264E+00
   4.5533304E-04   7.1333919E+04   -1.7297540E+00
   4.5743582E-04   7.0767755E+04   -1.7291818E+00
   4.5954830E-04   7.0206270E+04   -1.7286098E+00
   4.6167054E-04   6.9649423E+04   -1.7280380E+00
   4.6380259E-04   6.9097174E+04   -1.7274665E+00
   4.6594448E-04   6.8549485E+04   -1.7268951E+00
   4.6809626E-04   6.8006316E+04   -1.7263241E+00
   4.7025797E-04   6.7467629E+04   -1.7257533E+00
   4.7242967E-04   6.6933384E+04   -1.7251827E+00
   4.7461140E-04   6.6403545E+04   -1.7246124E+00
   4.7680321E-04   6.5878072E+04   -1.7240423E+00
   4.7900514E-04   6.5356930E+04   -1.7234726E+00
   4.8121723E-04   6.4840080E+04   -1.7229031E+00
   4.8343954E-04   6.4327487E+04   -1.7223339E+00
   4.8567212E-04   6.3819113E+04   -1.7217649E+00
   4.8791500E-04   6.3314923E+04   -1.7211963E+00
   4.9016825E-04   6.2814880E+04   -1.7206280E+00
   4.9243189E-04   6.2318950E+04   -1.7200600E+00
   4.9470600E-04   6.1827097E+04   -1.7194923E+00
   4.9699060E-04   6.1339286E+04   -1.7189249E+00
   4.9928575E-04   6.0855483E+04   -1.7183578E+00
   5.0159151E-04   6.0375654E+04   -1.7177911E+00
   5.0390791E-04   5.9899764E+04   -1.7172247E+00
   5.0623501E-04   5.9427780E+04   -1.7166586E+00
   5.0857286E-04   5.8959669E+04   -1.7160929E+00
   5.1092150E-04   5.8495398E+04   -1.7155275E+00
   5.1328099E-04   5.8034934E+04   -1.7149625E+00
   5.1565137E-04   5.7578245E+04   -1.7143979E+00
   5.1803270E-04   5.7125298E+04   -1.7138336E+00
   5.2042503E-04   5.6676061E+04   -1.7132697E+00
   5.2282841E-04   5.6230503E+04   -1.7127062E+00
   5.2524289E-04   5.5788593E+04   -1.7121431E+00
   5.2766851E-04   5.5350299E+04   -1.7115803E+00
   5.3010534E-04   5.4915591E+04   -1.7110180E+00
   5.3255342E-04   5.4484438E+04   -1.7104561E+00
   5.3501281E-04   5.4056810E+04   -1.7098945E+00
   5.3748356E-04   5.3632677E+04   -1.7093334E+00
   5.3996571E-04   5.3212009E+04   -1.7087727E+00
   5.4245933E-04   5.2794777E+04   -1.7082124E+00
   5.4496446E-04   5.2380952E+04   -1.7076526E+00
   5.4748117E-04   5.1970505E+04   -1.7070932E+00
   5.5000949E-04   5.1563407E+04   -1.7065342E+00
   5.5254949E-04   5.1159629E+04   -1.7059757E+00
   5.5510123E-04   5.0759144E+04   -1.7054176E+00
   5.5766474E-04   5.0361923E+04   -1.7048600E+00
   5.6024010E-04   4.9967939E+04   -1.7043028E+00
   5.6282734E-04   4.9577164E+04   -1.7037462E+00
   5.6542654E-04   4.9189572E+04   -1.7031899E+00
   5.6803774E-04   4.8805134E+04   -1.7026342E+00
   5.7066099E-04   4.8423825E+04   -1.7020790E+00
   5.7329637E-04   4.8045619E+04   -1.7015242E+00
   5.7594391E-04   4.7670487E+04   -1.7009699E+00
   5.7860368E-04   4.7298406E+04   -1.7004162E+00
   5.8127573E-04   4.6929349E+04   -1.6998629E+00
   5.8396012E-04   4.6563290E+04   -1.6993101E+00
   5.8665691E-04   4.6200203E+04   -1.6987579E+00
   5.8936616E-04   4.5840065E+04   -1.6982062E+00
   5.9208791E-04   4.5482849E+04   -1.6976550E+00
   5.9482223E-04   4.5128532E+04   -1.6971043E+00
   5.9756919E-04   4.4777088E+04   -1.6965542E+00
   6.0032882E-04   4.4428494E+04   -1.6960046E+00
   6.0310120E-04   4.4082725E+04   -1.6954555E+00
   6.0588639E-04   4.3739758E+04   -1.6949071E+00
   6.0868443E-04   4.3399569E+04   -1.6943591E+00
   6.1149540E-04   4.3062134E+04   -1.6938117E+00
   6.1431935E-04   4.2727431E+04   -1.6932649E+00
   6.1715634E-04   4.2395436E+04   -1.6927187E+00
   6.2000644E-04   4.2066126E+04   -1.6921730E+00
   6.2286969E-04   4.1739479E+04   -1.6916279E+00
