#        a       HoverH0(a)       dlogHdloga_of_a(a)
   1.0000000E-04   1.1449917E+06   -1.9049102E+00
   1.0046181E-04   1.1349872E+06   -1.9045548E+00
   1.0092575E-04   1.1250720E+06   -1.9041985E+00
   1.0139184E-04   1.1152452E+06   -1.9038411E+00
   1.0186008E-04   1.1055061E+06   -1.9034828E+00
   1.0233048E-04   1.0958539E+06   -1.9031234E+00
   1.0280305E-04   1.0862877E+06   -1.9027630E+00
   1.0327781E-04   1.0768068E+06   -1.9024016E+00
   1.0375475E-04   1.0674104E+06   -1.9020392E+00
   1.0423390E-04   1.0580978E+06   -1.9016757E+00
   1.0471527E-04   1.0488682E+06   -1.9013112E+00
   1.0519885E-04   1.0397209E+06   -1.9009458E+00
   1.0568467E-04   1.0306551E+06   -1.9005793E+00
   1.0617274E-04   1.0216700E+06   -1.9002117E+00
   1.0666305E-04   1.0127650E+06   -1.8998432E+00
   1.0715563E-04   1.0039393E+06   -1.8994736E+00
   1.0765049E-04   9.9519228E+05   -1.8991031E+00
   1.0814763E-04   9.8652312E+05   -1.8987315E+00
   1.0864707E-04   9.7793114E+05   -1.8983589E+00
   1.0914881E-04   9.6941566E+05   -1.8979852E+00
   1.0965287E-04   9.6097599E+05   -1.8976106E+00
   1.1015926E-04   9.5261144E+05   -1.8972349E+00
   1.1066799E-04   9.4432134E+05   -1.8968582E+00
   1.1117906E-04   9.3610500E+05   -1.8964805E+00
   1.1169250E-04   9.2796177E+05   -1.8961017E+00
   1.1220831E-04   9.1989099E+05   -1.8957220E+00
   1.1272650E-04   9.1189200E+05   -1.8953412E+00
   1.1324708E-04   9.0396415E+05   -1.8949594E+00
   1.1377007E-04   8.9610681E+05   -1.8945765E+00
   1.1429547E-04   8.8831933E+05   -1.8941927E+00
   1.1482330E-04   8.8060109E+05   -1.8938078E+00
   1.1535356E-04   8.7295146E+05   -1.8934219E+00
   1.1588628E-04   8.6536982E+05   -1.8930350E+00
   1.1642145E-04   8.5785555E+05   -1.8926471E+00
   1.1695910E-04   8.5040806E+05   -1.8922581E+00
   1.1749923E-04   8.4302674E+05   -1.8918681E+00
   1.1804185E-04   8.3571098E+05   -1.8914771E+00
   1.1858698E-04   8.2846021E+05   -1.8910851E+00
   1.1913463E-04   8.2127383E+05   -1.8906921E+00
   1.1968481E-04   8.1415127E+05   -1.8902980E+00
   1.2023752E-04   8.0709194E+05   -1.8899029E+00
   1.2079279E-04   8.0009528E+05   -1.8895068E+00
   1.2135063E-04   7.9316073E+05   -1.8891097E+00
   1.2191104E-04   7.8628772E+05   -1.8887116E+00
   1.2247403E-04   7.7947570E+05   -1.8883124E+00
   1.2303963E-04   7.7272412E+05   -1.8879122E+00
   1.2360784E-04   7.6603243E+05   -1.8875110E+00
   1.2417868E-04   7.5940009E+05   -1.8871088E+00
   1.2475215E-04   7.5282658E+05   -1.8867056E+00
   1.2532826E-04   7.4631136E+05   -1.8863013E+00
   1.2590704E-04   7.3985389E+05   -1.8858961E+00
   1.2648850E-04   7.3345368E+05   -1.8854898E+00
   1.2707263E-04   7.2711019E+05   -1.8850825E+00
   1.2765947E-04   7.2082292E+05   -1.8846742E+00
   1.2824901E-04   7.1459137E+05   -1.8842648E+00
   1.2884128E-04   7.0841502E+05   -1.8838545E+00
   1.2943628E-04   7.0229339E+05   -1.8834431E+00
   1.3003403E-04   6.9622598E+05   -1.8830308E+00
   1.3063454E-04   6.9021229E+05   -1.8826174E+00
   1.3123783E-04   6.8425186E+05   -1.8822030E+00
   1.3184390E-04   6.7834420E+05   -1.8817876E+00
   1.3245277E-04   6.7248882E+05   -1.8813711E+00
   1.3306445E-04   6.6668528E+05   -1.8809537E+00
   1.3367895E-04   6.6093309E+05   -1.8805353E+00
   1.3429630E-04   6.5523179E+05   -1.8801158E+00
   1.3491649E-04   6.4958093E+05   -1.8796954E+00
   1.3553955E-04   6.4398006E+05   -1.8792739E+00
   1.3616548E-04   6.3842871E+05   -1.8788515E+00
   1.3679431E-04   6.3292646E+05   -1.8784280E+00
   1.3742604E-04   6.2747286E+05   -1.8780035E+00
   1.3806069E-04   6.2206746E+05   -1.8775780E+00
   1.3869827E-04   6.1670984E+05   -1.8771516E+00
   1.3933879E-04   6.1139956E+05   -1.8767241E+00
   1.3998227E-04   6.0613620E+05   -1.8762956E+00
   1.4062872E-04   6.0091935E+05   -1.8758661E+00
   1.4127816E-04   5.9574857E+05   -1.8754357E+00
   1.4193060E-04   5.9062346E+05   -1.8750042E+00
   1.4258605E-04   5.8554360E+05   -1.8745717E+00
   1.4324453E-04   5.8050859E+05   -1.8741383E+00
   1.4390605E-04   5.7551803E+05   -1.8737038E+00
   1.4457062E-04   5.7057152E+05   -1.8732684E+00
   1.4523826E-04   5.6566866E+05   -1.8728319E+00
   1.4590899E-04   5.6080905E+05   -1.8723945E+00
   1.4658281E-04   5.5599232E+05   -1.8719561E+00
   1.4725974E-04   5.5121807E+05   -1.8715167E+00
   1.4793981E-04   5.4648593E+05   -1.8710763E+00
   1.4862301E-04   5.4179551E+05   -1.8706349E+00
   1.4930936E-04   5.3714644E+05   -1.8701926E+00
   1.4999889E-04   5.3253835E+05   -1.8697493E+00
   1.5069160E-04   5.2797087E+05   -1.8693049E+00
   1.5138751E-04   5.2344364E+05   -1.8688597E+00
   1.5208663E-04   5.1895629E+05   -1.8684134E+00
   1.5278899E-04   5.1450848E+05   -1.8679661E+00
   1.5349458E-04   5.1009983E+05   -1.8675179E+00
   1.5420343E-04   5.0573001E+05   -1.8670687E+00
   1.5491556E-04   5.0139866E+05   -1.8666186E+00
   1.5563098E-04   4.9710544E+05   -1.8661674E+00
   1.5634970E-04   4.9285001E+05   -1.8657154E+00
   1.5707174E-04   4.8863202E+05   -1.8652623E+00
   1.5779711E-04   4.8445115E+05   -1.8648083E+00
   1.5852584E-04   4.8030705E+05   -1.8643533E+00
   1.5925792E-04   4.7619940E+05   -1.8638973E+00
   1.5999339E-04   4.7212787E+05   -1.8634404E+00
   1.6073226E-04   4.6809215E+05   -1.8629826E+00
   1.6147454E-04   4.6409189E+05   -1.8625238E+00
   1.6222024E-04   4.6012680E+05   -1.8620640E+00
   1.6296939E-04   4.5619656E+05   -1.8616033E+00
   1.6372200E-04   4.5230084E+05   -1.8611416E+00
   1.6447809E-04   4.4843935E+05   -1.8606790E+00
   1.6523767E-04   4.4461177E+05   -1.8602154E+00
   1.6600075E-04   4.4081781E+05   -1.8597509E+00
   1.6676736E-04   4.3705716E+05   -1.8592855E+00
   1.6753751E-04   4.3332951E+05   -1.8588191E+00
   1.6831122E-04   4.2963459E+05   -1.8583518E+00
   1.6908849E-04   4.2597209E+05   -1.8578835E+00
   1.6986936E-04   4.2234172E+05   -1.8574143E+00
   1.7065384E-04   4.1874320E+05   -1.8569442E+00
   1.7144193E-04   4.1517624E+05   -1.8564732E+00
   1.7223367E-04   4.1164056E+05   -1.8560012E+00
   1.7302906E-04   4.0813588E+05   -1.8555283E+00
   1.7382813E-04   4.0466192E+05   -1.8550545E+00
   1.7463089E-04   4.0121841E+05   -1.8545798E+00
   1.7543735E-04   3.9780507E+05   -1.8541041E+00
   1.7624754E-04   3.9442163E+05   -1.8536276E+00
   1.7706147E-04   3.9106783E+05   -1.8531501E+00
   1.7787916E-04   3.8774340E+05   -1.8526717E+00
   1.7870062E-04   3.8444808E+05   -1.8521924E+00
   1.7952588E-04   3.8118161E+05   -1.8517122E+00
   1.8035495E-04   3.7794373E+05   -1.8512311E+00
   1.8118785E-04   3.7473418E+05   -1.8507491E+00
   1.8202459E-04   3.7155272E+05   -1.8502663E+00
   1.8286520E-04   3.6839909E+05   -1.8497825E+00
   1.8370969E-04   3.6527304E+05   -1.8492978E+00
   1.8455808E-04   3.6217432E+05   -1.8488122E+00
   1.8541039E-04   3.5910270E+05   -1.8483258E+00
   1.8626663E-04   3.5605792E+05   -1.8478385E+00
   1.8712683E-04   3.5303976E+05   -1.8473503E+00
   1.8799100E-04   3.5004796E+05   -1.8468612E+00
   1.8885917E-04   3.4708231E+05   -1.8463712E+00
   1.8973134E-04   3.4414255E+05   -1.8458804E+00
   1.9060754E-04   3.4122847E+05   -1.8453887E+00
   1.9148778E-04   3.3833983E+05   -1.8448961E+00
   1.9237209E-04   3.3547641E+05   -1.8444027E+00
   1.9326049E-04   3.3263798E+05   -1.8439084E+00
   1.9415299E-04   3.2982431E+05   -1.8434133E+00
   1.9504960E-04   3.2703519E+05   -1.8429173E+00
   1.9595036E-04   3.2427040E+05   -1.8424204E+00
   1.9685528E-04   3.2152972E+05   -1.8419227E+00
   1.9776438E-04   3.1881293E+05   -1.8414242E+00
   1.9867768E-04   3.1611983E+05   -1.8409248E+00
   1.9959519E-04   3.1345020E+05   -1.8404246E+00
   2.0051694E-04   3.1080383E+05   -1.8399235E+00
   2.0144295E-04   3.0818051E+05   -1.8394217E+00
   2.0237324E-04   3.0558005E+05   -1.8389189E+00
   2.0330782E-04   3.0300223E+05   -1.8384154E+00
   2.0424671E-04   3.0044685E+05   -1.8379110E+00
   2.0518995E-04   2.9791372E+05   -1.8374059E+00
   2.0613754E-04   2.9540263E+05   -1.8368999E+00
   2.0708950E-04   2.9291339E+05   -1.8363931E+00
   2.0804586E-04   2.9044580E+05   -1.8358855E+00
   2.0900664E-04   2.8799968E+05   -1.8353770E+00
   2.0997185E-04   2.8557483E+05   -1.8348678E+00
   2.1094152E-04   2.8317106E+05   -1.8343578E+00
   2.1191567E-04   2.8078818E+05   -1.8338470E+00
   2.1289432E-04   2.7842601E+05   -1.8333354E+00
   2.1387749E-04   2.7608437E+05   -1.8328230E+00
   2.1486520E-04   2.7376306E+05   -1.8323098E+00
   2.1585747E-04   2.7146192E+05   -1.8317959E+00
   2.1685432E-04   2.6918075E+05   -1.8312812E+00
   2.1785578E-04   2.6691939E+05   -1.8307657E+00
   2.1886186E-04   2.6467765E+05   -1.8302494E+00
   2.1987259E-04   2.6245537E+05   -1.8297324E+00
   2.2088798E-04   2.6025237E+05   -1.8292146E+00
   2.2190807E-04   2.5806847E+05   -1.8286961E+00
   2.2293286E-04   2.5590351E+05   -1.8281768E+00
   2.2396239E-04   2.5375732E+05   -1.8276567E+00
   2.2499667E-04   2.5162974E+05   -1.8271359E+00
   2.2603573E-04   2.4952059E+05   -1.8266144E+00
   2.2707958E-04   2.4742971E+05   -1.8260921E+00
   2.2812826E-04   2.4535695E+05   -1.8255691E+00
   2.2918178E-04   2.4330214E+05   -1.8250454E+00
   2.3024017E-04   2.4126511E+05   -1.8245209E+00
   2.3130344E-04   2.3924572E+05   -1.8239957E+00
   2.3237162E-04   2.3724381E+05   -1.8234698E+00
   2.3344474E-04   2.3525922E+05   -1.8229432E+00
   2.3452281E-04   2.3329180E+05   -1.8224159E+00
   2.3560586E-04   2.3134139E+05   -1.8218879E+00
   2.3669392E-04   2.2940785E+05   -1.8213591E+00
   2.3778699E-04   2.2749103E+05   -1.8208297E+00
   2.3888512E-04   2.2559077E+05   -1.8202996E+00
   2.3998831E-04   2.2370693E+05   -1.8197688E+00
   2.4109661E-04   2.2183936E+05   -1.8192373E+00
   2.4221001E-04   2.1998792E+05   -1.8187051E+00
   2.4332857E-04   2.1815247E+05   -1.8181723E+00
   2.4445228E-04   2.1633287E+05   -1.8176388E+00
   2.4558119E-04   2.1452897E+05   -1.8171046E+00
   2.4671531E-04   2.1274064E+05   -1.8165698E+00
   2.4785467E-04   2.1096773E+05   -1.8160343E+00
   2.4899928E-04   2.0921012E+05   -1.8154981E+00
   2.5014919E-04   2.0746766E+05   -1.8149613E+00
   2.5130440E-04   2.0574023E+05   -1.8144239E+00
   2.5246495E-04   2.0402768E+05   -1.8138858E+00
   2.5363086E-04   2.0232989E+05   -1.8133471E+00
   2.5480216E-04   2.0064672E+05   -1.8128078E+00
   2.5597886E-04   1.9897806E+05   -1.8122678E+00
   2.5716100E-04   1.9732376E+05   -1.8117272E+00
   2.5834859E-04   1.9568370E+05   -1.8111860E+00
   2.5954168E-04   1.9405776E+05   -1.8106442E+00
   2.6074027E-04   1.9244580E+05   -1.8101018E+00
   2.6194439E-04   1.9084772E+05   -1.8095587E+00
   2.6315408E-04   1.8926338E+05   -1.8090151E+00
   2.6436935E-04   1.8769266E+05   -1.8084709E+00
   2.6559024E-04   1.8613545E+05   -1.8079261E+00
   2.6681676E-04   1.8459162E+05   -1.8073807E+00
   2.6804895E-04   1.8306105E+05   -1.8068348E+00
   2.6928683E-04   1.8154363E+05   -1.8062882E+00
   2.7053042E-04   1.8003925E+05   -1.8057411E+00
   2.7177976E-04   1.7854778E+05   -1.8051935E+00
   2.7303487E-04   1.7706911E+05   -1.8046453E+00
   2.7429577E-04   1.7560313E+05   -1.8040965E+00
   2.7556250E-04   1.7414973E+05   -1.8035472E+00
   2.7683507E-04   1.7270880E+05   -1.8029973E+00
   2.7811353E-04   1.7128022E+05   -1.8024469E+00
   2.7939788E-04   1.6986389E+05   -1.8018959E+00
   2.8068817E-04   1.6845970E+05   -1.8013445E+00
   2.8198442E-04   1.6706754E+05   -1.8007925E+00
   2.8328665E-04   1.6568731E+05   -1.8002400E+00
   2.8459490E-04   1.6431890E+05   -1.7996870E+00
   2.8590919E-04   1.6296221E+05   -1.7991335E+00
   2.8722955E-04   1.6161713E+05   -1.7985794E+00
   2.8855600E-04   1.6028356E+05   -1.7980249E+00
   2.8988859E-04   1.5896140E+05   -1.7974699E+00
   2.9122732E-04   1.5765056E+05   -1.7969144E+00
   2.9257224E-04   1.5635092E+05   -1.7963584E+00
   2.9392337E-04   1.5506239E+05   -1.7958019E+00
   2.9528074E-04   1.5378488E+05   -1.7952450E+00
   2.9664438E-04   1.5251828E+05   -1.7946876E+00
   2.9801431E-04   1.5126251E+05   -1.7941298E+00
   2.9939057E-04   1.5001746E+05   -1.7935715E+00
   3.0077319E-04   1.4878304E+05   -1.7930127E+00
   3.0216219E-04   1.4755916E+05   -1.7924535E+00
   3.0355761E-04   1.4634572E+05   -1.7918939E+00
   3.0495947E-04   1.4514263E+05   -1.7913338E+00
   3.0636780E-04   1.4394981E+05   -1.7907733E+00
   3.0778264E-04   1.4276716E+05   -1.7902124E+00
   3.0920401E-04   1.4159459E+05   -1.7896510E+00
   3.1063195E-04   1.4043202E+05   -1.7890893E+00
   3.1206648E-04   1.3927935E+05   -1.7885271E+00
   3.1350764E-04   1.3813650E+05   -1.7879646E+00
   3.1495545E-04   1.3700338E+05   -1.7874016E+00
   3.1640994E-04   1.3587992E+05   -1.7868383E+00
   3.1787116E-04   1.3476601E+05   -1.7862745E+00
   3.1933912E-04   1.3366158E+05   -1.7857104E+00
   3.2081386E-04   1.3256655E+05   -1.7851460E+00
   3.2229541E-04   1.3148083E+05   -1.7845811E+00
   3.2378381E-04   1.3040434E+05   -1.7840159E+00
   3.2527908E-04   1.2933701E+05   -1.7834504E+00
   3.2678125E-04   1.2827874E+05   -1.7828845E+00
   3.2829036E-04   1.2722947E+05   -1.7823182E+00
   3.2980644E-04   1.2618910E+05   -1.7817516E+00
   3.3132952E-04   1.2515757E+05   -1.7811847E+00
   3.3285963E-04   1.2413480E+05   -1.7806175E+00
   3.3439681E-04   1.2312071E+05   -1.7800499E+00
   3.3594109E-04   1.2211522E+05   -1.7794820E+00
   3.3749250E-04   1.2111826E+05   -1.7789138E+00
   3.3905108E-04   1.2012975E+05   -1.7783453E+00
   3.4061685E-04   1.1914962E+05   -1.7777765E+00
   3.4218986E-04   1.1817780E+05   -1.7772075E+00
   3.4377013E-04   1.1721422E+05   -1.7766381E+00
   3.4535769E-04   1.1625879E+05   -1.7760684E+00
   3.4695259E-04   1.1531146E+05   -1.7754985E+00
   3.4855485E-04   1.1437214E+05   -1.7749283E+00
   3.5016452E-04   1.1344078E+05   -1.7743579E+00
   3.5178161E-04   1.1251729E+05   -1.7737871E+00
   3.5340618E-04   1.1160162E+05   -1.7732162E+00
   3.5503824E-04   1.1069369E+05   -1.7726450E+00
   3.5667785E-04   1.0979343E+05   -1.7720735E+00
   3.5832502E-04   1.0890079E+05   -1.7715018E+00
   3.5997981E-04   1.0801568E+05   -1.7709299E+00
   3.6164223E-04   1.0713806E+05   -1.7703578E+00
   3.6331233E-04   1.0626784E+05   -1.7697854E+00
   3.6499015E-04   1.0540497E+05   -1.7692129E+00
   3.6667571E-04   1.0454938E+05   -1.7686401E+00
   3.6836906E-04   1.0370101E+05   -1.7680672E+00
   3.7007022E-04   1.0285979E+05   -1.7674940E+00
   3.7177925E-04   1.0202567E+05   -1.7669207E+00
   3.7349616E-04   1.0119858E+05   -1.7663472E+00
   3.7522101E-04   1.0037846E+05   -1.7657735E+00
   3.7695382E-04   9.9565253E+04   -1.7651996E+00
   3.7869463E-04   9.8758892E+04   -1.7646256E+00
   3.8044348E-04   9.7959321E+04   -1.7640514E+00
   3.8220041E-04   9.7166481E+04   -1.7634771E+00
   3.8396545E-04   9.6380313E+04   -1.7629026E+00
   3.8573864E-04   9.5600759E+04   -1.7623280E+00
   3.8752002E-04   9.4827760E+04   -1.7617533E+00
   3.8930963E-04   9.4061262E+04   -1.7611784E+00
   3.9110750E-04   9.3301206E+04   -1.7606034E+00
   3.9291368E-04   9.2547537E+04   -1.7600283E+00
   3.9472820E-04   9.1800199E+04   -1.7594531E+00
   3.9655109E-04   9.1059137E+04   -1.7588778E+00
   3.9838241E-04   9.0324297E+04   -1.7583024E+00
   4.0022218E-04   8.9595624E+04   -1.7577269E+00
   4.0207045E-04   8.8873066E+04   -1.7571514E+00
   4.0392725E-04   8.8156569E+04   -1.7565757E+00
   4.0579263E-04   8.7446080E+04   -1.7560000E+00
   4.0766662E-04   8.6741548E+04   -1.7554242E+00
   4.0954927E-04   8.6042920E+04   -1.7548484E+00
   4.1144061E-04   8.5350145E+04   -1.7542725E+00
   4.1334068E-04   8.4663173E+04   -1.7536965E+00
   4.1524953E-04   8.3981953E+04   -1.7531205E+00
   4.1716720E-04   8.3306435E+04   -1.7525445E+00
   4.1909372E-04   8.2636570E+04   -1.7519685E+00
   4.2102914E-04   8.1972309E+04   -1.7513924E+00
   4.2297350E-04   8.1313603E+04   -1.7508163E+00
   4.2492683E-04   8.0660405E+04   -1.7502402E+00
   4.2688919E-04   8.0012667E+04   -1.7496641E+00
   4.2886061E-04   7.9370340E+04   -1.7490880E+00
   4.3084113E-04   7.8733380E+04   -1.7485120E+00
   4.3283080E-04   7.8101738E+04   -1.7479359E+00
   4.3482966E-04   7.7475369E+04   -1.7473598E+00
   4.3683775E-04   7.6854228E+04   -1.7467838E+00
   4.3885511E-04   7.6238268E+04   -1.7462078E+00
   4.4088179E-04   7.5627446E+04   -1.7456319E+00
   4.4291783E-04   7.5021717E+04   -1.7450560E+00
   4.4496327E-04   7.4421037E+04   -1.7444801E+00
   4.4701816E-04   7.3825363E+04   -1.7439043E+00
   4.4908253E-04   7.3234650E+04   -1.7433286E+00
   4.5115644E-04   7.2648857E+04   -1.7427529E+00
   4.5323993E-04   7.2067941E+04   -1.7421773E+00
   4.5533304E-04   7.1491859E+04   -1.7416018E+00
   4.5743582E-04   7.0920571E+04   -1.7410264E+00
   4.5954830E-04   7.0354034E+04   -1.7404511E+00
   4.6167054E-04   6.9792208E+04   -1.7398759E+00
   4.6380259E-04   6.9235051E+04   -1.7393007E+00
   4.6594448E-04   6.8682525E+04   -1.7387257E+00
   4.6809626E-04   6.8134588E+04   -1.7381508E+00
   4.7025797E-04   6.7591202E+04   -1.7375761E+00
   4.7242967E-04   6.7052327E+04   -1.7370014E+00
   4.7461140E-04   6.6517924E+04   -1.7364270E+00
   4.7680321E-04   6.5987955E+04   -1.7358526E+00
   4.7900514E-04   6.5462382E+04   -1.7352784E+00
   4.8121723E-04   6.4941167E+04   -1.7347043E+00
   4.8343954E-04   6.4424272E+04   -1.7341304E+00
   4.8567212E-04   6.3911660E+04   -1.7335567E+00
   4.8791500E-04   6.3403294E+04   -1.7329832E+00
   4.9016825E-04   6.2899138E+04   -1.7324098E+00
   4.9243189E-04   6.2399156E+04   -1.7318366E+00
   4.9470600E-04   6.1903312E+04   -1.7312636E+00
   4.9699060E-04   6.1411570E+04   -1.7306908E+00
   4.9928575E-04   6.0923894E+04   -1.7301182E+00
   5.0159151E-04   6.0440251E+04   -1.7295458E+00
   5.0390791E-04   5.9960606E+04   -1.7289736E+00
   5.0623501E-04   5.9484923E+04   -1.7284017E+00
   5.0857286E-04   5.9013170E+04   -1.7278300E+00
   5.1092150E-04   5.8545313E+04   -1.7272585E+00
   5.1328099E-04   5.8081317E+04   -1.7266872E+00
   5.1565137E-04   5.7621151E+04   -1.7261162E+00
   5.1803270E-04   5.7164780E+04   -1.7255454E+00
   5.2042503E-04   5.6712174E+04   -1.7249749E+00
   5.2282841E-04   5.6263298E+04   -1.7244047E+00
   5.2524289E-04   5.5818122E+04   -1.7238347E+00
   5.2766851E-04   5.5376614E+04   -1.7232650E+00
   5.3010534E-04   5.4938743E+04   -1.7226955E+00
   5.3255342E-04   5.4504476E+04   -1.7221264E+00
   5.3501281E-04   5.4073784E+04   -1.7215575E+00
   5.3748356E-04   5.3646636E+04   -1.7209890E+00
   5.3996571E-04   5.3223001E+04   -1.7204207E+00
   5.4245933E-04   5.2802850E+04   -1.7198528E+00
   5.4496446E-04   5.2386153E+04   -1.7192852E+00
   5.4748117E-04   5.1972881E+04   -1.7187178E+00
   5.5000949E-04   5.1563003E+04   -1.7181509E+00
   5.5254949E-04   5.1156491E+04   -1.7175842E+00
   5.5510123E-04   5.0753317E+04   -1.7170179E+00
   5.5766474E-04   5.0353451E+04   -1.7164519E+00
   5.6024010E-04   4.9956866E+04   -1.7158863E+00
   5.6282734E-04   4.9563533E+04   -1.7153210E+00
   5.6542654E-04   4.9173426E+04   -1.7147561E+00
   5.6803774E-04   4.8786516E+04   -1.7141915E+00
   5.7066099E-04   4.8402776E+04   -1.7136274E+00
   5.7329637E-04   4.8022179E+04   -1.7130636E+00
   5.7594391E-04   4.7644699E+04   -1.7125001E+00
   5.7860368E-04   4.7270309E+04   -1.7119371E+00
   5.8127573E-04   4.6898982E+04   -1.7113745E+00
   5.8396012E-04   4.6530693E+04   -1.7108122E+00
   5.8665691E-04   4.6165415E+04   -1.7102504E+00
   5.8936616E-04   4.5803123E+04   -1.7096890E+00
   5.9208791E-04   4.5443792E+04   -1.7091280E+00
   5.9482223E-04   4.5087397E+04   -1.7085674E+00
   5.9756919E-04   4.4733912E+04   -1.7080072E+00
   6.0032882E-04   4.4383313E+04   -1.7074475E+00
   6.0310120E-04   4.4035575E+04   -1.7068882E+00
   6.0588639E-04   4.3690674E+04   -1.7063293E+00
   6.0868443E-04   4.3348586E+04   -1.7057709E+00
   6.1149540E-04   4.3009287E+04   -1.7052130E+00
   6.1431935E-04   4.2672754E+04   -1.7046555E+00
   6.1715634E-04   4.2338963E+04   -1.7040984E+00
   6.2000644E-04   4.2007890E+04   -1.7035419E+00
   6.2286969E-04   4.1679513E+04   -1.7029858E+00
