#        a       HoverH0(a)       dlogHdloga_of_a(a)
   1.0000000E-04   1.0645527E+06   -1.8637228E+00
   1.0046181E-04   1.0554515E+06   -1.8632655E+00
   1.0092575E-04   1.0464304E+06   -1.8628073E+00
   1.0139184E-04   1.0374886E+06   -1.8623482E+00
   1.0186008E-04   1.0286254E+06   -1.8618881E+00
   1.0233048E-04   1.0198400E+06   -1.8614270E+00
   1.0280305E-04   1.0111319E+06   -1.8609650E+00
   1.0327781E-04   1.0025002E+06   -1.8605020E+00
   1.0375475E-04   9.9394437E+05   -1.8600381E+00
   1.0423390E-04   9.8546364E+05   -1.8595733E+00
   1.0471527E-04   9.7705737E+05   -1.8591075E+00
   1.0519885E-04   9.6872488E+05   -1.8586408E+00
   1.0568467E-04   9.6046553E+05   -1.8581731E+00
   1.0617274E-04   9.5227864E+05   -1.8577046E+00
   1.0666305E-04   9.4416358E+05   -1.8572350E+00
   1.0715563E-04   9.3611971E+05   -1.8567646E+00
   1.0765049E-04   9.2814638E+05   -1.8562932E+00
   1.0814763E-04   9.2024296E+05   -1.8558209E+00
   1.0864707E-04   9.1240883E+05   -1.8553477E+00
   1.0914881E-04   9.0464336E+05   -1.8548736E+00
   1.0965287E-04   8.9694595E+05   -1.8543985E+00
   1.1015926E-04   8.8931598E+05   -1.8539225E+00
   1.1066799E-04   8.8175285E+05   -1.8534456E+00
   1.1117906E-04   8.7425597E+05   -1.8529679E+00
   1.1169250E-04   8.6682473E+05   -1.8524892E+00
   1.1220831E-04   8.5945856E+05   -1.8520095E+00
   1.1272650E-04   8.5215687E+05   -1.8515290E+00
   1.1324708E-04   8.4491909E+05   -1.8510476E+00
   1.1377007E-04   8.3774464E+05   -1.8505653E+00
   1.1429547E-04   8.3063296E+05   -1.8500821E+00
   1.1482330E-04   8.2358348E+05   -1.8495980E+00
   1.1535356E-04   8.1659566E+05   -1.8491130E+00
   1.1588628E-04   8.0966894E+05   -1.8486272E+00
   1.1642145E-04   8.0280277E+05   -1.8481404E+00
   1.1695910E-04   7.9599661E+05   -1.8476528E+00
   1.1749923E-04   7.8924993E+05   -1.8471642E+00
   1.1804185E-04   7.8256220E+05   -1.8466749E+00
   1.1858698E-04   7.7593289E+05   -1.8461846E+00
   1.1913463E-04   7.6936147E+05   -1.8456935E+00
   1.1968481E-04   7.6284744E+05   -1.8452015E+00
   1.2023752E-04   7.5639027E+05   -1.8447086E+00
   1.2079279E-04   7.4998947E+05   -1.8442149E+00
   1.2135063E-04   7.4364453E+05   -1.8437203E+00
   1.2191104E-04   7.3735495E+05   -1.8432248E+00
   1.2247403E-04   7.3112023E+05   -1.8427285E+00
   1.2303963E-04   7.2493989E+05   -1.8422314E+00
   1.2360784E-04   7.1881344E+05   -1.8417334E+00
   1.2417868E-04   7.1274040E+05   -1.8412346E+00
   1.2475215E-04   7.0672030E+05   -1.8407349E+00
   1.2532826E-04   7.0075266E+05   -1.8402344E+00
   1.2590704E-04   6.9483702E+05   -1.8397331E+00
   1.2648850E-04   6.8897290E+05   -1.8392309E+00
   1.2707263E-04   6.8315986E+05   -1.8387279E+00
   1.2765947E-04   6.7739744E+05   -1.8382241E+00
   1.2824901E-04   6.7168519E+05   -1.8377194E+00
   1.2884128E-04   6.6602265E+05   -1.8372140E+00
   1.2943628E-04   6.6040939E+05   -1.8367077E+00
   1.3003403E-04   6.5484497E+05   -1.8362006E+00
   1.3063454E-04   6.4932895E+05   -1.8356928E+00
   1.3123783E-04   6.4386090E+05   -1.8351841E+00
   1.3184390E-04   6.3844039E+05   -1.8346746E+00
   1.3245277E-04   6.3306701E+05   -1.8341643E+00
   1.3306445E-04   6.2774033E+05   -1.8336532E+00
   1.3367895E-04   6.2245993E+05   -1.8331414E+00
   1.3429630E-04   6.1722541E+05   -1.8326287E+00
   1.3491649E-04   6.1203635E+05   -1.8321153E+00
   1.3553955E-04   6.0689236E+05   -1.8316011E+00
   1.3616548E-04   6.0179302E+05   -1.8310861E+00
   1.3679431E-04   5.9673795E+05   -1.8305703E+00
   1.3742604E-04   5.9172675E+05   -1.8300538E+00
   1.3806069E-04   5.8675903E+05   -1.8295365E+00
   1.3869827E-04   5.8183441E+05   -1.8290185E+00
   1.3933879E-04   5.7695249E+05   -1.8284997E+00
   1.3998227E-04   5.7211290E+05   -1.8279801E+00
   1.4062872E-04   5.6731527E+05   -1.8274599E+00
   1.4127816E-04   5.6255922E+05   -1.8269388E+00
   1.4193060E-04   5.5784438E+05   -1.8264170E+00
   1.4258605E-04   5.5317039E+05   -1.8258945E+00
   1.4324453E-04   5.4853688E+05   -1.8253713E+00
   1.4390605E-04   5.4394349E+05   -1.8248473E+00
   1.4457062E-04   5.3938988E+05   -1.8243226E+00
   1.4523826E-04   5.3487567E+05   -1.8237972E+00
   1.4590899E-04   5.3040054E+05   -1.8232711E+00
   1.4658281E-04   5.2596412E+05   -1.8227442E+00
   1.4725974E-04   5.2156607E+05   -1.8222167E+00
   1.4793981E-04   5.1720606E+05   -1.8216884E+00
   1.4862301E-04   5.1288374E+05   -1.8211595E+00
   1.4930936E-04   5.0859879E+05   -1.8206298E+00
   1.4999889E-04   5.0435087E+05   -1.8200995E+00
   1.5069160E-04   5.0013965E+05   -1.8195685E+00
   1.5138751E-04   4.9596480E+05   -1.8190368E+00
   1.5208663E-04   4.9182601E+05   -1.8185044E+00
   1.5278899E-04   4.8772296E+05   -1.8179713E+00
   1.5349458E-04   4.8365532E+05   -1.8174376E+00
   1.5420343E-04   4.7962279E+05   -1.8169032E+00
   1.5491556E-04   4.7562506E+05   -1.8163682E+00
   1.5563098E-04   4.7166180E+05   -1.8158325E+00
   1.5634970E-04   4.6773273E+05   -1.8152961E+00
   1.5707174E-04   4.6383754E+05   -1.8147591E+00
   1.5779711E-04   4.5997592E+05   -1.8142215E+00
   1.5852584E-04   4.5614758E+05   -1.8136832E+00
   1.5925792E-04   4.5235223E+05   -1.8131443E+00
   1.5999339E-04   4.4858957E+05   -1.8126048E+00
   1.6073226E-04   4.4485931E+05   -1.8120646E+00
   1.6147454E-04   4.4116118E+05   -1.8115239E+00
   1.6222024E-04   4.3749487E+05   -1.8109825E+00
   1.6296939E-04   4.3386012E+05   -1.8104405E+00
   1.6372200E-04   4.3025664E+05   -1.8098979E+00
   1.6447809E-04   4.2668416E+05   -1.8093547E+00
   1.6523767E-04   4.2314240E+05   -1.8088109E+00
   1.6600075E-04   4.1963109E+05   -1.8082665E+00
   1.6676736E-04   4.1614997E+05   -1.8077215E+00
   1.6753751E-04   4.1269875E+05   -1.8071760E+00
   1.6831122E-04   4.0927719E+05   -1.8066298E+00
   1.6908849E-04   4.0588502E+05   -1.8060831E+00
   1.6986936E-04   4.0252198E+05   -1.8055359E+00
   1.7065384E-04   3.9918781E+05   -1.8049880E+00
   1.7144193E-04   3.9588225E+05   -1.8044397E+00
   1.7223367E-04   3.9260506E+05   -1.8038907E+00
   1.7302906E-04   3.8935599E+05   -1.8033413E+00
   1.7382813E-04   3.8613478E+05   -1.8027912E+00
   1.7463089E-04   3.8294120E+05   -1.8022407E+00
   1.7543735E-04   3.7977499E+05   -1.8016896E+00
   1.7624754E-04   3.7663591E+05   -1.8011380E+00
   1.7706147E-04   3.7352373E+05   -1.8005859E+00
   1.7787916E-04   3.7043821E+05   -1.8000332E+00
   1.7870062E-04   3.6737912E+05   -1.7994801E+00
   1.7952588E-04   3.6434621E+05   -1.7989264E+00
   1.8035495E-04   3.6133927E+05   -1.7983722E+00
   1.8118785E-04   3.5835806E+05   -1.7978176E+00
   1.8202459E-04   3.5540235E+05   -1.7972624E+00
   1.8286520E-04   3.5247192E+05   -1.7967068E+00
   1.8370969E-04   3.4956655E+05   -1.7961507E+00
   1.8455808E-04   3.4668602E+05   -1.7955941E+00
   1.8541039E-04   3.4383011E+05   -1.7950371E+00
   1.8626663E-04   3.4099860E+05   -1.7944796E+00
   1.8712683E-04   3.3819127E+05   -1.7939216E+00
   1.8799100E-04   3.3540792E+05   -1.7933632E+00
   1.8885917E-04   3.3264834E+05   -1.7928043E+00
   1.8973134E-04   3.2991230E+05   -1.7922450E+00
   1.9060754E-04   3.2719962E+05   -1.7916853E+00
   1.9148778E-04   3.2451008E+05   -1.7911251E+00
   1.9237209E-04   3.2184347E+05   -1.7905645E+00
   1.9326049E-04   3.1919960E+05   -1.7900035E+00
   1.9415299E-04   3.1657827E+05   -1.7894420E+00
   1.9504960E-04   3.1397928E+05   -1.7888802E+00
   1.9595036E-04   3.1140244E+05   -1.7883180E+00
   1.9685528E-04   3.0884754E+05   -1.7877553E+00
   1.9776438E-04   3.0631440E+05   -1.7871923E+00
   1.9867768E-04   3.0380282E+05   -1.7866289E+00
   1.9959519E-04   3.0131262E+05   -1.7860651E+00
   2.0051694E-04   2.9884361E+05   -1.7855009E+00
   2.0144295E-04   2.9639560E+05   -1.7849363E+00
   2.0237324E-04   2.9396840E+05   -1.7843714E+00
   2.0330782E-04   2.9156184E+05   -1.7838062E+00
   2.0424671E-04   2.8917574E+05   -1.7832405E+00
   2.0518995E-04   2.8680991E+05   -1.7826746E+00
   2.0613754E-04   2.8446418E+05   -1.7821083E+00
   2.0708950E-04   2.8213837E+05   -1.7815416E+00
   2.0804586E-04   2.7983231E+05   -1.7809747E+00
   2.0900664E-04   2.7754582E+05   -1.7804074E+00
   2.0997185E-04   2.7527874E+05   -1.7798397E+00
   2.1094152E-04   2.7303089E+05   -1.7792718E+00
   2.1191567E-04   2.7080210E+05   -1.7787036E+00
   2.1289432E-04   2.6859221E+05   -1.7781350E+00
   2.1387749E-04   2.6640105E+05   -1.7775662E+00
   2.1486520E-04   2.6422845E+05   -1.7769971E+00
   2.1585747E-04   2.6207427E+05   -1.7764277E+00
   2.1685432E-04   2.5993833E+05   -1.7758580E+00
   2.1785578E-04   2.5782047E+05   -1.7752880E+00
   2.1886186E-04   2.5572054E+05   -1.7747178E+00
   2.1987259E-04   2.5363838E+05   -1.7741473E+00
   2.2088798E-04   2.5157384E+05   -1.7735766E+00
   2.2190807E-04   2.4952675E+05   -1.7730056E+00
   2.2293286E-04   2.4749698E+05   -1.7724344E+00
   2.2396239E-04   2.4548436E+05   -1.7718629E+00
   2.2499667E-04   2.4348875E+05   -1.7712912E+00
   2.2603573E-04   2.4151000E+05   -1.7707193E+00
   2.2707958E-04   2.3954797E+05   -1.7701472E+00
   2.2812826E-04   2.3760249E+05   -1.7695748E+00
   2.2918178E-04   2.3567344E+05   -1.7690023E+00
   2.3024017E-04   2.3376067E+05   -1.7684295E+00
   2.3130344E-04   2.3186404E+05   -1.7678566E+00
   2.3237162E-04   2.2998340E+05   -1.7672834E+00
   2.3344474E-04   2.2811861E+05   -1.7667101E+00
   2.3452281E-04   2.2626955E+05   -1.7661366E+00
   2.3560586E-04   2.2443606E+05   -1.7655629E+00
   2.3669392E-04   2.2261802E+05   -1.7649891E+00
   2.3778699E-04   2.2081530E+05   -1.7644151E+00
   2.3888512E-04   2.1902775E+05   -1.7638410E+00
   2.3998831E-04   2.1725524E+05   -1.7632667E+00
   2.4109661E-04   2.1549765E+05   -1.7626922E+00
   2.4221001E-04   2.1375484E+05   -1.7621177E+00
   2.4332857E-04   2.1202669E+05   -1.7615430E+00
   2.4445228E-04   2.1031307E+05   -1.7609681E+00
   2.4558119E-04   2.0861385E+05   -1.7603932E+00
   2.4671531E-04   2.0692891E+05   -1.7598181E+00
   2.4785467E-04   2.0525812E+05   -1.7592430E+00
   2.4899928E-04   2.0360136E+05   -1.7586677E+00
   2.5014919E-04   2.0195851E+05   -1.7580924E+00
   2.5130440E-04   2.0032945E+05   -1.7575170E+00
   2.5246495E-04   1.9871405E+05   -1.7569414E+00
   2.5363086E-04   1.9711220E+05   -1.7563659E+00
   2.5480216E-04   1.9552379E+05   -1.7557902E+00
   2.5597886E-04   1.9394868E+05   -1.7552145E+00
   2.5716100E-04   1.9238678E+05   -1.7546387E+00
   2.5834859E-04   1.9083796E+05   -1.7540629E+00
   2.5954168E-04   1.8930212E+05   -1.7534870E+00
   2.6074027E-04   1.8777913E+05   -1.7529111E+00
   2.6194439E-04   1.8626888E+05   -1.7523352E+00
   2.6315408E-04   1.8477128E+05   -1.7517592E+00
   2.6436935E-04   1.8328620E+05   -1.7511833E+00
   2.6559024E-04   1.8181354E+05   -1.7506073E+00
   2.6681676E-04   1.8035320E+05   -1.7500313E+00
   2.6804895E-04   1.7890505E+05   -1.7494553E+00
   2.6928683E-04   1.7746901E+05   -1.7488793E+00
   2.7053042E-04   1.7604496E+05   -1.7483033E+00
   2.7177976E-04   1.7463280E+05   -1.7477274E+00
   2.7303487E-04   1.7323242E+05   -1.7471514E+00
   2.7429577E-04   1.7184374E+05   -1.7465755E+00
   2.7556250E-04   1.7046663E+05   -1.7459996E+00
   2.7683507E-04   1.6910101E+05   -1.7454238E+00
   2.7811353E-04   1.6774678E+05   -1.7448480E+00
   2.7939788E-04   1.6640383E+05   -1.7442723E+00
   2.8068817E-04   1.6507208E+05   -1.7436966E+00
   2.8198442E-04   1.6375141E+05   -1.7431210E+00
   2.8328665E-04   1.6244174E+05   -1.7425455E+00
   2.8459490E-04   1.6114298E+05   -1.7419700E+00
   2.8590919E-04   1.5985502E+05   -1.7413947E+00
   2.8722955E-04   1.5857778E+05   -1.7408194E+00
   2.8855600E-04   1.5731116E+05   -1.7402442E+00
   2.8988859E-04   1.5605506E+05   -1.7396691E+00
   2.9122732E-04   1.5480941E+05   -1.7390942E+00
   2.9257224E-04   1.5357411E+05   -1.7385193E+00
   2.9392337E-04   1.5234907E+05   -1.7379446E+00
   2.9528074E-04   1.5113420E+05   -1.7373700E+00
   2.9664438E-04   1.4992942E+05   -1.7367955E+00
   2.9801431E-04   1.4873463E+05   -1.7362212E+00
   2.9939057E-04   1.4754975E+05   -1.7356470E+00
   3.0077319E-04   1.4637471E+05   -1.7350730E+00
   3.0216219E-04   1.4520940E+05   -1.7344991E+00
   3.0355761E-04   1.4405375E+05   -1.7339254E+00
   3.0495947E-04   1.4290768E+05   -1.7333518E+00
   3.0636780E-04   1.4177109E+05   -1.7327784E+00
   3.0778264E-04   1.4064392E+05   -1.7322053E+00
   3.0920401E-04   1.3952608E+05   -1.7316323E+00
   3.1063195E-04   1.3841749E+05   -1.7310594E+00
   3.1206648E-04   1.3731807E+05   -1.7304868E+00
   3.1350764E-04   1.3622775E+05   -1.7299144E+00
   3.1495545E-04   1.3514643E+05   -1.7293422E+00
   3.1640994E-04   1.3407405E+05   -1.7287703E+00
   3.1787116E-04   1.3301054E+05   -1.7281985E+00
   3.1933912E-04   1.3195580E+05   -1.7276270E+00
   3.2081386E-04   1.3090978E+05   -1.7270557E+00
   3.2229541E-04   1.2987238E+05   -1.7264847E+00
   3.2378381E-04   1.2884355E+05   -1.7259139E+00
   3.2527908E-04   1.2782320E+05   -1.7253433E+00
   3.2678125E-04   1.2681127E+05   -1.7247730E+00
   3.2829036E-04   1.2580768E+05   -1.7242030E+00
   3.2980644E-04   1.2481236E+05   -1.7236333E+00
   3.3132952E-04   1.2382524E+05   -1.7230638E+00
   3.3285963E-04   1.2284625E+05   -1.7224946E+00
   3.3439681E-04   1.2187531E+05   -1.7219257E+00
   3.3594109E-04   1.2091237E+05   -1.7213571E+00
   3.3749250E-04   1.1995735E+05   -1.7207888E+00
   3.3905108E-04   1.1901019E+05   -1.7202208E+00
   3.4061685E-04   1.1807081E+05   -1.7196531E+00
   3.4218986E-04   1.1713916E+05   -1.7190857E+00
   3.4377013E-04   1.1621516E+05   -1.7185186E+00
   3.4535769E-04   1.1529875E+05   -1.7179519E+00
   3.4695259E-04   1.1438986E+05   -1.7173855E+00
   3.4855485E-04   1.1348843E+05   -1.7168194E+00
   3.5016452E-04   1.1259441E+05   -1.7162537E+00
   3.5178161E-04   1.1170771E+05   -1.7156884E+00
   3.5340618E-04   1.1082829E+05   -1.7151234E+00
   3.5503824E-04   1.0995607E+05   -1.7145587E+00
   3.5667785E-04   1.0909101E+05   -1.7139945E+00
   3.5832502E-04   1.0823303E+05   -1.7134306E+00
   3.5997981E-04   1.0738208E+05   -1.7128670E+00
   3.6164223E-04   1.0653809E+05   -1.7123039E+00
   3.6331233E-04   1.0570102E+05   -1.7117412E+00
   3.6499015E-04   1.0487079E+05   -1.7111788E+00
   3.6667571E-04   1.0404735E+05   -1.7106169E+00
   3.6836906E-04   1.0323065E+05   -1.7100553E+00
   3.7007022E-04   1.0242062E+05   -1.7094942E+00
   3.7177925E-04   1.0161720E+05   -1.7089335E+00
   3.7349616E-04   1.0082036E+05   -1.7083732E+00
   3.7522101E-04   1.0003001E+05   -1.7078134E+00
   3.7695382E-04   9.9246124E+04   -1.7072539E+00
   3.7869463E-04   9.8468631E+04   -1.7066950E+00
   3.8044348E-04   9.7697480E+04   -1.7061364E+00
   3.8220041E-04   9.6932618E+04   -1.7055783E+00
   3.8396545E-04   9.6173991E+04   -1.7050207E+00
   3.8573864E-04   9.5421546E+04   -1.7044635E+00
   3.8752002E-04   9.4675231E+04   -1.7039068E+00
   3.8930963E-04   9.3934994E+04   -1.7033506E+00
   3.9110750E-04   9.3200783E+04   -1.7027949E+00
   3.9291368E-04   9.2472548E+04   -1.7022396E+00
   3.9472820E-04   9.1750237E+04   -1.7016848E+00
   3.9655109E-04   9.1033801E+04   -1.7011305E+00
   3.9838241E-04   9.0323190E+04   -1.7005767E+00
   4.0022218E-04   8.9618355E+04   -1.7000234E+00
   4.0207045E-04   8.8919246E+04   -1.6994707E+00
   4.0392725E-04   8.8225816E+04   -1.6989184E+00
   4.0579263E-04   8.7538016E+04   -1.6983667E+00
   4.0766662E-04   8.6855799E+04   -1.6978154E+00
   4.0954927E-04   8.6179117E+04   -1.6972647E+00
   4.1144061E-04   8.5507924E+04   -1.6967146E+00
   4.1334068E-04   8.4842174E+04   -1.6961650E+00
   4.1524953E-04   8.4181820E+04   -1.6956159E+00
   4.1716720E-04   8.3526817E+04   -1.6950674E+00
   4.1909372E-04   8.2877120E+04   -1.6945194E+00
   4.2102914E-04   8.2232683E+04   -1.6939720E+00
   4.2297350E-04   8.1593464E+04   -1.6934251E+00
   4.2492683E-04   8.0959417E+04   -1.6928789E+00
   4.2688919E-04   8.0330499E+04   -1.6923332E+00
   4.2886061E-04   7.9706668E+04   -1.6917880E+00
   4.3084113E-04   7.9087879E+04   -1.6912435E+00
   4.3283080E-04   7.8474091E+04   -1.6906995E+00
   4.3482966E-04   7.7865262E+04   -1.6901562E+00
   4.3683775E-04   7.7261349E+04   -1.6896134E+00
   4.3885511E-04   7.6662312E+04   -1.6890713E+00
   4.4088179E-04   7.6068110E+04   -1.6885297E+00
   4.4291783E-04   7.5478701E+04   -1.6879888E+00
   4.4496327E-04   7.4894045E+04   -1.6874484E+00
   4.4701816E-04   7.4314104E+04   -1.6869087E+00
   4.4908253E-04   7.3738836E+04   -1.6863697E+00
   4.5115644E-04   7.3168203E+04   -1.6858312E+00
   4.5323993E-04   7.2602166E+04   -1.6852934E+00
   4.5533304E-04   7.2040687E+04   -1.6847563E+00
   4.5743582E-04   7.1483726E+04   -1.6842197E+00
   4.5954830E-04   7.0931247E+04   -1.6836839E+00
   4.6167054E-04   7.0383212E+04   -1.6831486E+00
   4.6380259E-04   6.9839582E+04   -1.6826141E+00
   4.6594448E-04   6.9300323E+04   -1.6820802E+00
   4.6809626E-04   6.8765396E+04   -1.6815470E+00
   4.7025797E-04   6.8234765E+04   -1.6810144E+00
   4.7242967E-04   6.7708396E+04   -1.6804825E+00
   4.7461140E-04   6.7186251E+04   -1.6799513E+00
   4.7680321E-04   6.6668296E+04   -1.6794208E+00
   4.7900514E-04   6.6154496E+04   -1.6788910E+00
   4.8121723E-04   6.5644815E+04   -1.6783618E+00
   4.8343954E-04   6.5139221E+04   -1.6778334E+00
   4.8567212E-04   6.4637677E+04   -1.6773056E+00
   4.8791500E-04   6.4140151E+04   -1.6767786E+00
   4.9016825E-04   6.3646609E+04   -1.6762523E+00
   4.9243189E-04   6.3157018E+04   -1.6757267E+00
   4.9470600E-04   6.2671345E+04   -1.6752018E+00
   4.9699060E-04   6.2189556E+04   -1.6746776E+00
   4.9928575E-04   6.1711620E+04   -1.6741542E+00
   5.0159151E-04   6.1237505E+04   -1.6736314E+00
   5.0390791E-04   6.0767179E+04   -1.6731095E+00
   5.0623501E-04   6.0300610E+04   -1.6725882E+00
   5.0857286E-04   5.9837766E+04   -1.6720677E+00
   5.1092150E-04   5.9378618E+04   -1.6715480E+00
   5.1328099E-04   5.8923134E+04   -1.6710290E+00
   5.1565137E-04   5.8471283E+04   -1.6705107E+00
   5.1803270E-04   5.8023036E+04   -1.6699932E+00
   5.2042503E-04   5.7578363E+04   -1.6694765E+00
   5.2282841E-04   5.7137233E+04   -1.6689605E+00
   5.2524289E-04   5.6699618E+04   -1.6684453E+00
   5.2766851E-04   5.6265487E+04   -1.6679309E+00
   5.3010534E-04   5.5834813E+04   -1.6674173E+00
   5.3255342E-04   5.5407567E+04   -1.6669044E+00
   5.3501281E-04   5.4983719E+04   -1.6663923E+00
   5.3748356E-04   5.4563243E+04   -1.6658810E+00
   5.3996571E-04   5.4146109E+04   -1.6653705E+00
   5.4245933E-04   5.3732291E+04   -1.6648608E+00
   5.4496446E-04   5.3321761E+04   -1.6643519E+00
   5.4748117E-04   5.2914491E+04   -1.6638438E+00
   5.5000949E-04   5.2510454E+04   -1.6633365E+00
   5.5254949E-04   5.2109625E+04   -1.6628300E+00
   5.5510123E-04   5.1711976E+04   -1.6623243E+00
   5.5766474E-04   5.1317480E+04   -1.6618194E+00
   5.6024010E-04   5.0926113E+04   -1.6613154E+00
   5.6282734E-04   5.0537847E+04   -1.6608122E+00
   5.6542654E-04   5.0152658E+04   -1.6603098E+00
   5.6803774E-04   4.9770520E+04   -1.6598082E+00
   5.7066099E-04   4.9391407E+04   -1.6593074E+00
   5.7329637E-04   4.9015295E+04   -1.6588075E+00
   5.7594391E-04   4.8642159E+04   -1.6583085E+00
   5.7860368E-04   4.8271975E+04   -1.6578102E+00
   5.8127573E-04   4.7904718E+04   -1.6573129E+00
   5.8396012E-04   4.7540364E+04   -1.6568163E+00
   5.8665691E-04   4.7178889E+04   -1.6563206E+00
   5.8936616E-04   4.6820269E+04   -1.6558258E+00
   5.9208791E-04   4.6464481E+04   -1.6553318E+00
   5.9482223E-04   4.6111502E+04   -1.6548387E+00
   5.9756919E-04   4.5761308E+04   -1.6543465E+00
   6.0032882E-04   4.5413876E+04   -1.6538551E+00
   6.0310120E-04   4.5069184E+04   -1.6533646E+00
   6.0588639E-04   4.4727209E+04   -1.6528749E+00
   6.0868443E-04   4.4387929E+04   -1.6523862E+00
   6.1149540E-04   4.4051322E+04   -1.6518983E+00
   6.1431935E-04   4.3717366E+04   -1.6514113E+00
   6.1715634E-04   4.3386039E+04   -1.6509251E+00
   6.2000644E-04   4.3057319E+04   -1.6504399E+00
   6.2286969E-04   4.2731185E+04   -1.6499555E+00
