#        a       HoverH0(a)       dlogHdloga_of_a(a)
   1.0000000E-04   1.1636251E+06   -1.8543311E+00
   1.0046181E-04   1.1537269E+06   -1.8538550E+00
   1.0092575E-04   1.1439155E+06   -1.8533780E+00
   1.0139184E-04   1.1341900E+06   -1.8529001E+00
   1.0186008E-04   1.1245497E+06   -1.8524213E+00
   1.0233048E-04   1.1149937E+06   -1.8519415E+00
   1.0280305E-04   1.1055214E+06   -1.8514609E+00
   1.0327781E-04   1.0961320E+06   -1.8509794E+00
   1.0375475E-04   1.0868248E+06   -1.8504969E+00
   1.0423390E-04   1.0775990E+06   -1.8500136E+00
   1.0471527E-04   1.0684539E+06   -1.8495294E+00
   1.0519885E-04   1.0593888E+06   -1.8490443E+00
   1.0568467E-04   1.0504029E+06   -1.8485583E+00
   1.0617274E-04   1.0414956E+06   -1.8480714E+00
   1.0666305E-04   1.0326661E+06   -1.8475837E+00
   1.0715563E-04   1.0239138E+06   -1.8470950E+00
   1.0765049E-04   1.0152380E+06   -1.8466055E+00
   1.0814763E-04   1.0066379E+06   -1.8461151E+00
   1.0864707E-04   9.9811298E+05   -1.8456239E+00
   1.0914881E-04   9.8966247E+05   -1.8451317E+00
   1.0965287E-04   9.8128573E+05   -1.8446388E+00
   1.1015926E-04   9.7298211E+05   -1.8441449E+00
   1.1066799E-04   9.6475095E+05   -1.8436502E+00
   1.1117906E-04   9.5659161E+05   -1.8431547E+00
   1.1169250E-04   9.4850344E+05   -1.8426582E+00
   1.1220831E-04   9.4048581E+05   -1.8421610E+00
   1.1272650E-04   9.3253809E+05   -1.8416629E+00
   1.1324708E-04   9.2465965E+05   -1.8411639E+00
   1.1377007E-04   9.1684989E+05   -1.8406642E+00
   1.1429547E-04   9.0910819E+05   -1.8401635E+00
   1.1482330E-04   9.0143394E+05   -1.8396621E+00
   1.1535356E-04   8.9382653E+05   -1.8391598E+00
   1.1588628E-04   8.8628538E+05   -1.8386567E+00
   1.1642145E-04   8.7880989E+05   -1.8381528E+00
   1.1695910E-04   8.7139948E+05   -1.8376480E+00
   1.1749923E-04   8.6405357E+05   -1.8371424E+00
   1.1804185E-04   8.5677158E+05   -1.8366361E+00
   1.1858698E-04   8.4955294E+05   -1.8361289E+00
   1.1913463E-04   8.4239710E+05   -1.8356209E+00
   1.1968481E-04   8.3530348E+05   -1.8351121E+00
   1.2023752E-04   8.2827154E+05   -1.8346025E+00
   1.2079279E-04   8.2130074E+05   -1.8340921E+00
   1.2135063E-04   8.1439051E+05   -1.8335809E+00
   1.2191104E-04   8.0754033E+05   -1.8330689E+00
   1.2247403E-04   8.0074966E+05   -1.8325562E+00
   1.2303963E-04   7.9401797E+05   -1.8320426E+00
   1.2360784E-04   7.8734474E+05   -1.8315283E+00
   1.2417868E-04   7.8072944E+05   -1.8310132E+00
   1.2475215E-04   7.7417156E+05   -1.8304974E+00
   1.2532826E-04   7.6767059E+05   -1.8299807E+00
   1.2590704E-04   7.6122602E+05   -1.8294634E+00
   1.2648850E-04   7.5483736E+05   -1.8289452E+00
   1.2707263E-04   7.4850410E+05   -1.8284263E+00
   1.2765947E-04   7.4222576E+05   -1.8279067E+00
   1.2824901E-04   7.3600184E+05   -1.8273863E+00
   1.2884128E-04   7.2983187E+05   -1.8268651E+00
   1.2943628E-04   7.2371536E+05   -1.8263433E+00
   1.3003403E-04   7.1765183E+05   -1.8258206E+00
   1.3063454E-04   7.1164082E+05   -1.8252973E+00
   1.3123783E-04   7.0568186E+05   -1.8247732E+00
   1.3184390E-04   6.9977449E+05   -1.8242484E+00
   1.3245277E-04   6.9391826E+05   -1.8237229E+00
   1.3306445E-04   6.8811269E+05   -1.8231967E+00
   1.3367895E-04   6.8235736E+05   -1.8226698E+00
   1.3429630E-04   6.7665180E+05   -1.8221421E+00
   1.3491649E-04   6.7099559E+05   -1.8216138E+00
   1.3553955E-04   6.6538827E+05   -1.8210847E+00
   1.3616548E-04   6.5982943E+05   -1.8205550E+00
   1.3679431E-04   6.5431862E+05   -1.8200246E+00
   1.3742604E-04   6.4885543E+05   -1.8194934E+00
   1.3806069E-04   6.4343942E+05   -1.8189616E+00
   1.3869827E-04   6.3807019E+05   -1.8184292E+00
   1.3933879E-04   6.3274732E+05   -1.8178960E+00
   1.3998227E-04   6.2747039E+05   -1.8173622E+00
   1.4062872E-04   6.2223900E+05   -1.8168278E+00
   1.4127816E-04   6.1705275E+05   -1.8162926E+00
   1.4193060E-04   6.1191123E+05   -1.8157568E+00
   1.4258605E-04   6.0681405E+05   -1.8152204E+00
   1.4324453E-04   6.0176082E+05   -1.8146833E+00
   1.4390605E-04   5.9675115E+05   -1.8141456E+00
   1.4457062E-04   5.9178465E+05   -1.8136072E+00
   1.4523826E-04   5.8686094E+05   -1.8130682E+00
   1.4590899E-04   5.8197965E+05   -1.8125286E+00
   1.4658281E-04   5.7714039E+05   -1.8119884E+00
   1.4725974E-04   5.7234279E+05   -1.8114475E+00
   1.4793981E-04   5.6758650E+05   -1.8109061E+00
   1.4862301E-04   5.6287113E+05   -1.8103640E+00
   1.4930936E-04   5.5819633E+05   -1.8098213E+00
   1.4999889E-04   5.5356174E+05   -1.8092780E+00
   1.5069160E-04   5.4896701E+05   -1.8087341E+00
   1.5138751E-04   5.4441177E+05   -1.8081897E+00
   1.5208663E-04   5.3989570E+05   -1.8076446E+00
   1.5278899E-04   5.3541843E+05   -1.8070990E+00
   1.5349458E-04   5.3097962E+05   -1.8065528E+00
   1.5420343E-04   5.2657894E+05   -1.8060060E+00
   1.5491556E-04   5.2221605E+05   -1.8054587E+00
   1.5563098E-04   5.1789062E+05   -1.8049108E+00
   1.5634970E-04   5.1360231E+05   -1.8043623E+00
   1.5707174E-04   5.0935079E+05   -1.8038133E+00
   1.5779711E-04   5.0513575E+05   -1.8032638E+00
   1.5852584E-04   5.0095685E+05   -1.8027137E+00
   1.5925792E-04   4.9681379E+05   -1.8021631E+00
   1.5999339E-04   4.9270624E+05   -1.8016119E+00
   1.6073226E-04   4.8863389E+05   -1.8010602E+00
   1.6147454E-04   4.8459644E+05   -1.8005080E+00
   1.6222024E-04   4.8059356E+05   -1.7999553E+00
   1.6296939E-04   4.7662497E+05   -1.7994021E+00
   1.6372200E-04   4.7269036E+05   -1.7988484E+00
   1.6447809E-04   4.6878942E+05   -1.7982942E+00
   1.6523767E-04   4.6492186E+05   -1.7977395E+00
   1.6600075E-04   4.6108739E+05   -1.7971842E+00
   1.6676736E-04   4.5728572E+05   -1.7966286E+00
   1.6753751E-04   4.5351655E+05   -1.7960724E+00
   1.6831122E-04   4.4977960E+05   -1.7955158E+00
   1.6908849E-04   4.4607459E+05   -1.7949586E+00
   1.6986936E-04   4.4240123E+05   -1.7944011E+00
   1.7065384E-04   4.3875925E+05   -1.7938431E+00
   1.7144193E-04   4.3514837E+05   -1.7932846E+00
   1.7223367E-04   4.3156832E+05   -1.7927257E+00
   1.7302906E-04   4.2801883E+05   -1.7921663E+00
   1.7382813E-04   4.2449963E+05   -1.7916065E+00
   1.7463089E-04   4.2101044E+05   -1.7910463E+00
   1.7543735E-04   4.1755101E+05   -1.7904856E+00
   1.7624754E-04   4.1412108E+05   -1.7899245E+00
   1.7706147E-04   4.1072039E+05   -1.7893631E+00
   1.7787916E-04   4.0734868E+05   -1.7888012E+00
   1.7870062E-04   4.0400569E+05   -1.7882389E+00
   1.7952588E-04   4.0069117E+05   -1.7876762E+00
   1.8035495E-04   3.9740488E+05   -1.7871131E+00
   1.8118785E-04   3.9414657E+05   -1.7865496E+00
   1.8202459E-04   3.9091598E+05   -1.7859858E+00
   1.8286520E-04   3.8771288E+05   -1.7854216E+00
   1.8370969E-04   3.8453703E+05   -1.7848570E+00
   1.8455808E-04   3.8138818E+05   -1.7842920E+00
   1.8541039E-04   3.7826611E+05   -1.7837267E+00
   1.8626663E-04   3.7517057E+05   -1.7831610E+00
   1.8712683E-04   3.7210133E+05   -1.7825950E+00
   1.8799100E-04   3.6905816E+05   -1.7820287E+00
   1.8885917E-04   3.6604084E+05   -1.7814620E+00
   1.8973134E-04   3.6304913E+05   -1.7808950E+00
   1.9060754E-04   3.6008281E+05   -1.7803277E+00
   1.9148778E-04   3.5714167E+05   -1.7797600E+00
   1.9237209E-04   3.5422548E+05   -1.7791920E+00
   1.9326049E-04   3.5133401E+05   -1.7786238E+00
   1.9415299E-04   3.4846707E+05   -1.7780552E+00
   1.9504960E-04   3.4562442E+05   -1.7774863E+00
   1.9595036E-04   3.4280586E+05   -1.7769172E+00
   1.9685528E-04   3.4001118E+05   -1.7763477E+00
   1.9776438E-04   3.3724016E+05   -1.7757780E+00
   1.9867768E-04   3.3449261E+05   -1.7752080E+00
   1.9959519E-04   3.3176832E+05   -1.7746378E+00
   2.0051694E-04   3.2906707E+05   -1.7740673E+00
   2.0144295E-04   3.2638868E+05   -1.7734965E+00
   2.0237324E-04   3.2373294E+05   -1.7729255E+00
   2.0330782E-04   3.2109966E+05   -1.7723543E+00
   2.0424671E-04   3.1848863E+05   -1.7717828E+00
   2.0518995E-04   3.1589966E+05   -1.7712111E+00
   2.0613754E-04   3.1333257E+05   -1.7706391E+00
   2.0708950E-04   3.1078716E+05   -1.7700670E+00
   2.0804586E-04   3.0826323E+05   -1.7694946E+00
   2.0900664E-04   3.0576062E+05   -1.7689220E+00
   2.0997185E-04   3.0327912E+05   -1.7683492E+00
   2.1094152E-04   3.0081855E+05   -1.7677763E+00
   2.1191567E-04   2.9837873E+05   -1.7672031E+00
   2.1289432E-04   2.9595949E+05   -1.7666298E+00
   2.1387749E-04   2.9356063E+05   -1.7660563E+00
   2.1486520E-04   2.9118199E+05   -1.7654826E+00
   2.1585747E-04   2.8882338E+05   -1.7649087E+00
   2.1685432E-04   2.8648464E+05   -1.7643347E+00
   2.1785578E-04   2.8416558E+05   -1.7637606E+00
   2.1886186E-04   2.8186605E+05   -1.7631862E+00
   2.1987259E-04   2.7958586E+05   -1.7626118E+00
   2.2088798E-04   2.7732485E+05   -1.7620372E+00
   2.2190807E-04   2.7508286E+05   -1.7614625E+00
   2.2293286E-04   2.7285971E+05   -1.7608877E+00
   2.2396239E-04   2.7065525E+05   -1.7603127E+00
   2.2499667E-04   2.6846931E+05   -1.7597377E+00
   2.2603573E-04   2.6630173E+05   -1.7591625E+00
   2.2707958E-04   2.6415235E+05   -1.7585873E+00
   2.2812826E-04   2.6202101E+05   -1.7580119E+00
   2.2918178E-04   2.5990756E+05   -1.7574365E+00
   2.3024017E-04   2.5781184E+05   -1.7568610E+00
   2.3130344E-04   2.5573369E+05   -1.7562854E+00
   2.3237162E-04   2.5367297E+05   -1.7557097E+00
   2.3344474E-04   2.5162952E+05   -1.7551340E+00
   2.3452281E-04   2.4960320E+05   -1.7545583E+00
   2.3560586E-04   2.4759385E+05   -1.7539824E+00
   2.3669392E-04   2.4560133E+05   -1.7534066E+00
   2.3778699E-04   2.4362549E+05   -1.7528307E+00
   2.3888512E-04   2.4166618E+05   -1.7522548E+00
   2.3998831E-04   2.3972327E+05   -1.7516788E+00
   2.4109661E-04   2.3779661E+05   -1.7511028E+00
   2.4221001E-04   2.3588606E+05   -1.7505269E+00
   2.4332857E-04   2.3399148E+05   -1.7499509E+00
   2.4445228E-04   2.3211274E+05   -1.7493749E+00
   2.4558119E-04   2.3024969E+05   -1.7487989E+00
   2.4671531E-04   2.2840220E+05   -1.7482229E+00
   2.4785467E-04   2.2657013E+05   -1.7476470E+00
   2.4899928E-04   2.2475336E+05   -1.7470711E+00
   2.5014919E-04   2.2295175E+05   -1.7464952E+00
   2.5130440E-04   2.2116516E+05   -1.7459193E+00
   2.5246495E-04   2.1939348E+05   -1.7453435E+00
   2.5363086E-04   2.1763656E+05   -1.7447677E+00
   2.5480216E-04   2.1589429E+05   -1.7441920E+00
   2.5597886E-04   2.1416653E+05   -1.7436164E+00
   2.5716100E-04   2.1245316E+05   -1.7430408E+00
   2.5834859E-04   2.1075406E+05   -1.7424653E+00
   2.5954168E-04   2.0906910E+05   -1.7418899E+00
   2.6074027E-04   2.0739816E+05   -1.7413145E+00
   2.6194439E-04   2.0574112E+05   -1.7407393E+00
   2.6315408E-04   2.0409786E+05   -1.7401641E+00
   2.6436935E-04   2.0246827E+05   -1.7395891E+00
   2.6559024E-04   2.0085221E+05   -1.7390141E+00
   2.6681676E-04   1.9924959E+05   -1.7384393E+00
   2.6804895E-04   1.9766027E+05   -1.7378646E+00
   2.6928683E-04   1.9608415E+05   -1.7372900E+00
   2.7053042E-04   1.9452111E+05   -1.7367156E+00
   2.7177976E-04   1.9297105E+05   -1.7361413E+00
   2.7303487E-04   1.9143384E+05   -1.7355671E+00
   2.7429577E-04   1.8990938E+05   -1.7349931E+00
   2.7556250E-04   1.8839756E+05   -1.7344193E+00
   2.7683507E-04   1.8689826E+05   -1.7338456E+00
   2.7811353E-04   1.8541139E+05   -1.7332721E+00
   2.7939788E-04   1.8393683E+05   -1.7326988E+00
   2.8068817E-04   1.8247449E+05   -1.7321256E+00
   2.8198442E-04   1.8102424E+05   -1.7315527E+00
   2.8328665E-04   1.7958600E+05   -1.7309799E+00
   2.8459490E-04   1.7815965E+05   -1.7304073E+00
   2.8590919E-04   1.7674510E+05   -1.7298350E+00
   2.8722955E-04   1.7534224E+05   -1.7292628E+00
   2.8855600E-04   1.7395098E+05   -1.7286909E+00
   2.8988859E-04   1.7257121E+05   -1.7281192E+00
   2.9122732E-04   1.7120283E+05   -1.7275477E+00
   2.9257224E-04   1.6984575E+05   -1.7269765E+00
   2.9392337E-04   1.6849987E+05   -1.7264055E+00
   2.9528074E-04   1.6716510E+05   -1.7258347E+00
   2.9664438E-04   1.6584133E+05   -1.7252642E+00
   2.9801431E-04   1.6452849E+05   -1.7246940E+00
   2.9939057E-04   1.6322646E+05   -1.7241240E+00
   3.0077319E-04   1.6193516E+05   -1.7235543E+00
   3.0216219E-04   1.6065450E+05   -1.7229849E+00
   3.0355761E-04   1.5938438E+05   -1.7224158E+00
   3.0495947E-04   1.5812472E+05   -1.7218469E+00
   3.0636780E-04   1.5687543E+05   -1.7212784E+00
   3.0778264E-04   1.5563642E+05   -1.7207101E+00
   3.0920401E-04   1.5440759E+05   -1.7201422E+00
   3.1063195E-04   1.5318887E+05   -1.7195745E+00
   3.1206648E-04   1.5198016E+05   -1.7190072E+00
   3.1350764E-04   1.5078139E+05   -1.7184402E+00
   3.1495545E-04   1.4959246E+05   -1.7178735E+00
   3.1640994E-04   1.4841330E+05   -1.7173072E+00
   3.1787116E-04   1.4724381E+05   -1.7167412E+00
   3.1933912E-04   1.4608392E+05   -1.7161756E+00
   3.2081386E-04   1.4493354E+05   -1.7156103E+00
   3.2229541E-04   1.4379260E+05   -1.7150453E+00
   3.2378381E-04   1.4266101E+05   -1.7144808E+00
   3.2527908E-04   1.4153869E+05   -1.7139166E+00
   3.2678125E-04   1.4042557E+05   -1.7133527E+00
   3.2829036E-04   1.3932157E+05   -1.7127893E+00
   3.2980644E-04   1.3822660E+05   -1.7122262E+00
   3.3132952E-04   1.3714059E+05   -1.7116635E+00
   3.3285963E-04   1.3606347E+05   -1.7111013E+00
   3.3439681E-04   1.3499516E+05   -1.7105394E+00
   3.3594109E-04   1.3393558E+05   -1.7099779E+00
   3.3749250E-04   1.3288466E+05   -1.7094169E+00
   3.3905108E-04   1.3184233E+05   -1.7088562E+00
   3.4061685E-04   1.3080851E+05   -1.7082960E+00
   3.4218986E-04   1.2978314E+05   -1.7077363E+00
   3.4377013E-04   1.2876613E+05   -1.7071769E+00
   3.4535769E-04   1.2775742E+05   -1.7066180E+00
   3.4695259E-04   1.2675694E+05   -1.7060596E+00
   3.4855485E-04   1.2576462E+05   -1.7055016E+00
   3.5016452E-04   1.2478039E+05   -1.7049440E+00
   3.5178161E-04   1.2380418E+05   -1.7043869E+00
   3.5340618E-04   1.2283592E+05   -1.7038303E+00
   3.5503824E-04   1.2187554E+05   -1.7032742E+00
   3.5667785E-04   1.2092299E+05   -1.7027185E+00
   3.5832502E-04   1.1997819E+05   -1.7021633E+00
   3.5997981E-04   1.1904107E+05   -1.7016086E+00
   3.6164223E-04   1.1811157E+05   -1.7010544E+00
   3.6331233E-04   1.1718963E+05   -1.7005007E+00
   3.6499015E-04   1.1627519E+05   -1.6999475E+00
   3.6667571E-04   1.1536817E+05   -1.6993948E+00
   3.6836906E-04   1.1446852E+05   -1.6988426E+00
   3.7007022E-04   1.1357617E+05   -1.6982910E+00
   3.7177925E-04   1.1269107E+05   -1.6977399E+00
   3.7349616E-04   1.1181315E+05   -1.6971893E+00
   3.7522101E-04   1.1094235E+05   -1.6966392E+00
   3.7695382E-04   1.1007861E+05   -1.6960897E+00
   3.7869463E-04   1.0922187E+05   -1.6955407E+00
   3.8044348E-04   1.0837207E+05   -1.6949923E+00
   3.8220041E-04   1.0752916E+05   -1.6944444E+00
   3.8396545E-04   1.0669307E+05   -1.6938971E+00
   3.8573864E-04   1.0586375E+05   -1.6933503E+00
   3.8752002E-04   1.0504114E+05   -1.6928042E+00
   3.8930963E-04   1.0422518E+05   -1.6922586E+00
   3.9110750E-04   1.0341582E+05   -1.6917135E+00
   3.9291368E-04   1.0261301E+05   -1.6911691E+00
   3.9472820E-04   1.0181668E+05   -1.6906252E+00
   3.9655109E-04   1.0102678E+05   -1.6900820E+00
   3.9838241E-04   1.0024327E+05   -1.6895393E+00
   4.0022218E-04   9.9466077E+04   -1.6889973E+00
   4.0207045E-04   9.8695158E+04   -1.6884558E+00
   4.0392725E-04   9.7930458E+04   -1.6879150E+00
   4.0579263E-04   9.7171926E+04   -1.6873748E+00
   4.0766662E-04   9.6419508E+04   -1.6868352E+00
   4.0954927E-04   9.5673155E+04   -1.6862962E+00
   4.1144061E-04   9.4932814E+04   -1.6857579E+00
   4.1334068E-04   9.4198435E+04   -1.6852202E+00
   4.1524953E-04   9.3469969E+04   -1.6846831E+00
   4.1716720E-04   9.2747366E+04   -1.6841467E+00
   4.1909372E-04   9.2030576E+04   -1.6836110E+00
   4.2102914E-04   9.1319552E+04   -1.6830759E+00
   4.2297350E-04   9.0614244E+04   -1.6825414E+00
   4.2492683E-04   8.9914604E+04   -1.6820076E+00
   4.2688919E-04   8.9220586E+04   -1.6814745E+00
   4.2886061E-04   8.8532143E+04   -1.6809421E+00
   4.3084113E-04   8.7849226E+04   -1.6804103E+00
   4.3283080E-04   8.7171792E+04   -1.6798792E+00
   4.3482966E-04   8.6499792E+04   -1.6793488E+00
   4.3683775E-04   8.5833183E+04   -1.6788191E+00
   4.3885511E-04   8.5171918E+04   -1.6782901E+00
   4.4088179E-04   8.4515954E+04   -1.6777617E+00
   4.4291783E-04   8.3865246E+04   -1.6772341E+00
   4.4496327E-04   8.3219749E+04   -1.6767072E+00
   4.4701816E-04   8.2579422E+04   -1.6761810E+00
   4.4908253E-04   8.1944220E+04   -1.6756555E+00
   4.5115644E-04   8.1314100E+04   -1.6751308E+00
   4.5323993E-04   8.0689021E+04   -1.6746067E+00
   4.5533304E-04   8.0068941E+04   -1.6740834E+00
   4.5743582E-04   7.9453817E+04   -1.6735608E+00
   4.5954830E-04   7.8843609E+04   -1.6730389E+00
   4.6167054E-04   7.8238274E+04   -1.6725178E+00
   4.6380259E-04   7.7637774E+04   -1.6719975E+00
   4.6594448E-04   7.7042067E+04   -1.6714778E+00
   4.6809626E-04   7.6451114E+04   -1.6709590E+00
   4.7025797E-04   7.5864875E+04   -1.6704408E+00
   4.7242967E-04   7.5283311E+04   -1.6699235E+00
   4.7461140E-04   7.4706383E+04   -1.6694069E+00
   4.7680321E-04   7.4134053E+04   -1.6688910E+00
   4.7900514E-04   7.3566282E+04   -1.6683760E+00
   4.8121723E-04   7.3003032E+04   -1.6678617E+00
   4.8343954E-04   7.2444267E+04   -1.6673482E+00
   4.8567212E-04   7.1889948E+04   -1.6668354E+00
   4.8791500E-04   7.1340039E+04   -1.6663235E+00
   4.9016825E-04   7.0794504E+04   -1.6658123E+00
   4.9243189E-04   7.0253305E+04   -1.6653020E+00
   4.9470600E-04   6.9716408E+04   -1.6647924E+00
   4.9699060E-04   6.9183776E+04   -1.6642836E+00
   4.9928575E-04   6.8655374E+04   -1.6637757E+00
   5.0159151E-04   6.8131167E+04   -1.6632685E+00
   5.0390791E-04   6.7611121E+04   -1.6627621E+00
   5.0623501E-04   6.7095200E+04   -1.6622566E+00
   5.0857286E-04   6.6583371E+04   -1.6617519E+00
   5.1092150E-04   6.6075600E+04   -1.6612479E+00
   5.1328099E-04   6.5571854E+04   -1.6607449E+00
   5.1565137E-04   6.5072099E+04   -1.6602426E+00
   5.1803270E-04   6.4576302E+04   -1.6597412E+00
   5.2042503E-04   6.4084431E+04   -1.6592406E+00
   5.2282841E-04   6.3596452E+04   -1.6587408E+00
   5.2524289E-04   6.3112335E+04   -1.6582419E+00
   5.2766851E-04   6.2632047E+04   -1.6577438E+00
   5.3010534E-04   6.2155556E+04   -1.6572466E+00
   5.3255342E-04   6.1682831E+04   -1.6567502E+00
   5.3501281E-04   6.1213842E+04   -1.6562546E+00
   5.3748356E-04   6.0748557E+04   -1.6557599E+00
   5.3996571E-04   6.0286946E+04   -1.6552661E+00
   5.4245933E-04   5.9828978E+04   -1.6547732E+00
   5.4496446E-04   5.9374625E+04   -1.6542811E+00
   5.4748117E-04   5.8923855E+04   -1.6537898E+00
   5.5000949E-04   5.8476640E+04   -1.6532995E+00
   5.5254949E-04   5.8032950E+04   -1.6528100E+00
   5.5510123E-04   5.7592756E+04   -1.6523213E+00
   5.5766474E-04   5.7156030E+04   -1.6518336E+00
   5.6024010E-04   5.6722743E+04   -1.6513467E+00
   5.6282734E-04   5.6292867E+04   -1.6508608E+00
   5.6542654E-04   5.5866373E+04   -1.6503757E+00
   5.6803774E-04   5.5443234E+04   -1.6498915E+00
   5.7066099E-04   5.5023423E+04   -1.6494082E+00
   5.7329637E-04   5.4606913E+04   -1.6489257E+00
   5.7594391E-04   5.4193675E+04   -1.6484442E+00
   5.7860368E-04   5.3783684E+04   -1.6479636E+00
   5.8127573E-04   5.3376913E+04   -1.6474839E+00
   5.8396012E-04   5.2973335E+04   -1.6470051E+00
   5.8665691E-04   5.2572925E+04   -1.6465272E+00
   5.8936616E-04   5.2175655E+04   -1.6460502E+00
   5.9208791E-04   5.1781502E+04   -1.6455741E+00
   5.9482223E-04   5.1390439E+04   -1.6450989E+00
   5.9756919E-04   5.1002440E+04   -1.6446247E+00
   6.0032882E-04   5.0617482E+04   -1.6441513E+00
   6.0310120E-04   5.0235538E+04   -1.6436789E+00
   6.0588639E-04   4.9856585E+04   -1.6432074E+00
   6.0868443E-04   4.9480598E+04   -1.6427369E+00
   6.1149540E-04   4.9107553E+04   -1.6422672E+00
   6.1431935E-04   4.8737425E+04   -1.6417985E+00
   6.1715634E-04   4.8370192E+04   -1.6413307E+00
   6.2000644E-04   4.8005829E+04   -1.6408639E+00
   6.2286969E-04   4.7644313E+04   -1.6403980E+00
