#        a       HoverH0(a)       dlogHdloga_of_a(a)
   1.0000000E-04   1.1385684E+06   -1.8818082E+00
   1.0046181E-04   1.1287403E+06   -1.8813918E+00
   1.0092575E-04   1.1189992E+06   -1.8809744E+00
   1.0139184E-04   1.1093443E+06   -1.8805561E+00
   1.0186008E-04   1.0997749E+06   -1.8801367E+00
   1.0233048E-04   1.0902901E+06   -1.8797163E+00
   1.0280305E-04   1.0808892E+06   -1.8792949E+00
   1.0327781E-04   1.0715714E+06   -1.8788725E+00
   1.0375475E-04   1.0623361E+06   -1.8784491E+00
   1.0423390E-04   1.0531823E+06   -1.8780247E+00
   1.0471527E-04   1.0441095E+06   -1.8775993E+00
   1.0519885E-04   1.0351169E+06   -1.8771728E+00
   1.0568467E-04   1.0262038E+06   -1.8767454E+00
   1.0617274E-04   1.0173694E+06   -1.8763170E+00
   1.0666305E-04   1.0086131E+06   -1.8758876E+00
   1.0715563E-04   9.9993409E+05   -1.8754572E+00
   1.0765049E-04   9.9133175E+05   -1.8750258E+00
   1.0814763E-04   9.8280538E+05   -1.8745934E+00
   1.0864707E-04   9.7435428E+05   -1.8741600E+00
   1.0914881E-04   9.6597778E+05   -1.8737256E+00
   1.0965287E-04   9.5767521E+05   -1.8732902E+00
   1.1015926E-04   9.4944591E+05   -1.8728538E+00
   1.1066799E-04   9.4128921E+05   -1.8724164E+00
   1.1117906E-04   9.3320448E+05   -1.8719781E+00
   1.1169250E-04   9.2519105E+05   -1.8715388E+00
   1.1220831E-04   9.1724830E+05   -1.8710984E+00
   1.1272650E-04   9.0937558E+05   -1.8706571E+00
   1.1324708E-04   9.0157226E+05   -1.8702148E+00
   1.1377007E-04   8.9383774E+05   -1.8697716E+00
   1.1429547E-04   8.8617137E+05   -1.8693273E+00
   1.1482330E-04   8.7857257E+05   -1.8688821E+00
   1.1535356E-04   8.7104070E+05   -1.8684359E+00
   1.1588628E-04   8.6357519E+05   -1.8679887E+00
   1.1642145E-04   8.5617543E+05   -1.8675405E+00
   1.1695910E-04   8.4884082E+05   -1.8670914E+00
   1.1749923E-04   8.4157080E+05   -1.8666413E+00
   1.1804185E-04   8.3436477E+05   -1.8661903E+00
   1.1858698E-04   8.2722216E+05   -1.8657382E+00
   1.1913463E-04   8.2014241E+05   -1.8652852E+00
   1.1968481E-04   8.1312495E+05   -1.8648313E+00
   1.2023752E-04   8.0616922E+05   -1.8643763E+00
   1.2079279E-04   7.9927468E+05   -1.8639205E+00
   1.2135063E-04   7.9244076E+05   -1.8634636E+00
   1.2191104E-04   7.8566693E+05   -1.8630058E+00
   1.2247403E-04   7.7895264E+05   -1.8625471E+00
   1.2303963E-04   7.7229737E+05   -1.8620874E+00
   1.2360784E-04   7.6570059E+05   -1.8616267E+00
   1.2417868E-04   7.5916177E+05   -1.8611651E+00
   1.2475215E-04   7.5268038E+05   -1.8607025E+00
   1.2532826E-04   7.4625593E+05   -1.8602391E+00
   1.2590704E-04   7.3988789E+05   -1.8597746E+00
   1.2648850E-04   7.3357576E+05   -1.8593092E+00
   1.2707263E-04   7.2731905E+05   -1.8588429E+00
   1.2765947E-04   7.2111725E+05   -1.8583757E+00
   1.2824901E-04   7.1496987E+05   -1.8579075E+00
   1.2884128E-04   7.0887643E+05   -1.8574383E+00
   1.2943628E-04   7.0283644E+05   -1.8569683E+00
   1.3003403E-04   6.9684943E+05   -1.8564973E+00
   1.3063454E-04   6.9091492E+05   -1.8560254E+00
   1.3123783E-04   6.8503244E+05   -1.8555526E+00
   1.3184390E-04   6.7920152E+05   -1.8550788E+00
   1.3245277E-04   6.7342170E+05   -1.8546042E+00
   1.3306445E-04   6.6769253E+05   -1.8541286E+00
   1.3367895E-04   6.6201356E+05   -1.8536521E+00
   1.3429630E-04   6.5638433E+05   -1.8531747E+00
   1.3491649E-04   6.5080439E+05   -1.8526964E+00
   1.3553955E-04   6.4527332E+05   -1.8522171E+00
   1.3616548E-04   6.3979067E+05   -1.8517370E+00
   1.3679431E-04   6.3435601E+05   -1.8512560E+00
   1.3742604E-04   6.2896891E+05   -1.8507740E+00
   1.3806069E-04   6.2362894E+05   -1.8502912E+00
   1.3869827E-04   6.1833568E+05   -1.8498075E+00
   1.3933879E-04   6.1308873E+05   -1.8493229E+00
   1.3998227E-04   6.0788765E+05   -1.8488374E+00
   1.4062872E-04   6.0273204E+05   -1.8483510E+00
   1.4127816E-04   5.9762151E+05   -1.8478637E+00
   1.4193060E-04   5.9255563E+05   -1.8473756E+00
   1.4258605E-04   5.8753402E+05   -1.8468866E+00
   1.4324453E-04   5.8255628E+05   -1.8463967E+00
   1.4390605E-04   5.7762201E+05   -1.8459059E+00
   1.4457062E-04   5.7273084E+05   -1.8454143E+00
   1.4523826E-04   5.6788237E+05   -1.8449218E+00
   1.4590899E-04   5.6307623E+05   -1.8444284E+00
   1.4658281E-04   5.5831203E+05   -1.8439342E+00
   1.4725974E-04   5.5358940E+05   -1.8434391E+00
   1.4793981E-04   5.4890798E+05   -1.8429432E+00
   1.4862301E-04   5.4426738E+05   -1.8424464E+00
   1.4930936E-04   5.3966726E+05   -1.8419488E+00
   1.4999889E-04   5.3510724E+05   -1.8414503E+00
   1.5069160E-04   5.3058697E+05   -1.8409510E+00
   1.5138751E-04   5.2610610E+05   -1.8404508E+00
   1.5208663E-04   5.2166428E+05   -1.8399498E+00
   1.5278899E-04   5.1726115E+05   -1.8394480E+00
   1.5349458E-04   5.1289637E+05   -1.8389454E+00
   1.5420343E-04   5.0856960E+05   -1.8384419E+00
   1.5491556E-04   5.0428051E+05   -1.8379376E+00
   1.5563098E-04   5.0002875E+05   -1.8374325E+00
   1.5634970E-04   4.9581399E+05   -1.8369266E+00
   1.5707174E-04   4.9163590E+05   -1.8364198E+00
   1.5779711E-04   4.8749417E+05   -1.8359123E+00
   1.5852584E-04   4.8338845E+05   -1.8354039E+00
   1.5925792E-04   4.7931844E+05   -1.8348948E+00
   1.5999339E-04   4.7528381E+05   -1.8343848E+00
   1.6073226E-04   4.7128425E+05   -1.8338741E+00
   1.6147454E-04   4.6731944E+05   -1.8333625E+00
   1.6222024E-04   4.6338909E+05   -1.8328502E+00
   1.6296939E-04   4.5949288E+05   -1.8323371E+00
   1.6372200E-04   4.5563050E+05   -1.8318232E+00
   1.6447809E-04   4.5180167E+05   -1.8313086E+00
   1.6523767E-04   4.4800607E+05   -1.8307932E+00
   1.6600075E-04   4.4424341E+05   -1.8302770E+00
   1.6676736E-04   4.4051340E+05   -1.8297600E+00
   1.6753751E-04   4.3681575E+05   -1.8292423E+00
   1.6831122E-04   4.3315018E+05   -1.8287238E+00
   1.6908849E-04   4.2951639E+05   -1.8282045E+00
   1.6986936E-04   4.2591410E+05   -1.8276846E+00
   1.7065384E-04   4.2234304E+05   -1.8271638E+00
   1.7144193E-04   4.1880293E+05   -1.8266424E+00
   1.7223367E-04   4.1529348E+05   -1.8261202E+00
   1.7302906E-04   4.1181444E+05   -1.8255972E+00
   1.7382813E-04   4.0836553E+05   -1.8250735E+00
   1.7463089E-04   4.0494648E+05   -1.8245491E+00
   1.7543735E-04   4.0155703E+05   -1.8240240E+00
   1.7624754E-04   3.9819691E+05   -1.8234982E+00
   1.7706147E-04   3.9486586E+05   -1.8229716E+00
   1.7787916E-04   3.9156363E+05   -1.8224444E+00
   1.7870062E-04   3.8828997E+05   -1.8219164E+00
   1.7952588E-04   3.8504460E+05   -1.8213878E+00
   1.8035495E-04   3.8182730E+05   -1.8208584E+00
   1.8118785E-04   3.7863779E+05   -1.8203284E+00
   1.8202459E-04   3.7547585E+05   -1.8197976E+00
   1.8286520E-04   3.7234123E+05   -1.8192662E+00
   1.8370969E-04   3.6923368E+05   -1.8187341E+00
   1.8455808E-04   3.6615297E+05   -1.8182013E+00
   1.8541039E-04   3.6309885E+05   -1.8176679E+00
   1.8626663E-04   3.6007109E+05   -1.8171338E+00
   1.8712683E-04   3.5706945E+05   -1.8165990E+00
   1.8799100E-04   3.5409372E+05   -1.8160636E+00
   1.8885917E-04   3.5114364E+05   -1.8155275E+00
   1.8973134E-04   3.4821901E+05   -1.8149908E+00
   1.9060754E-04   3.4531959E+05   -1.8144534E+00
   1.9148778E-04   3.4244516E+05   -1.8139154E+00
   1.9237209E-04   3.3959550E+05   -1.8133767E+00
   1.9326049E-04   3.3677039E+05   -1.8128374E+00
   1.9415299E-04   3.3396961E+05   -1.8122975E+00
   1.9504960E-04   3.3119295E+05   -1.8117570E+00
   1.9595036E-04   3.2844019E+05   -1.8112159E+00
   1.9685528E-04   3.2571113E+05   -1.8106741E+00
   1.9776438E-04   3.2300554E+05   -1.8101318E+00
   1.9867768E-04   3.2032324E+05   -1.8095888E+00
   1.9959519E-04   3.1766400E+05   -1.8090453E+00
   2.0051694E-04   3.1502763E+05   -1.8085011E+00
   2.0144295E-04   3.1241392E+05   -1.8079564E+00
   2.0237324E-04   3.0982268E+05   -1.8074111E+00
   2.0330782E-04   3.0725370E+05   -1.8068652E+00
   2.0424671E-04   3.0470679E+05   -1.8063187E+00
   2.0518995E-04   3.0218175E+05   -1.8057717E+00
   2.0613754E-04   2.9967839E+05   -1.8052241E+00
   2.0708950E-04   2.9719652E+05   -1.8046759E+00
   2.0804586E-04   2.9473595E+05   -1.8041272E+00
   2.0900664E-04   2.9229649E+05   -1.8035779E+00
   2.0997185E-04   2.8987796E+05   -1.8030281E+00
   2.1094152E-04   2.8748016E+05   -1.8024778E+00
   2.1191567E-04   2.8510293E+05   -1.8019269E+00
   2.1289432E-04   2.8274607E+05   -1.8013755E+00
   2.1387749E-04   2.8040940E+05   -1.8008236E+00
   2.1486520E-04   2.7809275E+05   -1.8002712E+00
   2.1585747E-04   2.7579595E+05   -1.7997182E+00
   2.1685432E-04   2.7351881E+05   -1.7991648E+00
   2.1785578E-04   2.7126116E+05   -1.7986108E+00
   2.1886186E-04   2.6902284E+05   -1.7980563E+00
   2.1987259E-04   2.6680367E+05   -1.7975014E+00
   2.2088798E-04   2.6460348E+05   -1.7969460E+00
   2.2190807E-04   2.6242211E+05   -1.7963900E+00
   2.2293286E-04   2.6025939E+05   -1.7958337E+00
   2.2396239E-04   2.5811515E+05   -1.7952768E+00
   2.2499667E-04   2.5598923E+05   -1.7947195E+00
   2.2603573E-04   2.5388148E+05   -1.7941617E+00
   2.2707958E-04   2.5179173E+05   -1.7936034E+00
   2.2812826E-04   2.4971983E+05   -1.7930447E+00
   2.2918178E-04   2.4766561E+05   -1.7924856E+00
   2.3024017E-04   2.4562892E+05   -1.7919260E+00
   2.3130344E-04   2.4360961E+05   -1.7913660E+00
   2.3237162E-04   2.4160752E+05   -1.7908056E+00
   2.3344474E-04   2.3962250E+05   -1.7902447E+00
   2.3452281E-04   2.3765441E+05   -1.7896835E+00
   2.3560586E-04   2.3570310E+05   -1.7891218E+00
   2.3669392E-04   2.3376841E+05   -1.7885597E+00
   2.3778699E-04   2.3185020E+05   -1.7879972E+00
   2.3888512E-04   2.2994833E+05   -1.7874343E+00
   2.3998831E-04   2.2806265E+05   -1.7868710E+00
   2.4109661E-04   2.2619302E+05   -1.7863074E+00
   2.4221001E-04   2.2433930E+05   -1.7857433E+00
   2.4332857E-04   2.2250135E+05   -1.7851789E+00
   2.4445228E-04   2.2067903E+05   -1.7846142E+00
   2.4558119E-04   2.1887221E+05   -1.7840490E+00
   2.4671531E-04   2.1708074E+05   -1.7834835E+00
   2.4785467E-04   2.1530450E+05   -1.7829177E+00
   2.4899928E-04   2.1354336E+05   -1.7823515E+00
   2.5014919E-04   2.1179717E+05   -1.7817850E+00
   2.5130440E-04   2.1006580E+05   -1.7812181E+00
   2.5246495E-04   2.0834914E+05   -1.7806510E+00
   2.5363086E-04   2.0664704E+05   -1.7800835E+00
   2.5480216E-04   2.0495939E+05   -1.7795156E+00
   2.5597886E-04   2.0328605E+05   -1.7789475E+00
   2.5716100E-04   2.0162690E+05   -1.7783791E+00
   2.5834859E-04   1.9998181E+05   -1.7778104E+00
   2.5954168E-04   1.9835067E+05   -1.7772413E+00
   2.6074027E-04   1.9673334E+05   -1.7766720E+00
   2.6194439E-04   1.9512972E+05   -1.7761025E+00
   2.6315408E-04   1.9353968E+05   -1.7755326E+00
   2.6436935E-04   1.9196309E+05   -1.7749625E+00
   2.6559024E-04   1.9039985E+05   -1.7743921E+00
   2.6681676E-04   1.8884984E+05   -1.7738214E+00
   2.6804895E-04   1.8731294E+05   -1.7732505E+00
   2.6928683E-04   1.8578903E+05   -1.7726794E+00
   2.7053042E-04   1.8427801E+05   -1.7721080E+00
   2.7177976E-04   1.8277976E+05   -1.7715364E+00
   2.7303487E-04   1.8129416E+05   -1.7709645E+00
   2.7429577E-04   1.7982112E+05   -1.7703925E+00
   2.7556250E-04   1.7836051E+05   -1.7698202E+00
   2.7683507E-04   1.7691223E+05   -1.7692477E+00
   2.7811353E-04   1.7547618E+05   -1.7686750E+00
   2.7939788E-04   1.7405224E+05   -1.7681021E+00
   2.8068817E-04   1.7264032E+05   -1.7675290E+00
   2.8198442E-04   1.7124030E+05   -1.7669557E+00
   2.8328665E-04   1.6985208E+05   -1.7663823E+00
   2.8459490E-04   1.6847556E+05   -1.7658087E+00
   2.8590919E-04   1.6711064E+05   -1.7652349E+00
   2.8722955E-04   1.6575722E+05   -1.7646609E+00
   2.8855600E-04   1.6441519E+05   -1.7640868E+00
   2.8988859E-04   1.6308445E+05   -1.7635126E+00
   2.9122732E-04   1.6176492E+05   -1.7629382E+00
   2.9257224E-04   1.6045649E+05   -1.7623636E+00
   2.9392337E-04   1.5915906E+05   -1.7617890E+00
   2.9528074E-04   1.5787254E+05   -1.7612142E+00
   2.9664438E-04   1.5659684E+05   -1.7606392E+00
   2.9801431E-04   1.5533185E+05   -1.7600642E+00
   2.9939057E-04   1.5407750E+05   -1.7594891E+00
   3.0077319E-04   1.5283367E+05   -1.7589138E+00
   3.0216219E-04   1.5160029E+05   -1.7583385E+00
   3.0355761E-04   1.5037726E+05   -1.7577631E+00
   3.0495947E-04   1.4916450E+05   -1.7571876E+00
   3.0636780E-04   1.4796190E+05   -1.7566120E+00
   3.0778264E-04   1.4676940E+05   -1.7560363E+00
   3.0920401E-04   1.4558688E+05   -1.7554606E+00
   3.1063195E-04   1.4441428E+05   -1.7548849E+00
   3.1206648E-04   1.4325151E+05   -1.7543090E+00
   3.1350764E-04   1.4209847E+05   -1.7537332E+00
   3.1495545E-04   1.4095509E+05   -1.7531572E+00
   3.1640994E-04   1.3982128E+05   -1.7525813E+00
   3.1787116E-04   1.3869695E+05   -1.7520053E+00
   3.1933912E-04   1.3758204E+05   -1.7514293E+00
   3.2081386E-04   1.3647645E+05   -1.7508533E+00
   3.2229541E-04   1.3538010E+05   -1.7502773E+00
   3.2378381E-04   1.3429291E+05   -1.7497012E+00
   3.2527908E-04   1.3321481E+05   -1.7491252E+00
   3.2678125E-04   1.3214572E+05   -1.7485492E+00
   3.2829036E-04   1.3108555E+05   -1.7479732E+00
   3.2980644E-04   1.3003423E+05   -1.7473972E+00
   3.3132952E-04   1.2899169E+05   -1.7468213E+00
   3.3285963E-04   1.2795785E+05   -1.7462453E+00
   3.3439681E-04   1.2693262E+05   -1.7456695E+00
   3.3594109E-04   1.2591595E+05   -1.7450936E+00
   3.3749250E-04   1.2490775E+05   -1.7445178E+00
   3.3905108E-04   1.2390795E+05   -1.7439421E+00
   3.4061685E-04   1.2291649E+05   -1.7433665E+00
   3.4218986E-04   1.2193327E+05   -1.7427909E+00
   3.4377013E-04   1.2095825E+05   -1.7422153E+00
   3.4535769E-04   1.1999134E+05   -1.7416399E+00
   3.4695259E-04   1.1903247E+05   -1.7410646E+00
   3.4855485E-04   1.1808158E+05   -1.7404893E+00
   3.5016452E-04   1.1713859E+05   -1.7399141E+00
   3.5178161E-04   1.1620345E+05   -1.7393391E+00
   3.5340618E-04   1.1527607E+05   -1.7387642E+00
   3.5503824E-04   1.1435640E+05   -1.7381893E+00
   3.5667785E-04   1.1344436E+05   -1.7376147E+00
   3.5832502E-04   1.1253990E+05   -1.7370401E+00
   3.5997981E-04   1.1164295E+05   -1.7364657E+00
   3.6164223E-04   1.1075343E+05   -1.7358914E+00
   3.6331233E-04   1.0987130E+05   -1.7353172E+00
   3.6499015E-04   1.0899648E+05   -1.7347433E+00
   3.6667571E-04   1.0812891E+05   -1.7341694E+00
   3.6836906E-04   1.0726853E+05   -1.7335958E+00
   3.7007022E-04   1.0641527E+05   -1.7330223E+00
   3.7177925E-04   1.0556908E+05   -1.7324490E+00
   3.7349616E-04   1.0472990E+05   -1.7318759E+00
   3.7522101E-04   1.0389766E+05   -1.7313030E+00
   3.7695382E-04   1.0307231E+05   -1.7307302E+00
   3.7869463E-04   1.0225379E+05   -1.7301577E+00
   3.8044348E-04   1.0144203E+05   -1.7295854E+00
   3.8220041E-04   1.0063698E+05   -1.7290133E+00
   3.8396545E-04   9.9838584E+04   -1.7284414E+00
   3.8573864E-04   9.9046783E+04   -1.7278697E+00
   3.8752002E-04   9.8261520E+04   -1.7272983E+00
   3.8930963E-04   9.7482739E+04   -1.7267271E+00
   3.9110750E-04   9.6710385E+04   -1.7261562E+00
   3.9291368E-04   9.5944403E+04   -1.7255855E+00
   3.9472820E-04   9.5184738E+04   -1.7250151E+00
   3.9655109E-04   9.4431335E+04   -1.7244449E+00
   3.9838241E-04   9.3684142E+04   -1.7238750E+00
   4.0022218E-04   9.2943106E+04   -1.7233053E+00
   4.0207045E-04   9.2208173E+04   -1.7227360E+00
   4.0392725E-04   9.1479291E+04   -1.7221669E+00
   4.0579263E-04   9.0756409E+04   -1.7215981E+00
   4.0766662E-04   9.0039475E+04   -1.7210297E+00
   4.0954927E-04   8.9328438E+04   -1.7204615E+00
   4.1144061E-04   8.8623249E+04   -1.7198936E+00
   4.1334068E-04   8.7923856E+04   -1.7193260E+00
   4.1524953E-04   8.7230211E+04   -1.7187588E+00
   4.1716720E-04   8.6542264E+04   -1.7181919E+00
   4.1909372E-04   8.5859966E+04   -1.7176253E+00
   4.2102914E-04   8.5183271E+04   -1.7170591E+00
   4.2297350E-04   8.4512129E+04   -1.7164932E+00
   4.2492683E-04   8.3846493E+04   -1.7159276E+00
   4.2688919E-04   8.3186317E+04   -1.7153624E+00
   4.2886061E-04   8.2531554E+04   -1.7147976E+00
   4.3084113E-04   8.1882157E+04   -1.7142331E+00
   4.3283080E-04   8.1238082E+04   -1.7136690E+00
   4.3482966E-04   8.0599282E+04   -1.7131053E+00
   4.3683775E-04   7.9965712E+04   -1.7125419E+00
   4.3885511E-04   7.9337329E+04   -1.7119790E+00
   4.4088179E-04   7.8714088E+04   -1.7114164E+00
   4.4291783E-04   7.8095945E+04   -1.7108543E+00
   4.4496327E-04   7.7482857E+04   -1.7102925E+00
   4.4701816E-04   7.6874781E+04   -1.7097312E+00
   4.4908253E-04   7.6271674E+04   -1.7091702E+00
   4.5115644E-04   7.5673495E+04   -1.7086097E+00
   4.5323993E-04   7.5080200E+04   -1.7080496E+00
   4.5533304E-04   7.4491750E+04   -1.7074900E+00
   4.5743582E-04   7.3908102E+04   -1.7069308E+00
   4.5954830E-04   7.3329215E+04   -1.7063720E+00
   4.6167054E-04   7.2755050E+04   -1.7058137E+00
   4.6380259E-04   7.2185567E+04   -1.7052558E+00
   4.6594448E-04   7.1620724E+04   -1.7046984E+00
   4.6809626E-04   7.1060485E+04   -1.7041414E+00
   4.7025797E-04   7.0504808E+04   -1.7035850E+00
   4.7242967E-04   6.9953656E+04   -1.7030289E+00
   4.7461140E-04   6.9406990E+04   -1.7024734E+00
   4.7680321E-04   6.8864772E+04   -1.7019184E+00
   4.7900514E-04   6.8326965E+04   -1.7013638E+00
   4.8121723E-04   6.7793531E+04   -1.7008098E+00
   4.8343954E-04   6.7264433E+04   -1.7002562E+00
   4.8567212E-04   6.6739635E+04   -1.6997032E+00
   4.8791500E-04   6.6219100E+04   -1.6991507E+00
   4.9016825E-04   6.5702792E+04   -1.6985986E+00
   4.9243189E-04   6.5190675E+04   -1.6980471E+00
   4.9470600E-04   6.4682715E+04   -1.6974962E+00
   4.9699060E-04   6.4178875E+04   -1.6969457E+00
   4.9928575E-04   6.3679121E+04   -1.6963958E+00
   5.0159151E-04   6.3183419E+04   -1.6958465E+00
   5.0390791E-04   6.2691734E+04   -1.6952977E+00
   5.0623501E-04   6.2204032E+04   -1.6947494E+00
   5.0857286E-04   6.1720280E+04   -1.6942017E+00
   5.1092150E-04   6.1240445E+04   -1.6936546E+00
   5.1328099E-04   6.0764494E+04   -1.6931080E+00
   5.1565137E-04   6.0292393E+04   -1.6925620E+00
   5.1803270E-04   5.9824110E+04   -1.6920165E+00
   5.2042503E-04   5.9359614E+04   -1.6914717E+00
   5.2282841E-04   5.8898872E+04   -1.6909274E+00
   5.2524289E-04   5.8441853E+04   -1.6903838E+00
   5.2766851E-04   5.7988525E+04   -1.6898407E+00
   5.3010534E-04   5.7538857E+04   -1.6892982E+00
   5.3255342E-04   5.7092819E+04   -1.6887564E+00
   5.3501281E-04   5.6650380E+04   -1.6882151E+00
   5.3748356E-04   5.6211509E+04   -1.6876745E+00
   5.3996571E-04   5.5776177E+04   -1.6871344E+00
   5.4245933E-04   5.5344355E+04   -1.6865951E+00
   5.4496446E-04   5.4916012E+04   -1.6860563E+00
   5.4748117E-04   5.4491120E+04   -1.6855181E+00
   5.5000949E-04   5.4069649E+04   -1.6849807E+00
   5.5254949E-04   5.3651570E+04   -1.6844438E+00
   5.5510123E-04   5.3236856E+04   -1.6839076E+00
   5.5766474E-04   5.2825478E+04   -1.6833720E+00
   5.6024010E-04   5.2417408E+04   -1.6828371E+00
   5.6282734E-04   5.2012619E+04   -1.6823029E+00
   5.6542654E-04   5.1611082E+04   -1.6817693E+00
   5.6803774E-04   5.1212771E+04   -1.6812364E+00
   5.7066099E-04   5.0817659E+04   -1.6807042E+00
   5.7329637E-04   5.0425719E+04   -1.6801726E+00
   5.7594391E-04   5.0036924E+04   -1.6796417E+00
   5.7860368E-04   4.9651248E+04   -1.6791116E+00
   5.8127573E-04   4.9268665E+04   -1.6785821E+00
   5.8396012E-04   4.8889150E+04   -1.6780533E+00
   5.8665691E-04   4.8512675E+04   -1.6775252E+00
   5.8936616E-04   4.8139217E+04   -1.6769978E+00
   5.9208791E-04   4.7768750E+04   -1.6764711E+00
   5.9482223E-04   4.7401249E+04   -1.6759451E+00
   5.9756919E-04   4.7036689E+04   -1.6754198E+00
   6.0032882E-04   4.6675046E+04   -1.6748953E+00
   6.0310120E-04   4.6316295E+04   -1.6743715E+00
   6.0588639E-04   4.5960412E+04   -1.6738484E+00
   6.0868443E-04   4.5607374E+04   -1.6733260E+00
   6.1149540E-04   4.5257156E+04   -1.6728044E+00
   6.1431935E-04   4.4909736E+04   -1.6722835E+00
   6.1715634E-04   4.4565089E+04   -1.6717634E+00
   6.2000644E-04   4.4223194E+04   -1.6712440E+00
   6.2286969E-04   4.3884026E+04   -1.6707254E+00
