#        a       HoverH0(a)       dlogHdloga_of_a(a)
   1.0000000E-04   1.1788544E+06   -1.9019050E+00
   1.0046181E-04   1.1685702E+06   -1.9015412E+00
   1.0092575E-04   1.1583777E+06   -1.9011764E+00
   1.0139184E-04   1.1482760E+06   -1.9008105E+00
   1.0186008E-04   1.1382644E+06   -1.9004436E+00
   1.0233048E-04   1.1283419E+06   -1.9000758E+00
   1.0280305E-04   1.1185079E+06   -1.8997068E+00
   1.0327781E-04   1.1087614E+06   -1.8993369E+00
   1.0375475E-04   1.0991017E+06   -1.8989660E+00
   1.0423390E-04   1.0895281E+06   -1.8985940E+00
   1.0471527E-04   1.0800397E+06   -1.8982210E+00
   1.0519885E-04   1.0706358E+06   -1.8978470E+00
   1.0568467E-04   1.0613156E+06   -1.8974719E+00
   1.0617274E-04   1.0520783E+06   -1.8970959E+00
   1.0666305E-04   1.0429233E+06   -1.8967188E+00
   1.0715563E-04   1.0338497E+06   -1.8963407E+00
   1.0765049E-04   1.0248568E+06   -1.8959616E+00
   1.0814763E-04   1.0159440E+06   -1.8955815E+00
   1.0864707E-04   1.0071104E+06   -1.8952003E+00
   1.0914881E-04   9.9835538E+05   -1.8948181E+00
   1.0965287E-04   9.8967822E+05   -1.8944349E+00
   1.1015926E-04   9.8107822E+05   -1.8940507E+00
   1.1066799E-04   9.7255467E+05   -1.8936654E+00
   1.1117906E-04   9.6410688E+05   -1.8932792E+00
   1.1169250E-04   9.5573418E+05   -1.8928919E+00
   1.1220831E-04   9.4743588E+05   -1.8925036E+00
   1.1272650E-04   9.3921131E+05   -1.8921142E+00
   1.1324708E-04   9.3105982E+05   -1.8917239E+00
   1.1377007E-04   9.2298073E+05   -1.8913325E+00
   1.1429547E-04   9.1497341E+05   -1.8909401E+00
   1.1482330E-04   9.0703719E+05   -1.8905467E+00
   1.1535356E-04   8.9917144E+05   -1.8901523E+00
   1.1588628E-04   8.9137552E+05   -1.8897568E+00
   1.1642145E-04   8.8364881E+05   -1.8893603E+00
   1.1695910E-04   8.7599067E+05   -1.8889628E+00
   1.1749923E-04   8.6840050E+05   -1.8885643E+00
   1.1804185E-04   8.6087768E+05   -1.8881648E+00
   1.1858698E-04   8.5342159E+05   -1.8877642E+00
   1.1913463E-04   8.4603165E+05   -1.8873627E+00
   1.1968481E-04   8.3870726E+05   -1.8869601E+00
   1.2023752E-04   8.3144781E+05   -1.8865565E+00
   1.2079279E-04   8.2425274E+05   -1.8861518E+00
   1.2135063E-04   8.1712146E+05   -1.8857462E+00
   1.2191104E-04   8.1005339E+05   -1.8853395E+00
   1.2247403E-04   8.0304797E+05   -1.8849319E+00
   1.2303963E-04   7.9610462E+05   -1.8845232E+00
   1.2360784E-04   7.8922280E+05   -1.8841135E+00
   1.2417868E-04   7.8240195E+05   -1.8837027E+00
   1.2475215E-04   7.7564151E+05   -1.8832910E+00
   1.2532826E-04   7.6894095E+05   -1.8828783E+00
   1.2590704E-04   7.6229973E+05   -1.8824645E+00
   1.2648850E-04   7.5571730E+05   -1.8820497E+00
   1.2707263E-04   7.4919315E+05   -1.8816340E+00
   1.2765947E-04   7.4272675E+05   -1.8812172E+00
   1.2824901E-04   7.3631758E+05   -1.8807994E+00
   1.2884128E-04   7.2996512E+05   -1.8803806E+00
   1.2943628E-04   7.2366886E+05   -1.8799607E+00
   1.3003403E-04   7.1742830E+05   -1.8795399E+00
   1.3063454E-04   7.1124294E+05   -1.8791181E+00
   1.3123783E-04   7.0511227E+05   -1.8786953E+00
   1.3184390E-04   6.9903581E+05   -1.8782714E+00
   1.3245277E-04   6.9301308E+05   -1.8778466E+00
   1.3306445E-04   6.8704357E+05   -1.8774207E+00
   1.3367895E-04   6.8112683E+05   -1.8769939E+00
   1.3429630E-04   6.7526237E+05   -1.8765661E+00
   1.3491649E-04   6.6944973E+05   -1.8761372E+00
   1.3553955E-04   6.6368843E+05   -1.8757074E+00
   1.3616548E-04   6.5797802E+05   -1.8752765E+00
   1.3679431E-04   6.5231804E+05   -1.8748447E+00
   1.3742604E-04   6.4670804E+05   -1.8744119E+00
   1.3806069E-04   6.4114756E+05   -1.8739780E+00
   1.3869827E-04   6.3563617E+05   -1.8735432E+00
   1.3933879E-04   6.3017341E+05   -1.8731074E+00
   1.3998227E-04   6.2475886E+05   -1.8726706E+00
   1.4062872E-04   6.1939208E+05   -1.8722328E+00
   1.4127816E-04   6.1407264E+05   -1.8717940E+00
   1.4193060E-04   6.0880011E+05   -1.8713543E+00
   1.4258605E-04   6.0357408E+05   -1.8709135E+00
   1.4324453E-04   5.9839413E+05   -1.8704718E+00
   1.4390605E-04   5.9325984E+05   -1.8700291E+00
   1.4457062E-04   5.8817081E+05   -1.8695854E+00
   1.4523826E-04   5.8312663E+05   -1.8691407E+00
   1.4590899E-04   5.7812689E+05   -1.8686951E+00
   1.4658281E-04   5.7317119E+05   -1.8682485E+00
   1.4725974E-04   5.6825915E+05   -1.8678009E+00
   1.4793981E-04   5.6339036E+05   -1.8673523E+00
   1.4862301E-04   5.5856445E+05   -1.8669027E+00
   1.4930936E-04   5.5378102E+05   -1.8664522E+00
   1.4999889E-04   5.4903970E+05   -1.8660007E+00
   1.5069160E-04   5.4434010E+05   -1.8655483E+00
   1.5138751E-04   5.3968186E+05   -1.8650949E+00
   1.5208663E-04   5.3506460E+05   -1.8646405E+00
   1.5278899E-04   5.3048796E+05   -1.8641852E+00
   1.5349458E-04   5.2595156E+05   -1.8637289E+00
   1.5420343E-04   5.2145506E+05   -1.8632716E+00
   1.5491556E-04   5.1699809E+05   -1.8628134E+00
   1.5563098E-04   5.1258029E+05   -1.8623542E+00
   1.5634970E-04   5.0820133E+05   -1.8618941E+00
   1.5707174E-04   5.0386084E+05   -1.8614331E+00
   1.5779711E-04   4.9955848E+05   -1.8609710E+00
   1.5852584E-04   4.9529392E+05   -1.8605081E+00
   1.5925792E-04   4.9106681E+05   -1.8600442E+00
   1.5999339E-04   4.8687682E+05   -1.8595793E+00
   1.6073226E-04   4.8272361E+05   -1.8591135E+00
   1.6147454E-04   4.7860687E+05   -1.8586468E+00
   1.6222024E-04   4.7452625E+05   -1.8581792E+00
   1.6296939E-04   4.7048143E+05   -1.8577106E+00
   1.6372200E-04   4.6647211E+05   -1.8572410E+00
   1.6447809E-04   4.6249795E+05   -1.8567706E+00
   1.6523767E-04   4.5855864E+05   -1.8562992E+00
   1.6600075E-04   4.5465388E+05   -1.8558269E+00
   1.6676736E-04   4.5078335E+05   -1.8553537E+00
   1.6753751E-04   4.4694674E+05   -1.8548795E+00
   1.6831122E-04   4.4314376E+05   -1.8544044E+00
   1.6908849E-04   4.3937409E+05   -1.8539285E+00
   1.6986936E-04   4.3563745E+05   -1.8534516E+00
   1.7065384E-04   4.3193354E+05   -1.8529738E+00
   1.7144193E-04   4.2826207E+05   -1.8524950E+00
   1.7223367E-04   4.2462274E+05   -1.8520154E+00
   1.7302906E-04   4.2101526E+05   -1.8515349E+00
   1.7382813E-04   4.1743937E+05   -1.8510535E+00
   1.7463089E-04   4.1389476E+05   -1.8505712E+00
   1.7543735E-04   4.1038116E+05   -1.8500880E+00
   1.7624754E-04   4.0689830E+05   -1.8496038E+00
   1.7706147E-04   4.0344589E+05   -1.8491188E+00
   1.7787916E-04   4.0002368E+05   -1.8486330E+00
   1.7870062E-04   3.9663138E+05   -1.8481462E+00
   1.7952588E-04   3.9326873E+05   -1.8476585E+00
   1.8035495E-04   3.8993547E+05   -1.8471700E+00
   1.8118785E-04   3.8663133E+05   -1.8466806E+00
   1.8202459E-04   3.8335605E+05   -1.8461903E+00
   1.8286520E-04   3.8010938E+05   -1.8456992E+00
   1.8370969E-04   3.7689106E+05   -1.8452072E+00
   1.8455808E-04   3.7370083E+05   -1.8447143E+00
   1.8541039E-04   3.7053845E+05   -1.8442205E+00
   1.8626663E-04   3.6740367E+05   -1.8437259E+00
   1.8712683E-04   3.6429624E+05   -1.8432305E+00
   1.8799100E-04   3.6121592E+05   -1.8427342E+00
   1.8885917E-04   3.5816246E+05   -1.8422370E+00
   1.8973134E-04   3.5513563E+05   -1.8417390E+00
   1.9060754E-04   3.5213519E+05   -1.8412402E+00
   1.9148778E-04   3.4916090E+05   -1.8407405E+00
   1.9237209E-04   3.4621253E+05   -1.8402400E+00
   1.9326049E-04   3.4328985E+05   -1.8397386E+00
   1.9415299E-04   3.4039263E+05   -1.8392364E+00
   1.9504960E-04   3.3752064E+05   -1.8387334E+00
   1.9595036E-04   3.3467366E+05   -1.8382296E+00
   1.9685528E-04   3.3185147E+05   -1.8377249E+00
   1.9776438E-04   3.2905384E+05   -1.8372194E+00
   1.9867768E-04   3.2628055E+05   -1.8367132E+00
   1.9959519E-04   3.2353140E+05   -1.8362061E+00
   2.0051694E-04   3.2080616E+05   -1.8356982E+00
   2.0144295E-04   3.1810461E+05   -1.8351894E+00
   2.0237324E-04   3.1542656E+05   -1.8346799E+00
   2.0330782E-04   3.1277179E+05   -1.8341696E+00
   2.0424671E-04   3.1014009E+05   -1.8336585E+00
   2.0518995E-04   3.0753126E+05   -1.8331467E+00
   2.0613754E-04   3.0494510E+05   -1.8326340E+00
   2.0708950E-04   3.0238140E+05   -1.8321205E+00
   2.0804586E-04   2.9983996E+05   -1.8316063E+00
   2.0900664E-04   2.9732059E+05   -1.8310913E+00
   2.0997185E-04   2.9482308E+05   -1.8305755E+00
   2.1094152E-04   2.9234725E+05   -1.8300590E+00
   2.1191567E-04   2.8989291E+05   -1.8295417E+00
   2.1289432E-04   2.8745985E+05   -1.8290236E+00
   2.1387749E-04   2.8504789E+05   -1.8285048E+00
   2.1486520E-04   2.8265685E+05   -1.8279852E+00
   2.1585747E-04   2.8028654E+05   -1.8274649E+00
   2.1685432E-04   2.7793676E+05   -1.8269438E+00
   2.1785578E-04   2.7560736E+05   -1.8264220E+00
   2.1886186E-04   2.7329813E+05   -1.8258995E+00
   2.1987259E-04   2.7100890E+05   -1.8253762E+00
   2.2088798E-04   2.6873950E+05   -1.8248522E+00
   2.2190807E-04   2.6648974E+05   -1.8243275E+00
   2.2293286E-04   2.6425946E+05   -1.8238021E+00
   2.2396239E-04   2.6204848E+05   -1.8232759E+00
   2.2499667E-04   2.5985662E+05   -1.8227490E+00
   2.2603573E-04   2.5768373E+05   -1.8222215E+00
   2.2707958E-04   2.5552962E+05   -1.8216932E+00
   2.2812826E-04   2.5339415E+05   -1.8211642E+00
   2.2918178E-04   2.5127713E+05   -1.8206345E+00
   2.3024017E-04   2.4917840E+05   -1.8201042E+00
   2.3130344E-04   2.4709781E+05   -1.8195731E+00
   2.3237162E-04   2.4503519E+05   -1.8190414E+00
   2.3344474E-04   2.4299039E+05   -1.8185090E+00
   2.3452281E-04   2.4096324E+05   -1.8179759E+00
   2.3560586E-04   2.3895359E+05   -1.8174421E+00
   2.3669392E-04   2.3696128E+05   -1.8169077E+00
   2.3778699E-04   2.3498616E+05   -1.8163726E+00
   2.3888512E-04   2.3302808E+05   -1.8158369E+00
   2.3998831E-04   2.3108689E+05   -1.8153005E+00
   2.4109661E-04   2.2916243E+05   -1.8147635E+00
   2.4221001E-04   2.2725457E+05   -1.8142258E+00
   2.4332857E-04   2.2536314E+05   -1.8136875E+00
   2.4445228E-04   2.2348802E+05   -1.8131486E+00
   2.4558119E-04   2.2162904E+05   -1.8126090E+00
   2.4671531E-04   2.1978608E+05   -1.8120688E+00
   2.4785467E-04   2.1795898E+05   -1.8115280E+00
   2.4899928E-04   2.1614761E+05   -1.8109866E+00
   2.5014919E-04   2.1435183E+05   -1.8104446E+00
   2.5130440E-04   2.1257150E+05   -1.8099019E+00
   2.5246495E-04   2.1080649E+05   -1.8093587E+00
   2.5363086E-04   2.0905665E+05   -1.8088149E+00
   2.5480216E-04   2.0732186E+05   -1.8082704E+00
   2.5597886E-04   2.0560198E+05   -1.8077254E+00
   2.5716100E-04   2.0389688E+05   -1.8071798E+00
   2.5834859E-04   2.0220643E+05   -1.8066337E+00
   2.5954168E-04   2.0053049E+05   -1.8060869E+00
   2.6074027E-04   1.9886895E+05   -1.8055396E+00
   2.6194439E-04   1.9722168E+05   -1.8049918E+00
   2.6315408E-04   1.9558854E+05   -1.8044433E+00
   2.6436935E-04   1.9396942E+05   -1.8038944E+00
   2.6559024E-04   1.9236419E+05   -1.8033449E+00
   2.6681676E-04   1.9077273E+05   -1.8027948E+00
   2.6804895E-04   1.8919491E+05   -1.8022442E+00
   2.6928683E-04   1.8763062E+05   -1.8016931E+00
   2.7053042E-04   1.8607973E+05   -1.8011414E+00
   2.7177976E-04   1.8454213E+05   -1.8005893E+00
   2.7303487E-04   1.8301771E+05   -1.8000366E+00
   2.7429577E-04   1.8150633E+05   -1.7994834E+00
   2.7556250E-04   1.8000790E+05   -1.7989297E+00
   2.7683507E-04   1.7852230E+05   -1.7983755E+00
   2.7811353E-04   1.7704940E+05   -1.7978208E+00
   2.7939788E-04   1.7558911E+05   -1.7972656E+00
   2.8068817E-04   1.7414131E+05   -1.7967099E+00
   2.8198442E-04   1.7270589E+05   -1.7961538E+00
   2.8328665E-04   1.7128274E+05   -1.7955971E+00
   2.8459490E-04   1.6987175E+05   -1.7950400E+00
   2.8590919E-04   1.6847282E+05   -1.7944825E+00
   2.8722955E-04   1.6708584E+05   -1.7939245E+00
   2.8855600E-04   1.6571071E+05   -1.7933660E+00
   2.8988859E-04   1.6434731E+05   -1.7928071E+00
   2.9122732E-04   1.6299555E+05   -1.7922477E+00
   2.9257224E-04   1.6165533E+05   -1.7916879E+00
   2.9392337E-04   1.6032654E+05   -1.7911277E+00
   2.9528074E-04   1.5900908E+05   -1.7905671E+00
   2.9664438E-04   1.5770286E+05   -1.7900060E+00
   2.9801431E-04   1.5640777E+05   -1.7894445E+00
   2.9939057E-04   1.5512372E+05   -1.7888826E+00
   3.0077319E-04   1.5385061E+05   -1.7883203E+00
   3.0216219E-04   1.5258834E+05   -1.7877576E+00
   3.0355761E-04   1.5133682E+05   -1.7871945E+00
   3.0495947E-04   1.5009596E+05   -1.7866311E+00
   3.0636780E-04   1.4886565E+05   -1.7860672E+00
   3.0778264E-04   1.4764582E+05   -1.7855030E+00
   3.0920401E-04   1.4643636E+05   -1.7849384E+00
   3.1063195E-04   1.4523719E+05   -1.7843734E+00
   3.1206648E-04   1.4404821E+05   -1.7838081E+00
   3.1350764E-04   1.4286933E+05   -1.7832424E+00
   3.1495545E-04   1.4170048E+05   -1.7826764E+00
   3.1640994E-04   1.4054155E+05   -1.7821100E+00
   3.1787116E-04   1.3939247E+05   -1.7815433E+00
   3.1933912E-04   1.3825314E+05   -1.7809763E+00
   3.2081386E-04   1.3712349E+05   -1.7804089E+00
   3.2229541E-04   1.3600342E+05   -1.7798413E+00
   3.2378381E-04   1.3489285E+05   -1.7792733E+00
   3.2527908E-04   1.3379170E+05   -1.7787050E+00
   3.2678125E-04   1.3269988E+05   -1.7781364E+00
   3.2829036E-04   1.3161732E+05   -1.7775675E+00
   3.2980644E-04   1.3054394E+05   -1.7769983E+00
   3.3132952E-04   1.2947965E+05   -1.7764288E+00
   3.3285963E-04   1.2842437E+05   -1.7758591E+00
   3.3439681E-04   1.2737803E+05   -1.7752891E+00
   3.3594109E-04   1.2634054E+05   -1.7747188E+00
   3.3749250E-04   1.2531184E+05   -1.7741482E+00
   3.3905108E-04   1.2429183E+05   -1.7735774E+00
   3.4061685E-04   1.2328046E+05   -1.7730064E+00
   3.4218986E-04   1.2227763E+05   -1.7724351E+00
   3.4377013E-04   1.2128328E+05   -1.7718636E+00
   3.4535769E-04   1.2029734E+05   -1.7712918E+00
   3.4695259E-04   1.1931972E+05   -1.7707198E+00
   3.4855485E-04   1.1835036E+05   -1.7701476E+00
   3.5016452E-04   1.1738919E+05   -1.7695752E+00
   3.5178161E-04   1.1643613E+05   -1.7690026E+00
   3.5340618E-04   1.1549111E+05   -1.7684298E+00
   3.5503824E-04   1.1455406E+05   -1.7678567E+00
   3.5667785E-04   1.1362492E+05   -1.7672835E+00
   3.5832502E-04   1.1270361E+05   -1.7667101E+00
   3.5997981E-04   1.1179007E+05   -1.7661366E+00
   3.6164223E-04   1.1088422E+05   -1.7655628E+00
   3.6331233E-04   1.0998601E+05   -1.7649889E+00
   3.6499015E-04   1.0909536E+05   -1.7644148E+00
   3.6667571E-04   1.0821220E+05   -1.7638406E+00
   3.6836906E-04   1.0733649E+05   -1.7632663E+00
   3.7007022E-04   1.0646814E+05   -1.7626917E+00
   3.7177925E-04   1.0560709E+05   -1.7621171E+00
   3.7349616E-04   1.0475329E+05   -1.7615423E+00
   3.7522101E-04   1.0390666E+05   -1.7609674E+00
   3.7695382E-04   1.0306715E+05   -1.7603924E+00
   3.7869463E-04   1.0223469E+05   -1.7598173E+00
   3.8044348E-04   1.0140923E+05   -1.7592421E+00
   3.8220041E-04   1.0059069E+05   -1.7586667E+00
   3.8396545E-04   9.9779032E+04   -1.7580913E+00
   3.8573864E-04   9.8974182E+04   -1.7575158E+00
   3.8752002E-04   9.8176084E+04   -1.7569402E+00
   3.8930963E-04   9.7384681E+04   -1.7563645E+00
   3.9110750E-04   9.6599913E+04   -1.7557888E+00
   3.9291368E-04   9.5821723E+04   -1.7552130E+00
   3.9472820E-04   9.5050054E+04   -1.7546372E+00
   3.9655109E-04   9.4284850E+04   -1.7540613E+00
   3.9838241E-04   9.3526054E+04   -1.7534853E+00
   4.0022218E-04   9.2773612E+04   -1.7529093E+00
   4.0207045E-04   9.2027467E+04   -1.7523333E+00
   4.0392725E-04   9.1287566E+04   -1.7517573E+00
   4.0579263E-04   9.0553853E+04   -1.7511812E+00
   4.0766662E-04   8.9826277E+04   -1.7506051E+00
   4.0954927E-04   8.9104782E+04   -1.7500291E+00
   4.1144061E-04   8.8389318E+04   -1.7494530E+00
   4.1334068E-04   8.7679830E+04   -1.7488769E+00
   4.1524953E-04   8.6976269E+04   -1.7483008E+00
   4.1716720E-04   8.6278582E+04   -1.7477248E+00
   4.1909372E-04   8.5586719E+04   -1.7471487E+00
   4.2102914E-04   8.4900629E+04   -1.7465727E+00
   4.2297350E-04   8.4220262E+04   -1.7459968E+00
   4.2492683E-04   8.3545570E+04   -1.7454209E+00
   4.2688919E-04   8.2876502E+04   -1.7448450E+00
   4.2886061E-04   8.2213011E+04   -1.7442692E+00
   4.3084113E-04   8.1555048E+04   -1.7436934E+00
   4.3283080E-04   8.0902565E+04   -1.7431177E+00
   4.3482966E-04   8.0255516E+04   -1.7425421E+00
   4.3683775E-04   7.9613852E+04   -1.7419665E+00
   4.3885511E-04   7.8977528E+04   -1.7413911E+00
   4.4088179E-04   7.8346498E+04   -1.7408157E+00
   4.4291783E-04   7.7720716E+04   -1.7402404E+00
   4.4496327E-04   7.7100136E+04   -1.7396653E+00
   4.4701816E-04   7.6484714E+04   -1.7390902E+00
   4.4908253E-04   7.5874406E+04   -1.7385152E+00
   4.5115644E-04   7.5269167E+04   -1.7379404E+00
   4.5323993E-04   7.4668953E+04   -1.7373657E+00
   4.5533304E-04   7.4073723E+04   -1.7367911E+00
   4.5743582E-04   7.3483431E+04   -1.7362167E+00
   4.5954830E-04   7.2898036E+04   -1.7356424E+00
   4.6167054E-04   7.2317497E+04   -1.7350683E+00
   4.6380259E-04   7.1741770E+04   -1.7344943E+00
   4.6594448E-04   7.1170814E+04   -1.7339205E+00
   4.6809626E-04   7.0604590E+04   -1.7333468E+00
   4.7025797E-04   7.0043055E+04   -1.7327734E+00
   4.7242967E-04   6.9486170E+04   -1.7322001E+00
   4.7461140E-04   6.8933894E+04   -1.7316270E+00
   4.7680321E-04   6.8386188E+04   -1.7310541E+00
   4.7900514E-04   6.7843014E+04   -1.7304813E+00
   4.8121723E-04   6.7304331E+04   -1.7299088E+00
   4.8343954E-04   6.6770101E+04   -1.7293365E+00
   4.8567212E-04   6.6240287E+04   -1.7287645E+00
   4.8791500E-04   6.5714850E+04   -1.7281926E+00
   4.9016825E-04   6.5193752E+04   -1.7276210E+00
   4.9243189E-04   6.4676957E+04   -1.7270496E+00
   4.9470600E-04   6.4164427E+04   -1.7264784E+00
   4.9699060E-04   6.3656127E+04   -1.7259075E+00
   4.9928575E-04   6.3152019E+04   -1.7253368E+00
   5.0159151E-04   6.2652068E+04   -1.7247664E+00
   5.0390791E-04   6.2156238E+04   -1.7241963E+00
   5.0623501E-04   6.1664494E+04   -1.7236264E+00
   5.0857286E-04   6.1176801E+04   -1.7230569E+00
   5.1092150E-04   6.0693125E+04   -1.7224875E+00
   5.1328099E-04   6.0213430E+04   -1.7219185E+00
   5.1565137E-04   5.9737684E+04   -1.7213498E+00
   5.1803270E-04   5.9265851E+04   -1.7207814E+00
   5.2042503E-04   5.8797899E+04   -1.7202132E+00
   5.2282841E-04   5.8333795E+04   -1.7196454E+00
   5.2524289E-04   5.7873505E+04   -1.7190779E+00
   5.2766851E-04   5.7416998E+04   -1.7185108E+00
   5.3010534E-04   5.6964240E+04   -1.7179439E+00
   5.3255342E-04   5.6515200E+04   -1.7173774E+00
   5.3501281E-04   5.6069845E+04   -1.7168112E+00
   5.3748356E-04   5.5628146E+04   -1.7162454E+00
   5.3996571E-04   5.5190070E+04   -1.7156799E+00
   5.4245933E-04   5.4755586E+04   -1.7151148E+00
   5.4496446E-04   5.4324664E+04   -1.7145500E+00
   5.4748117E-04   5.3897274E+04   -1.7139856E+00
   5.5000949E-04   5.3473385E+04   -1.7134216E+00
   5.5254949E-04   5.3052968E+04   -1.7128579E+00
   5.5510123E-04   5.2635993E+04   -1.7122947E+00
   5.5766474E-04   5.2222431E+04   -1.7117318E+00
   5.6024010E-04   5.1812252E+04   -1.7111693E+00
   5.6282734E-04   5.1405428E+04   -1.7106073E+00
   5.6542654E-04   5.1001931E+04   -1.7100456E+00
   5.6803774E-04   5.0601731E+04   -1.7094843E+00
   5.7066099E-04   5.0204802E+04   -1.7089235E+00
   5.7329637E-04   4.9811115E+04   -1.7083631E+00
   5.7594391E-04   4.9420642E+04   -1.7078031E+00
   5.7860368E-04   4.9033357E+04   -1.7072435E+00
   5.8127573E-04   4.8649233E+04   -1.7066844E+00
   5.8396012E-04   4.8268242E+04   -1.7061258E+00
   5.8665691E-04   4.7890358E+04   -1.7055675E+00
   5.8936616E-04   4.7515554E+04   -1.7050098E+00
   5.9208791E-04   4.7143805E+04   -1.7044525E+00
   5.9482223E-04   4.6775084E+04   -1.7038956E+00
   5.9756919E-04   4.6409366E+04   -1.7033393E+00
   6.0032882E-04   4.6046626E+04   -1.7027834E+00
   6.0310120E-04   4.5686837E+04   -1.7022280E+00
   6.0588639E-04   4.5329976E+04   -1.7016730E+00
   6.0868443E-04   4.4976017E+04   -1.7011186E+00
   6.1149540E-04   4.4624937E+04   -1.7005647E+00
   6.1431935E-04   4.4276709E+04   -1.7000113E+00
   6.1715634E-04   4.3931311E+04   -1.6994583E+00
   6.2000644E-04   4.3588719E+04   -1.6989059E+00
   6.2286969E-04   4.3248908E+04   -1.6983540E+00
