#        a       HoverH0(a)       dlogHdloga_of_a(a)
   1.0000000E-04   1.1853388E+06   -1.8607152E+00
   1.0046181E-04   1.1752213E+06   -1.8602518E+00
   1.0092575E-04   1.1651927E+06   -1.8597874E+00
   1.0139184E-04   1.1552522E+06   -1.8593220E+00
   1.0186008E-04   1.1453989E+06   -1.8588557E+00
   1.0233048E-04   1.1356321E+06   -1.8583885E+00
   1.0280305E-04   1.1259510E+06   -1.8579204E+00
   1.0327781E-04   1.1163548E+06   -1.8574513E+00
   1.0375475E-04   1.1068428E+06   -1.8569813E+00
   1.0423390E-04   1.0974143E+06   -1.8565103E+00
   1.0471527E-04   1.0880684E+06   -1.8560384E+00
   1.0519885E-04   1.0788045E+06   -1.8555656E+00
   1.0568467E-04   1.0696218E+06   -1.8550919E+00
   1.0617274E-04   1.0605195E+06   -1.8546173E+00
   1.0666305E-04   1.0514970E+06   -1.8541417E+00
   1.0715563E-04   1.0425536E+06   -1.8536653E+00
   1.0765049E-04   1.0336885E+06   -1.8531879E+00
   1.0814763E-04   1.0249010E+06   -1.8527096E+00
   1.0864707E-04   1.0161905E+06   -1.8522304E+00
   1.0914881E-04   1.0075562E+06   -1.8517503E+00
   1.0965287E-04   9.9899756E+05   -1.8512693E+00
   1.1015926E-04   9.9051377E+05   -1.8507874E+00
   1.1066799E-04   9.8210422E+05   -1.8503046E+00
   1.1117906E-04   9.7376822E+05   -1.8498210E+00
   1.1169250E-04   9.6550514E+05   -1.8493364E+00
   1.1220831E-04   9.5731431E+05   -1.8488509E+00
   1.1272650E-04   9.4919510E+05   -1.8483646E+00
   1.1324708E-04   9.4114685E+05   -1.8478773E+00
   1.1377007E-04   9.3316895E+05   -1.8473892E+00
   1.1429547E-04   9.2526076E+05   -1.8469002E+00
   1.1482330E-04   9.1742165E+05   -1.8464104E+00
   1.1535356E-04   9.0965102E+05   -1.8459197E+00
   1.1588628E-04   9.0194824E+05   -1.8454281E+00
   1.1642145E-04   8.9431271E+05   -1.8449356E+00
   1.1695910E-04   8.8674384E+05   -1.8444423E+00
   1.1749923E-04   8.7924103E+05   -1.8439481E+00
   1.1804185E-04   8.7180368E+05   -1.8434530E+00
   1.1858698E-04   8.6443122E+05   -1.8429571E+00
   1.1913463E-04   8.5712307E+05   -1.8424604E+00
   1.1968481E-04   8.4987864E+05   -1.8419628E+00
   1.2023752E-04   8.4269738E+05   -1.8414643E+00
   1.2079279E-04   8.3557873E+05   -1.8409651E+00
   1.2135063E-04   8.2852211E+05   -1.8404649E+00
   1.2191104E-04   8.2152699E+05   -1.8399640E+00
   1.2247403E-04   8.1459280E+05   -1.8394622E+00
   1.2303963E-04   8.0771901E+05   -1.8389596E+00
   1.2360784E-04   8.0090508E+05   -1.8384561E+00
   1.2417868E-04   7.9415048E+05   -1.8379519E+00
   1.2475215E-04   7.8745468E+05   -1.8374468E+00
   1.2532826E-04   7.8081714E+05   -1.8369409E+00
   1.2590704E-04   7.7423737E+05   -1.8364342E+00
   1.2648850E-04   7.6771483E+05   -1.8359267E+00
   1.2707263E-04   7.6124902E+05   -1.8354184E+00
   1.2765947E-04   7.5483944E+05   -1.8349092E+00
   1.2824901E-04   7.4848558E+05   -1.8343993E+00
   1.2884128E-04   7.4218695E+05   -1.8338886E+00
   1.2943628E-04   7.3594306E+05   -1.8333771E+00
   1.3003403E-04   7.2975342E+05   -1.8328648E+00
   1.3063454E-04   7.2361755E+05   -1.8323518E+00
   1.3123783E-04   7.1753496E+05   -1.8318379E+00
   1.3184390E-04   7.1150519E+05   -1.8313233E+00
   1.3245277E-04   7.0552777E+05   -1.8308079E+00
   1.3306445E-04   6.9960222E+05   -1.8302917E+00
   1.3367895E-04   6.9372809E+05   -1.8297748E+00
   1.3429630E-04   6.8790492E+05   -1.8292571E+00
   1.3491649E-04   6.8213226E+05   -1.8287387E+00
   1.3553955E-04   6.7640966E+05   -1.8282195E+00
   1.3616548E-04   6.7073668E+05   -1.8276995E+00
   1.3679431E-04   6.6511287E+05   -1.8271788E+00
   1.3742604E-04   6.5953779E+05   -1.8266574E+00
   1.3806069E-04   6.5401102E+05   -1.8261352E+00
   1.3869827E-04   6.4853212E+05   -1.8256123E+00
   1.3933879E-04   6.4310068E+05   -1.8250887E+00
   1.3998227E-04   6.3771626E+05   -1.8245643E+00
   1.4062872E-04   6.3237845E+05   -1.8240392E+00
   1.4127816E-04   6.2708683E+05   -1.8235134E+00
   1.4193060E-04   6.2184100E+05   -1.8229869E+00
   1.4258605E-04   6.1664056E+05   -1.8224597E+00
   1.4324453E-04   6.1148509E+05   -1.8219317E+00
   1.4390605E-04   6.0637420E+05   -1.8214031E+00
   1.4457062E-04   6.0130749E+05   -1.8208738E+00
   1.4523826E-04   5.9628458E+05   -1.8203438E+00
   1.4590899E-04   5.9130506E+05   -1.8198131E+00
   1.4658281E-04   5.8636857E+05   -1.8192817E+00
   1.4725974E-04   5.8147471E+05   -1.8187496E+00
   1.4793981E-04   5.7662311E+05   -1.8182169E+00
   1.4862301E-04   5.7181340E+05   -1.8176835E+00
   1.4930936E-04   5.6704520E+05   -1.8171494E+00
   1.4999889E-04   5.6231814E+05   -1.8166146E+00
   1.5069160E-04   5.5763186E+05   -1.8160792E+00
   1.5138751E-04   5.5298601E+05   -1.8155432E+00
   1.5208663E-04   5.4838021E+05   -1.8150065E+00
   1.5278899E-04   5.4381412E+05   -1.8144692E+00
   1.5349458E-04   5.3928739E+05   -1.8139312E+00
   1.5420343E-04   5.3479967E+05   -1.8133926E+00
   1.5491556E-04   5.3035061E+05   -1.8128533E+00
   1.5563098E-04   5.2593987E+05   -1.8123135E+00
   1.5634970E-04   5.2156710E+05   -1.8117730E+00
   1.5707174E-04   5.1723199E+05   -1.8112319E+00
   1.5779711E-04   5.1293418E+05   -1.8106901E+00
   1.5852584E-04   5.0867336E+05   -1.8101478E+00
   1.5925792E-04   5.0444919E+05   -1.8096049E+00
   1.5999339E-04   5.0026135E+05   -1.8090614E+00
   1.6073226E-04   4.9610952E+05   -1.8085173E+00
   1.6147454E-04   4.9199338E+05   -1.8079726E+00
   1.6222024E-04   4.8791262E+05   -1.8074273E+00
   1.6296939E-04   4.8386693E+05   -1.8068814E+00
   1.6372200E-04   4.7985598E+05   -1.8063350E+00
   1.6447809E-04   4.7587949E+05   -1.8057880E+00
   1.6523767E-04   4.7193713E+05   -1.8052404E+00
   1.6600075E-04   4.6802862E+05   -1.8046923E+00
   1.6676736E-04   4.6415365E+05   -1.8041436E+00
   1.6753751E-04   4.6031193E+05   -1.8035944E+00
   1.6831122E-04   4.5650316E+05   -1.8030446E+00
   1.6908849E-04   4.5272705E+05   -1.8024943E+00
   1.6986936E-04   4.4898331E+05   -1.8019435E+00
   1.7065384E-04   4.4527167E+05   -1.8013921E+00
   1.7144193E-04   4.4159183E+05   -1.8008402E+00
   1.7223367E-04   4.3794351E+05   -1.8002878E+00
   1.7302906E-04   4.3432645E+05   -1.7997349E+00
   1.7382813E-04   4.3074035E+05   -1.7991815E+00
   1.7463089E-04   4.2718496E+05   -1.7986275E+00
   1.7543735E-04   4.2365999E+05   -1.7980731E+00
   1.7624754E-04   4.2016518E+05   -1.7975182E+00
   1.7706147E-04   4.1670027E+05   -1.7969628E+00
   1.7787916E-04   4.1326499E+05   -1.7964069E+00
   1.7870062E-04   4.0985908E+05   -1.7958506E+00
   1.7952588E-04   4.0648228E+05   -1.7952937E+00
   1.8035495E-04   4.0313434E+05   -1.7947364E+00
   1.8118785E-04   3.9981500E+05   -1.7941787E+00
   1.8202459E-04   3.9652401E+05   -1.7936205E+00
   1.8286520E-04   3.9326112E+05   -1.7930618E+00
   1.8370969E-04   3.9002608E+05   -1.7925027E+00
   1.8455808E-04   3.8681866E+05   -1.7919432E+00
   1.8541039E-04   3.8363860E+05   -1.7913832E+00
   1.8626663E-04   3.8048566E+05   -1.7908228E+00
   1.8712683E-04   3.7735962E+05   -1.7902620E+00
   1.8799100E-04   3.7426022E+05   -1.7897007E+00
   1.8885917E-04   3.7118724E+05   -1.7891391E+00
   1.8973134E-04   3.6814044E+05   -1.7885770E+00
   1.9060754E-04   3.6511960E+05   -1.7880146E+00
   1.9148778E-04   3.6212449E+05   -1.7874517E+00
   1.9237209E-04   3.5915488E+05   -1.7868885E+00
   1.9326049E-04   3.5621054E+05   -1.7863248E+00
   1.9415299E-04   3.5329126E+05   -1.7857608E+00
   1.9504960E-04   3.5039681E+05   -1.7851965E+00
   1.9595036E-04   3.4752699E+05   -1.7846317E+00
   1.9685528E-04   3.4468156E+05   -1.7840666E+00
   1.9776438E-04   3.4186032E+05   -1.7835012E+00
   1.9867768E-04   3.3906306E+05   -1.7829354E+00
   1.9959519E-04   3.3628956E+05   -1.7823692E+00
   2.0051694E-04   3.3353963E+05   -1.7818027E+00
   2.0144295E-04   3.3081304E+05   -1.7812359E+00
   2.0237324E-04   3.2810959E+05   -1.7806688E+00
   2.0330782E-04   3.2542909E+05   -1.7801013E+00
   2.0424671E-04   3.2277134E+05   -1.7795335E+00
   2.0518995E-04   3.2013612E+05   -1.7789654E+00
   2.0613754E-04   3.1752326E+05   -1.7783970E+00
   2.0708950E-04   3.1493254E+05   -1.7778283E+00
   2.0804586E-04   3.1236378E+05   -1.7772593E+00
   2.0900664E-04   3.0981678E+05   -1.7766901E+00
   2.0997185E-04   3.0729136E+05   -1.7761205E+00
   2.1094152E-04   3.0478733E+05   -1.7755507E+00
   2.1191567E-04   3.0230449E+05   -1.7749806E+00
   2.1289432E-04   2.9984267E+05   -1.7744102E+00
   2.1387749E-04   2.9740167E+05   -1.7738396E+00
   2.1486520E-04   2.9498133E+05   -1.7732688E+00
   2.1585747E-04   2.9258145E+05   -1.7726976E+00
   2.1685432E-04   2.9020186E+05   -1.7721263E+00
   2.1785578E-04   2.8784238E+05   -1.7715547E+00
   2.1886186E-04   2.8550283E+05   -1.7709829E+00
   2.1987259E-04   2.8318305E+05   -1.7704109E+00
   2.2088798E-04   2.8088286E+05   -1.7698386E+00
   2.2190807E-04   2.7860209E+05   -1.7692662E+00
   2.2293286E-04   2.7634056E+05   -1.7686935E+00
   2.2396239E-04   2.7409812E+05   -1.7681206E+00
   2.2499667E-04   2.7187459E+05   -1.7675476E+00
   2.2603573E-04   2.6966981E+05   -1.7669743E+00
   2.2707958E-04   2.6748361E+05   -1.7664009E+00
   2.2812826E-04   2.6531584E+05   -1.7658273E+00
   2.2918178E-04   2.6316634E+05   -1.7652536E+00
   2.3024017E-04   2.6103494E+05   -1.7646797E+00
   2.3130344E-04   2.5892148E+05   -1.7641056E+00
   2.3237162E-04   2.5682582E+05   -1.7635314E+00
   2.3344474E-04   2.5474779E+05   -1.7629570E+00
   2.3452281E-04   2.5268725E+05   -1.7623825E+00
   2.3560586E-04   2.5064404E+05   -1.7618078E+00
   2.3669392E-04   2.4861800E+05   -1.7612331E+00
   2.3778699E-04   2.4660900E+05   -1.7606582E+00
   2.3888512E-04   2.4461688E+05   -1.7600832E+00
   2.3998831E-04   2.4264149E+05   -1.7595081E+00
   2.4109661E-04   2.4068270E+05   -1.7589329E+00
   2.4221001E-04   2.3874035E+05   -1.7583576E+00
   2.4332857E-04   2.3681430E+05   -1.7577822E+00
   2.4445228E-04   2.3490441E+05   -1.7572067E+00
   2.4558119E-04   2.3301054E+05   -1.7566312E+00
   2.4671531E-04   2.3113256E+05   -1.7560556E+00
   2.4785467E-04   2.2927032E+05   -1.7554799E+00
   2.4899928E-04   2.2742369E+05   -1.7549041E+00
   2.5014919E-04   2.2559253E+05   -1.7543283E+00
   2.5130440E-04   2.2377671E+05   -1.7537525E+00
   2.5246495E-04   2.2197609E+05   -1.7531766E+00
   2.5363086E-04   2.2019054E+05   -1.7526007E+00
   2.5480216E-04   2.1841994E+05   -1.7520248E+00
   2.5597886E-04   2.1666415E+05   -1.7514488E+00
   2.5716100E-04   2.1492304E+05   -1.7508728E+00
   2.5834859E-04   2.1319650E+05   -1.7502968E+00
   2.5954168E-04   2.1148438E+05   -1.7497208E+00
   2.6074027E-04   2.0978657E+05   -1.7491448E+00
   2.6194439E-04   2.0810294E+05   -1.7485689E+00
   2.6315408E-04   2.0643337E+05   -1.7479929E+00
   2.6436935E-04   2.0477774E+05   -1.7474169E+00
   2.6559024E-04   2.0313593E+05   -1.7468410E+00
   2.6681676E-04   2.0150781E+05   -1.7462651E+00
   2.6804895E-04   1.9989328E+05   -1.7456893E+00
   2.6928683E-04   1.9829220E+05   -1.7451135E+00
   2.7053042E-04   1.9670447E+05   -1.7445377E+00
   2.7177976E-04   1.9512998E+05   -1.7439620E+00
   2.7303487E-04   1.9356860E+05   -1.7433864E+00
   2.7429577E-04   1.9202022E+05   -1.7428108E+00
   2.7556250E-04   1.9048473E+05   -1.7422354E+00
   2.7683507E-04   1.8896202E+05   -1.7416600E+00
   2.7811353E-04   1.8745199E+05   -1.7410846E+00
   2.7939788E-04   1.8595451E+05   -1.7405094E+00
   2.8068817E-04   1.8446948E+05   -1.7399343E+00
   2.8198442E-04   1.8299680E+05   -1.7393593E+00
   2.8328665E-04   1.8153635E+05   -1.7387844E+00
   2.8459490E-04   1.8008804E+05   -1.7382096E+00
   2.8590919E-04   1.7865176E+05   -1.7376349E+00
   2.8722955E-04   1.7722740E+05   -1.7370604E+00
   2.8855600E-04   1.7581486E+05   -1.7364860E+00
   2.8988859E-04   1.7441404E+05   -1.7359118E+00
   2.9122732E-04   1.7302484E+05   -1.7353377E+00
   2.9257224E-04   1.7164716E+05   -1.7347637E+00
   2.9392337E-04   1.7028090E+05   -1.7341899E+00
   2.9528074E-04   1.6892596E+05   -1.7336163E+00
   2.9664438E-04   1.6758224E+05   -1.7330429E+00
   2.9801431E-04   1.6624965E+05   -1.7324696E+00
   2.9939057E-04   1.6492810E+05   -1.7318965E+00
   3.0077319E-04   1.6361748E+05   -1.7313236E+00
   3.0216219E-04   1.6231770E+05   -1.7307509E+00
   3.0355761E-04   1.6102868E+05   -1.7301784E+00
   3.0495947E-04   1.5975031E+05   -1.7296062E+00
   3.0636780E-04   1.5848251E+05   -1.7290341E+00
   3.0778264E-04   1.5722519E+05   -1.7284622E+00
   3.0920401E-04   1.5597825E+05   -1.7278906E+00
   3.1063195E-04   1.5474160E+05   -1.7273192E+00
   3.1206648E-04   1.5351517E+05   -1.7267481E+00
   3.1350764E-04   1.5229886E+05   -1.7261772E+00
   3.1495545E-04   1.5109258E+05   -1.7256065E+00
   3.1640994E-04   1.4989625E+05   -1.7250361E+00
   3.1787116E-04   1.4870978E+05   -1.7244660E+00
   3.1933912E-04   1.4753310E+05   -1.7238961E+00
   3.2081386E-04   1.4636610E+05   -1.7233265E+00
   3.2229541E-04   1.4520872E+05   -1.7227572E+00
   3.2378381E-04   1.4406087E+05   -1.7221881E+00
   3.2527908E-04   1.4292247E+05   -1.7216194E+00
   3.2678125E-04   1.4179343E+05   -1.7210509E+00
   3.2829036E-04   1.4067368E+05   -1.7204828E+00
   3.2980644E-04   1.3956314E+05   -1.7199150E+00
   3.3132952E-04   1.3846173E+05   -1.7193474E+00
   3.3285963E-04   1.3736937E+05   -1.7187802E+00
   3.3439681E-04   1.3628598E+05   -1.7182134E+00
   3.3594109E-04   1.3521149E+05   -1.7176468E+00
   3.3749250E-04   1.3414583E+05   -1.7170806E+00
   3.3905108E-04   1.3308891E+05   -1.7165148E+00
   3.4061685E-04   1.3204066E+05   -1.7159492E+00
   3.4218986E-04   1.3100100E+05   -1.7153841E+00
   3.4377013E-04   1.2996988E+05   -1.7148193E+00
   3.4535769E-04   1.2894720E+05   -1.7142548E+00
   3.4695259E-04   1.2793290E+05   -1.7136908E+00
   3.4855485E-04   1.2692691E+05   -1.7131271E+00
   3.5016452E-04   1.2592916E+05   -1.7125638E+00
   3.5178161E-04   1.2493958E+05   -1.7120009E+00
   3.5340618E-04   1.2395809E+05   -1.7114383E+00
   3.5503824E-04   1.2298464E+05   -1.7108762E+00
   3.5667785E-04   1.2201914E+05   -1.7103145E+00
   3.5832502E-04   1.2106154E+05   -1.7097532E+00
   3.5997981E-04   1.2011176E+05   -1.7091923E+00
   3.6164223E-04   1.1916974E+05   -1.7086318E+00
   3.6331233E-04   1.1823542E+05   -1.7080718E+00
   3.6499015E-04   1.1730872E+05   -1.7075121E+00
   3.6667571E-04   1.1638958E+05   -1.7069530E+00
   3.6836906E-04   1.1547795E+05   -1.7063942E+00
   3.7007022E-04   1.1457375E+05   -1.7058359E+00
   3.7177925E-04   1.1367692E+05   -1.7052781E+00
   3.7349616E-04   1.1278740E+05   -1.7047207E+00
   3.7522101E-04   1.1190513E+05   -1.7041638E+00
   3.7695382E-04   1.1103005E+05   -1.7036074E+00
   3.7869463E-04   1.1016209E+05   -1.7030514E+00
   3.8044348E-04   1.0930120E+05   -1.7024959E+00
   3.8220041E-04   1.0844731E+05   -1.7019409E+00
   3.8396545E-04   1.0760037E+05   -1.7013864E+00
   3.8573864E-04   1.0676031E+05   -1.7008324E+00
   3.8752002E-04   1.0592708E+05   -1.7002789E+00
   3.8930963E-04   1.0510063E+05   -1.6997259E+00
   3.9110750E-04   1.0428089E+05   -1.6991734E+00
   3.9291368E-04   1.0346780E+05   -1.6986214E+00
   3.9472820E-04   1.0266132E+05   -1.6980700E+00
   3.9655109E-04   1.0186138E+05   -1.6975190E+00
   3.9838241E-04   1.0106793E+05   -1.6969686E+00
   4.0022218E-04   1.0028091E+05   -1.6964188E+00
   4.0207045E-04   9.9500275E+04   -1.6958694E+00
   4.0392725E-04   9.8725967E+04   -1.6953207E+00
   4.0579263E-04   9.7957932E+04   -1.6947724E+00
   4.0766662E-04   9.7196117E+04   -1.6942248E+00
   4.0954927E-04   9.6440470E+04   -1.6936777E+00
   4.1144061E-04   9.5690939E+04   -1.6931312E+00
   4.1334068E-04   9.4947472E+04   -1.6925852E+00
   4.1524953E-04   9.4210019E+04   -1.6920398E+00
   4.1716720E-04   9.3478527E+04   -1.6914950E+00
   4.1909372E-04   9.2752948E+04   -1.6909508E+00
   4.2102914E-04   9.2033232E+04   -1.6904072E+00
   4.2297350E-04   9.1319329E+04   -1.6898641E+00
   4.2492683E-04   9.0611190E+04   -1.6893217E+00
   4.2688919E-04   8.9908767E+04   -1.6887799E+00
   4.2886061E-04   8.9212013E+04   -1.6882387E+00
   4.3084113E-04   8.8520878E+04   -1.6876981E+00
   4.3283080E-04   8.7835316E+04   -1.6871581E+00
   4.3482966E-04   8.7155280E+04   -1.6866187E+00
   4.3683775E-04   8.6480724E+04   -1.6860800E+00
   4.3885511E-04   8.5811602E+04   -1.6855419E+00
   4.4088179E-04   8.5147868E+04   -1.6850044E+00
   4.4291783E-04   8.4489477E+04   -1.6844676E+00
   4.4496327E-04   8.3836384E+04   -1.6839315E+00
   4.4701816E-04   8.3188544E+04   -1.6833959E+00
   4.4908253E-04   8.2545914E+04   -1.6828611E+00
   4.5115644E-04   8.1908451E+04   -1.6823269E+00
   4.5323993E-04   8.1276110E+04   -1.6817934E+00
   4.5533304E-04   8.0648849E+04   -1.6812605E+00
   4.5743582E-04   8.0026625E+04   -1.6807283E+00
   4.5954830E-04   7.9409397E+04   -1.6801968E+00
   4.6167054E-04   7.8797122E+04   -1.6796660E+00
   4.6380259E-04   7.8189758E+04   -1.6791358E+00
   4.6594448E-04   7.7587266E+04   -1.6786064E+00
   4.6809626E-04   7.6989604E+04   -1.6780776E+00
   4.7025797E-04   7.6396732E+04   -1.6775496E+00
   4.7242967E-04   7.5808610E+04   -1.6770222E+00
   4.7461140E-04   7.5225197E+04   -1.6764956E+00
   4.7680321E-04   7.4646456E+04   -1.6759696E+00
   4.7900514E-04   7.4072346E+04   -1.6754444E+00
   4.8121723E-04   7.3502830E+04   -1.6749199E+00
   4.8343954E-04   7.2937869E+04   -1.6743962E+00
   4.8567212E-04   7.2377425E+04   -1.6738731E+00
   4.8791500E-04   7.1821460E+04   -1.6733508E+00
   4.9016825E-04   7.1269937E+04   -1.6728292E+00
   4.9243189E-04   7.0722819E+04   -1.6723084E+00
   4.9470600E-04   7.0180070E+04   -1.6717883E+00
   4.9699060E-04   6.9641652E+04   -1.6712690E+00
   4.9928575E-04   6.9107531E+04   -1.6707504E+00
   5.0159151E-04   6.8577669E+04   -1.6702325E+00
   5.0390791E-04   6.8052033E+04   -1.6697155E+00
   5.0623501E-04   6.7530586E+04   -1.6691992E+00
   5.0857286E-04   6.7013294E+04   -1.6686836E+00
   5.1092150E-04   6.6500122E+04   -1.6681688E+00
   5.1328099E-04   6.5991037E+04   -1.6676549E+00
   5.1565137E-04   6.5486003E+04   -1.6671416E+00
   5.1803270E-04   6.4984989E+04   -1.6666292E+00
   5.2042503E-04   6.4487959E+04   -1.6661175E+00
   5.2282841E-04   6.3994882E+04   -1.6656067E+00
   5.2524289E-04   6.3505724E+04   -1.6650966E+00
   5.2766851E-04   6.3020454E+04   -1.6645873E+00
   5.3010534E-04   6.2539038E+04   -1.6640789E+00
   5.3255342E-04   6.2061444E+04   -1.6635712E+00
   5.3501281E-04   6.1587642E+04   -1.6630643E+00
   5.3748356E-04   6.1117600E+04   -1.6625583E+00
   5.3996571E-04   6.0651287E+04   -1.6620531E+00
   5.4245933E-04   6.0188671E+04   -1.6615486E+00
   5.4496446E-04   5.9729723E+04   -1.6610450E+00
   5.4748117E-04   5.9274411E+04   -1.6605423E+00
   5.5000949E-04   5.8822707E+04   -1.6600403E+00
   5.5254949E-04   5.8374580E+04   -1.6595392E+00
   5.5510123E-04   5.7930000E+04   -1.6590389E+00
   5.5766474E-04   5.7488939E+04   -1.6585395E+00
   5.6024010E-04   5.7051367E+04   -1.6580409E+00
   5.6282734E-04   5.6617255E+04   -1.6575431E+00
   5.6542654E-04   5.6186575E+04   -1.6570462E+00
   5.6803774E-04   5.5759299E+04   -1.6565501E+00
   5.7066099E-04   5.5335399E+04   -1.6560549E+00
   5.7329637E-04   5.4914846E+04   -1.6555606E+00
   5.7594391E-04   5.4497614E+04   -1.6550671E+00
   5.7860368E-04   5.4083675E+04   -1.6545744E+00
   5.8127573E-04   5.3673001E+04   -1.6540826E+00
   5.8396012E-04   5.3265567E+04   -1.6535917E+00
   5.8665691E-04   5.2861345E+04   -1.6531017E+00
   5.8936616E-04   5.2460308E+04   -1.6526125E+00
   5.9208791E-04   5.2062432E+04   -1.6521243E+00
   5.9482223E-04   5.1667689E+04   -1.6516368E+00
   5.9756919E-04   5.1276054E+04   -1.6511503E+00
   6.0032882E-04   5.0887502E+04   -1.6506647E+00
   6.0310120E-04   5.0502007E+04   -1.6501799E+00
   6.0588639E-04   5.0119543E+04   -1.6496961E+00
   6.0868443E-04   4.9740088E+04   -1.6492131E+00
   6.1149540E-04   4.9363615E+04   -1.6487310E+00
   6.1431935E-04   4.8990100E+04   -1.6482498E+00
   6.1715634E-04   4.8619519E+04   -1.6477695E+00
   6.2000644E-04   4.8251848E+04   -1.6472902E+00
   6.2286969E-04   4.7887063E+04   -1.6468117E+00
