#        a       HoverH0(a)       dlogHdloga_of_a(a)
   1.0000000E-04   1.0655397E+06   -1.8705039E+00
   1.0046181E-04   1.0563971E+06   -1.8700613E+00
   1.0092575E-04   1.0473351E+06   -1.8696176E+00
   1.0139184E-04   1.0383529E+06   -1.8691731E+00
   1.0186008E-04   1.0294499E+06   -1.8687275E+00
   1.0233048E-04   1.0206253E+06   -1.8682810E+00
   1.0280305E-04   1.0118785E+06   -1.8678334E+00
   1.0327781E-04   1.0032086E+06   -1.8673850E+00
   1.0375475E-04   9.9461516E+05   -1.8669355E+00
   1.0423390E-04   9.8609734E+05   -1.8664851E+00
   1.0471527E-04   9.7765449E+05   -1.8660337E+00
   1.0519885E-04   9.6928595E+05   -1.8655813E+00
   1.0568467E-04   9.6099105E+05   -1.8651280E+00
   1.0617274E-04   9.5276912E+05   -1.8646737E+00
   1.0666305E-04   9.4461952E+05   -1.8642184E+00
   1.0715563E-04   9.3654160E+05   -1.8637622E+00
   1.0765049E-04   9.2853470E+05   -1.8633051E+00
   1.0814763E-04   9.2059821E+05   -1.8628469E+00
   1.0864707E-04   9.1273147E+05   -1.8623878E+00
   1.0914881E-04   9.0493388E+05   -1.8619278E+00
   1.0965287E-04   8.9720481E+05   -1.8614668E+00
   1.1015926E-04   8.8954364E+05   -1.8610049E+00
   1.1066799E-04   8.8194976E+05   -1.8605420E+00
   1.1117906E-04   8.7442258E+05   -1.8600782E+00
   1.1169250E-04   8.6696150E+05   -1.8596135E+00
   1.1220831E-04   8.5956593E+05   -1.8591478E+00
   1.1272650E-04   8.5223527E+05   -1.8586811E+00
   1.1324708E-04   8.4496894E+05   -1.8582135E+00
   1.1377007E-04   8.3776638E+05   -1.8577450E+00
   1.1429547E-04   8.3062701E+05   -1.8572756E+00
   1.1482330E-04   8.2355027E+05   -1.8568052E+00
   1.1535356E-04   8.1653559E+05   -1.8563339E+00
   1.1588628E-04   8.0958241E+05   -1.8558617E+00
   1.1642145E-04   8.0269019E+05   -1.8553886E+00
   1.1695910E-04   7.9585839E+05   -1.8549145E+00
   1.1749923E-04   7.8908646E+05   -1.8544395E+00
   1.1804185E-04   7.8237386E+05   -1.8539636E+00
   1.1858698E-04   7.7572006E+05   -1.8534868E+00
   1.1913463E-04   7.6912455E+05   -1.8530091E+00
   1.1968481E-04   7.6258679E+05   -1.8525305E+00
   1.2023752E-04   7.5610628E+05   -1.8520509E+00
   1.2079279E-04   7.4968250E+05   -1.8515705E+00
   1.2135063E-04   7.4331494E+05   -1.8510892E+00
   1.2191104E-04   7.3700310E+05   -1.8506069E+00
   1.2247403E-04   7.3074648E+05   -1.8501238E+00
   1.2303963E-04   7.2454459E+05   -1.8496398E+00
   1.2360784E-04   7.1839694E+05   -1.8491549E+00
   1.2417868E-04   7.1230304E+05   -1.8486691E+00
   1.2475215E-04   7.0626242E+05   -1.8481824E+00
   1.2532826E-04   7.0027459E+05   -1.8476948E+00
   1.2590704E-04   6.9433910E+05   -1.8472064E+00
   1.2648850E-04   6.8845546E+05   -1.8467171E+00
   1.2707263E-04   6.8262322E+05   -1.8462269E+00
   1.2765947E-04   6.7684192E+05   -1.8457358E+00
   1.2824901E-04   6.7111110E+05   -1.8452439E+00
   1.2884128E-04   6.6543031E+05   -1.8447511E+00
   1.2943628E-04   6.5979911E+05   -1.8442574E+00
   1.3003403E-04   6.5421705E+05   -1.8437629E+00
   1.3063454E-04   6.4868370E+05   -1.8432675E+00
   1.3123783E-04   6.4319862E+05   -1.8427713E+00
   1.3184390E-04   6.3776138E+05   -1.8422742E+00
   1.3245277E-04   6.3237155E+05   -1.8417763E+00
   1.3306445E-04   6.2702871E+05   -1.8412776E+00
   1.3367895E-04   6.2173244E+05   -1.8407780E+00
   1.3429630E-04   6.1648232E+05   -1.8402775E+00
   1.3491649E-04   6.1127795E+05   -1.8397763E+00
   1.3553955E-04   6.0611892E+05   -1.8392742E+00
   1.3616548E-04   6.0100482E+05   -1.8387712E+00
   1.3679431E-04   5.9593526E+05   -1.8382675E+00
   1.3742604E-04   5.9090982E+05   -1.8377629E+00
   1.3806069E-04   5.8592813E+05   -1.8372575E+00
   1.3869827E-04   5.8098980E+05   -1.8367513E+00
   1.3933879E-04   5.7609443E+05   -1.8362443E+00
   1.3998227E-04   5.7124164E+05   -1.8357365E+00
   1.4062872E-04   5.6643105E+05   -1.8352279E+00
   1.4127816E-04   5.6166230E+05   -1.8347184E+00
   1.4193060E-04   5.5693500E+05   -1.8342082E+00
   1.4258605E-04   5.5224878E+05   -1.8336972E+00
   1.4324453E-04   5.4760329E+05   -1.8331854E+00
   1.4390605E-04   5.4299816E+05   -1.8326728E+00
   1.4457062E-04   5.3843303E+05   -1.8321595E+00
   1.4523826E-04   5.3390754E+05   -1.8316453E+00
   1.4590899E-04   5.2942135E+05   -1.8311304E+00
   1.4658281E-04   5.2497409E+05   -1.8306147E+00
   1.4725974E-04   5.2056543E+05   -1.8300983E+00
   1.4793981E-04   5.1619503E+05   -1.8295810E+00
   1.4862301E-04   5.1186253E+05   -1.8290631E+00
   1.4930936E-04   5.0756762E+05   -1.8285443E+00
   1.4999889E-04   5.0330994E+05   -1.8280248E+00
   1.5069160E-04   4.9908917E+05   -1.8275046E+00
   1.5138751E-04   4.9490499E+05   -1.8269836E+00
   1.5208663E-04   4.9075706E+05   -1.8264619E+00
   1.5278899E-04   4.8664507E+05   -1.8259394E+00
   1.5349458E-04   4.8256870E+05   -1.8254163E+00
   1.5420343E-04   4.7852762E+05   -1.8248923E+00
   1.5491556E-04   4.7452154E+05   -1.8243677E+00
   1.5563098E-04   4.7055012E+05   -1.8238423E+00
   1.5634970E-04   4.6661308E+05   -1.8233163E+00
   1.5707174E-04   4.6271010E+05   -1.8227895E+00
   1.5779711E-04   4.5884088E+05   -1.8222620E+00
   1.5852584E-04   4.5500512E+05   -1.8217338E+00
   1.5925792E-04   4.5120253E+05   -1.8212049E+00
   1.5999339E-04   4.4743281E+05   -1.8206753E+00
   1.6073226E-04   4.4369566E+05   -1.8201450E+00
   1.6147454E-04   4.3999080E+05   -1.8196141E+00
   1.6222024E-04   4.3631795E+05   -1.8190824E+00
   1.6296939E-04   4.3267682E+05   -1.8185501E+00
   1.6372200E-04   4.2906713E+05   -1.8180171E+00
   1.6447809E-04   4.2548860E+05   -1.8174834E+00
   1.6523767E-04   4.2194095E+05   -1.8169491E+00
   1.6600075E-04   4.1842391E+05   -1.8164141E+00
   1.6676736E-04   4.1493721E+05   -1.8158785E+00
   1.6753751E-04   4.1148059E+05   -1.8153422E+00
   1.6831122E-04   4.0805376E+05   -1.8148052E+00
   1.6908849E-04   4.0465648E+05   -1.8142676E+00
   1.6986936E-04   4.0128847E+05   -1.8137294E+00
   1.7065384E-04   3.9794949E+05   -1.8131906E+00
   1.7144193E-04   3.9463926E+05   -1.8126511E+00
   1.7223367E-04   3.9135755E+05   -1.8121110E+00
   1.7302906E-04   3.8810409E+05   -1.8115702E+00
   1.7382813E-04   3.8487864E+05   -1.8110289E+00
   1.7463089E-04   3.8168095E+05   -1.8104869E+00
   1.7543735E-04   3.7851077E+05   -1.8099444E+00
   1.7624754E-04   3.7536786E+05   -1.8094012E+00
   1.7706147E-04   3.7225198E+05   -1.8088575E+00
   1.7787916E-04   3.6916289E+05   -1.8083131E+00
   1.7870062E-04   3.6610035E+05   -1.8077682E+00
   1.7952588E-04   3.6306413E+05   -1.8072227E+00
   1.8035495E-04   3.6005400E+05   -1.8066766E+00
   1.8118785E-04   3.5706972E+05   -1.8061300E+00
   1.8202459E-04   3.5411107E+05   -1.8055827E+00
   1.8286520E-04   3.5117782E+05   -1.8050350E+00
   1.8370969E-04   3.4826975E+05   -1.8044866E+00
   1.8455808E-04   3.4538663E+05   -1.8039377E+00
   1.8541039E-04   3.4252825E+05   -1.8033883E+00
   1.8626663E-04   3.3969438E+05   -1.8028383E+00
   1.8712683E-04   3.3688482E+05   -1.8022878E+00
   1.8799100E-04   3.3409933E+05   -1.8017368E+00
   1.8885917E-04   3.3133772E+05   -1.8011852E+00
   1.8973134E-04   3.2859978E+05   -1.8006331E+00
   1.9060754E-04   3.2588528E+05   -1.8000805E+00
   1.9148778E-04   3.2319404E+05   -1.7995274E+00
   1.9237209E-04   3.2052583E+05   -1.7989738E+00
   1.9326049E-04   3.1788047E+05   -1.7984196E+00
   1.9415299E-04   3.1525774E+05   -1.7978650E+00
   1.9504960E-04   3.1265745E+05   -1.7973099E+00
   1.9595036E-04   3.1007941E+05   -1.7967543E+00
   1.9685528E-04   3.0752341E+05   -1.7961983E+00
   1.9776438E-04   3.0498926E+05   -1.7956417E+00
   1.9867768E-04   3.0247676E+05   -1.7950847E+00
   1.9959519E-04   2.9998574E+05   -1.7945272E+00
   2.0051694E-04   2.9751599E+05   -1.7939693E+00
   2.0144295E-04   2.9506734E+05   -1.7934109E+00
   2.0237324E-04   2.9263959E+05   -1.7928521E+00
   2.0330782E-04   2.9023257E+05   -1.7922928E+00
   2.0424671E-04   2.8784609E+05   -1.7917331E+00
   2.0518995E-04   2.8547996E+05   -1.7911729E+00
   2.0613754E-04   2.8313402E+05   -1.7906124E+00
   2.0708950E-04   2.8080808E+05   -1.7900514E+00
   2.0804586E-04   2.7850197E+05   -1.7894900E+00
   2.0900664E-04   2.7621551E+05   -1.7889282E+00
   2.0997185E-04   2.7394853E+05   -1.7883660E+00
   2.1094152E-04   2.7170086E+05   -1.7878033E+00
   2.1191567E-04   2.6947233E+05   -1.7872403E+00
   2.1289432E-04   2.6726278E+05   -1.7866769E+00
   2.1387749E-04   2.6507203E+05   -1.7861132E+00
   2.1486520E-04   2.6289992E+05   -1.7855490E+00
   2.1585747E-04   2.6074629E+05   -1.7849845E+00
   2.1685432E-04   2.5861097E+05   -1.7844196E+00
   2.1785578E-04   2.5649381E+05   -1.7838544E+00
   2.1886186E-04   2.5439464E+05   -1.7832888E+00
   2.1987259E-04   2.5231331E+05   -1.7827228E+00
   2.2088798E-04   2.5024966E+05   -1.7821565E+00
   2.2190807E-04   2.4820354E+05   -1.7815899E+00
   2.2293286E-04   2.4617479E+05   -1.7810230E+00
   2.2396239E-04   2.4416326E+05   -1.7804557E+00
   2.2499667E-04   2.4216880E+05   -1.7798881E+00
   2.2603573E-04   2.4019126E+05   -1.7793202E+00
   2.2707958E-04   2.3823049E+05   -1.7787520E+00
   2.2812826E-04   2.3628635E+05   -1.7781834E+00
   2.2918178E-04   2.3435869E+05   -1.7776146E+00
   2.3024017E-04   2.3244736E+05   -1.7770455E+00
   2.3130344E-04   2.3055223E+05   -1.7764761E+00
   2.3237162E-04   2.2867314E+05   -1.7759065E+00
   2.3344474E-04   2.2680997E+05   -1.7753365E+00
   2.3452281E-04   2.2496257E+05   -1.7747663E+00
   2.3560586E-04   2.2313080E+05   -1.7741959E+00
   2.3669392E-04   2.2131453E+05   -1.7736251E+00
   2.3778699E-04   2.1951362E+05   -1.7730542E+00
   2.3888512E-04   2.1772794E+05   -1.7724830E+00
   2.3998831E-04   2.1595735E+05   -1.7719115E+00
   2.4109661E-04   2.1420173E+05   -1.7713398E+00
   2.4221001E-04   2.1246094E+05   -1.7707679E+00
   2.4332857E-04   2.1073485E+05   -1.7701958E+00
   2.4445228E-04   2.0902333E+05   -1.7696235E+00
   2.4558119E-04   2.0732626E+05   -1.7690509E+00
   2.4671531E-04   2.0564352E+05   -1.7684782E+00
   2.4785467E-04   2.0397497E+05   -1.7679052E+00
   2.4899928E-04   2.0232049E+05   -1.7673321E+00
   2.5014919E-04   2.0067996E+05   -1.7667588E+00
   2.5130440E-04   1.9905326E+05   -1.7661853E+00
   2.5246495E-04   1.9744027E+05   -1.7656116E+00
   2.5363086E-04   1.9584086E+05   -1.7650378E+00
   2.5480216E-04   1.9425493E+05   -1.7644638E+00
   2.5597886E-04   1.9268235E+05   -1.7638897E+00
   2.5716100E-04   1.9112300E+05   -1.7633154E+00
   2.5834859E-04   1.8957678E+05   -1.7627409E+00
   2.5954168E-04   1.8804356E+05   -1.7621664E+00
   2.6074027E-04   1.8652324E+05   -1.7615917E+00
   2.6194439E-04   1.8501570E+05   -1.7610168E+00
   2.6315408E-04   1.8352083E+05   -1.7604419E+00
   2.6436935E-04   1.8203852E+05   -1.7598669E+00
   2.6559024E-04   1.8056866E+05   -1.7592917E+00
   2.6681676E-04   1.7911114E+05   -1.7587164E+00
   2.6804895E-04   1.7766586E+05   -1.7581411E+00
   2.6928683E-04   1.7623271E+05   -1.7575657E+00
   2.7053042E-04   1.7481158E+05   -1.7569902E+00
   2.7177976E-04   1.7340238E+05   -1.7564146E+00
   2.7303487E-04   1.7200499E+05   -1.7558389E+00
   2.7429577E-04   1.7061931E+05   -1.7552632E+00
   2.7556250E-04   1.6924524E+05   -1.7546874E+00
   2.7683507E-04   1.6788269E+05   -1.7541116E+00
   2.7811353E-04   1.6653155E+05   -1.7535357E+00
   2.7939788E-04   1.6519171E+05   -1.7529598E+00
   2.8068817E-04   1.6386310E+05   -1.7523839E+00
   2.8198442E-04   1.6254560E+05   -1.7518079E+00
   2.8328665E-04   1.6123912E+05   -1.7512319E+00
   2.8459490E-04   1.5994357E+05   -1.7506559E+00
   2.8590919E-04   1.5865885E+05   -1.7500799E+00
   2.8722955E-04   1.5738487E+05   -1.7495039E+00
   2.8855600E-04   1.5612153E+05   -1.7489279E+00
   2.8988859E-04   1.5486874E+05   -1.7483519E+00
   2.9122732E-04   1.5362641E+05   -1.7477759E+00
   2.9257224E-04   1.5239445E+05   -1.7472000E+00
   2.9392337E-04   1.5117277E+05   -1.7466241E+00
   2.9528074E-04   1.4996129E+05   -1.7460482E+00
   2.9664438E-04   1.4875991E+05   -1.7454723E+00
   2.9801431E-04   1.4756854E+05   -1.7448965E+00
   2.9939057E-04   1.4638710E+05   -1.7443208E+00
   3.0077319E-04   1.4521551E+05   -1.7437451E+00
   3.0216219E-04   1.4405368E+05   -1.7431695E+00
   3.0355761E-04   1.4290152E+05   -1.7425939E+00
   3.0495947E-04   1.4175895E+05   -1.7420185E+00
   3.0636780E-04   1.4062589E+05   -1.7414431E+00
   3.0778264E-04   1.3950226E+05   -1.7408678E+00
   3.0920401E-04   1.3838797E+05   -1.7402926E+00
   3.1063195E-04   1.3728294E+05   -1.7397175E+00
   3.1206648E-04   1.3618710E+05   -1.7391425E+00
   3.1350764E-04   1.3510037E+05   -1.7385676E+00
   3.1495545E-04   1.3402266E+05   -1.7379929E+00
   3.1640994E-04   1.3295390E+05   -1.7374183E+00
   3.1787116E-04   1.3189401E+05   -1.7368438E+00
   3.1933912E-04   1.3084292E+05   -1.7362694E+00
   3.2081386E-04   1.2980055E+05   -1.7356952E+00
   3.2229541E-04   1.2876682E+05   -1.7351211E+00
   3.2378381E-04   1.2774166E+05   -1.7345472E+00
   3.2527908E-04   1.2672500E+05   -1.7339735E+00
   3.2678125E-04   1.2571677E+05   -1.7333999E+00
   3.2829036E-04   1.2471688E+05   -1.7328265E+00
   3.2980644E-04   1.2372528E+05   -1.7322533E+00
   3.3132952E-04   1.2274188E+05   -1.7316803E+00
   3.3285963E-04   1.2176662E+05   -1.7311075E+00
   3.3439681E-04   1.2079943E+05   -1.7305348E+00
   3.3594109E-04   1.1984023E+05   -1.7299624E+00
   3.3749250E-04   1.1888897E+05   -1.7293902E+00
   3.3905108E-04   1.1794557E+05   -1.7288182E+00
   3.4061685E-04   1.1700996E+05   -1.7282464E+00
   3.4218986E-04   1.1608208E+05   -1.7276748E+00
   3.4377013E-04   1.1516186E+05   -1.7271035E+00
   3.4535769E-04   1.1424924E+05   -1.7265324E+00
   3.4695259E-04   1.1334414E+05   -1.7259616E+00
   3.4855485E-04   1.1244652E+05   -1.7253910E+00
   3.5016452E-04   1.1155629E+05   -1.7248207E+00
   3.5178161E-04   1.1067341E+05   -1.7242506E+00
   3.5340618E-04   1.0979779E+05   -1.7236809E+00
   3.5503824E-04   1.0892940E+05   -1.7231113E+00
   3.5667785E-04   1.0806815E+05   -1.7225421E+00
   3.5832502E-04   1.0721400E+05   -1.7219732E+00
   3.5997981E-04   1.0636687E+05   -1.7214045E+00
   3.6164223E-04   1.0552672E+05   -1.7208362E+00
   3.6331233E-04   1.0469347E+05   -1.7202681E+00
   3.6499015E-04   1.0386708E+05   -1.7197004E+00
   3.6667571E-04   1.0304748E+05   -1.7191330E+00
   3.6836906E-04   1.0223461E+05   -1.7185659E+00
   3.7007022E-04   1.0142842E+05   -1.7179991E+00
   3.7177925E-04   1.0062885E+05   -1.7174327E+00
   3.7349616E-04   9.9835842E+04   -1.7168666E+00
   3.7522101E-04   9.9049343E+04   -1.7163008E+00
   3.7695382E-04   9.8269297E+04   -1.7157354E+00
   3.7869463E-04   9.7495647E+04   -1.7151704E+00
   3.8044348E-04   9.6728340E+04   -1.7146057E+00
   3.8220041E-04   9.5967321E+04   -1.7140414E+00
   3.8396545E-04   9.5212538E+04   -1.7134774E+00
   3.8573864E-04   9.4463936E+04   -1.7129139E+00
   3.8752002E-04   9.3721463E+04   -1.7123507E+00
   3.8930963E-04   9.2985067E+04   -1.7117879E+00
   3.9110750E-04   9.2254696E+04   -1.7112255E+00
   3.9291368E-04   9.1530299E+04   -1.7106635E+00
   3.9472820E-04   9.0811825E+04   -1.7101019E+00
   3.9655109E-04   9.0099224E+04   -1.7095407E+00
   3.9838241E-04   8.9392445E+04   -1.7089800E+00
   4.0022218E-04   8.8691440E+04   -1.7084196E+00
   4.0207045E-04   8.7996160E+04   -1.7078597E+00
   4.0392725E-04   8.7306555E+04   -1.7073003E+00
   4.0579263E-04   8.6622578E+04   -1.7067412E+00
   4.0766662E-04   8.5944180E+04   -1.7061826E+00
   4.0954927E-04   8.5271315E+04   -1.7056245E+00
   4.1144061E-04   8.4603935E+04   -1.7050668E+00
   4.1334068E-04   8.3941994E+04   -1.7045096E+00
   4.1524953E-04   8.3285446E+04   -1.7039528E+00
   4.1716720E-04   8.2634244E+04   -1.7033965E+00
   4.1909372E-04   8.1988345E+04   -1.7028407E+00
   4.2102914E-04   8.1347702E+04   -1.7022854E+00
   4.2297350E-04   8.0712271E+04   -1.7017306E+00
   4.2492683E-04   8.0082009E+04   -1.7011762E+00
   4.2688919E-04   7.9456871E+04   -1.7006224E+00
   4.2886061E-04   7.8836814E+04   -1.7000690E+00
   4.3084113E-04   7.8221796E+04   -1.6995162E+00
   4.3283080E-04   7.7611773E+04   -1.6989639E+00
   4.3482966E-04   7.7006703E+04   -1.6984121E+00
   4.3683775E-04   7.6406544E+04   -1.6978608E+00
   4.3885511E-04   7.5811255E+04   -1.6973100E+00
   4.4088179E-04   7.5220795E+04   -1.6967598E+00
   4.4291783E-04   7.4635123E+04   -1.6962101E+00
   4.4496327E-04   7.4054198E+04   -1.6956610E+00
   4.4701816E-04   7.3477981E+04   -1.6951124E+00
   4.4908253E-04   7.2906431E+04   -1.6945644E+00
   4.5115644E-04   7.2339510E+04   -1.6940169E+00
   4.5323993E-04   7.1777179E+04   -1.6934700E+00
   4.5533304E-04   7.1219398E+04   -1.6929236E+00
   4.5743582E-04   7.0666129E+04   -1.6923779E+00
   4.5954830E-04   7.0117335E+04   -1.6918327E+00
   4.6167054E-04   6.9572977E+04   -1.6912881E+00
   4.6380259E-04   6.9033018E+04   -1.6907441E+00
   4.6594448E-04   6.8497422E+04   -1.6902006E+00
   4.6809626E-04   6.7966151E+04   -1.6896578E+00
   4.7025797E-04   6.7439170E+04   -1.6891156E+00
   4.7242967E-04   6.6916441E+04   -1.6885740E+00
   4.7461140E-04   6.6397930E+04   -1.6880329E+00
   4.7680321E-04   6.5883600E+04   -1.6874926E+00
   4.7900514E-04   6.5373418E+04   -1.6869528E+00
   4.8121723E-04   6.4867347E+04   -1.6864136E+00
   4.8343954E-04   6.4365354E+04   -1.6858751E+00
   4.8567212E-04   6.3867404E+04   -1.6853372E+00
   4.8791500E-04   6.3373463E+04   -1.6848000E+00
   4.9016825E-04   6.2883498E+04   -1.6842634E+00
   4.9243189E-04   6.2397475E+04   -1.6837275E+00
   4.9470600E-04   6.1915362E+04   -1.6831922E+00
   4.9699060E-04   6.1437124E+04   -1.6826575E+00
   4.9928575E-04   6.0962731E+04   -1.6821236E+00
   5.0159151E-04   6.0492150E+04   -1.6815903E+00
   5.0390791E-04   6.0025348E+04   -1.6810576E+00
   5.0623501E-04   5.9562295E+04   -1.6805257E+00
   5.0857286E-04   5.9102959E+04   -1.6799944E+00
   5.1092150E-04   5.8647308E+04   -1.6794638E+00
   5.1328099E-04   5.8195313E+04   -1.6789339E+00
   5.1565137E-04   5.7746942E+04   -1.6784047E+00
   5.1803270E-04   5.7302165E+04   -1.6778761E+00
   5.2042503E-04   5.6860952E+04   -1.6773483E+00
   5.2282841E-04   5.6423274E+04   -1.6768212E+00
   5.2524289E-04   5.5989100E+04   -1.6762948E+00
   5.2766851E-04   5.5558402E+04   -1.6757691E+00
   5.3010534E-04   5.5131151E+04   -1.6752441E+00
   5.3255342E-04   5.4707317E+04   -1.6747199E+00
   5.3501281E-04   5.4286873E+04   -1.6741964E+00
   5.3748356E-04   5.3869790E+04   -1.6736736E+00
   5.3996571E-04   5.3456040E+04   -1.6731515E+00
   5.4245933E-04   5.3045595E+04   -1.6726302E+00
   5.4496446E-04   5.2638428E+04   -1.6721096E+00
   5.4748117E-04   5.2234512E+04   -1.6715898E+00
   5.5000949E-04   5.1833819E+04   -1.6710707E+00
   5.5254949E-04   5.1436323E+04   -1.6705523E+00
   5.5510123E-04   5.1041997E+04   -1.6700348E+00
   5.5766474E-04   5.0650815E+04   -1.6695179E+00
   5.6024010E-04   5.0262750E+04   -1.6690019E+00
   5.6282734E-04   4.9877777E+04   -1.6684866E+00
   5.6542654E-04   4.9495870E+04   -1.6679721E+00
   5.6803774E-04   4.9117003E+04   -1.6674584E+00
   5.7066099E-04   4.8741152E+04   -1.6669454E+00
   5.7329637E-04   4.8368291E+04   -1.6664332E+00
   5.7594391E-04   4.7998395E+04   -1.6659219E+00
   5.7860368E-04   4.7631441E+04   -1.6654113E+00
   5.8127573E-04   4.7267403E+04   -1.6649015E+00
   5.8396012E-04   4.6906257E+04   -1.6643925E+00
   5.8665691E-04   4.6547980E+04   -1.6638843E+00
   5.8936616E-04   4.6192548E+04   -1.6633769E+00
   5.9208791E-04   4.5839936E+04   -1.6628703E+00
   5.9482223E-04   4.5490123E+04   -1.6623645E+00
   5.9756919E-04   4.5143084E+04   -1.6618596E+00
   6.0032882E-04   4.4798796E+04   -1.6613554E+00
   6.0310120E-04   4.4457238E+04   -1.6608521E+00
   6.0588639E-04   4.4118385E+04   -1.6603496E+00
   6.0868443E-04   4.3782217E+04   -1.6598479E+00
   6.1149540E-04   4.3448711E+04   -1.6593471E+00
   6.1431935E-04   4.3117845E+04   -1.6588471E+00
   6.1715634E-04   4.2789596E+04   -1.6583479E+00
   6.2000644E-04   4.2463944E+04   -1.6578496E+00
   6.2286969E-04   4.2140868E+04   -1.6573521E+00
