#        a       HoverH0(a)       dlogHdloga_of_a(a)
   1.0000000E-04   1.1950698E+06   -1.8761694E+00
   1.0046181E-04   1.1847848E+06   -1.8757396E+00
   1.0092575E-04   1.1745907E+06   -1.8753089E+00
   1.0139184E-04   1.1644866E+06   -1.8748771E+00
   1.0186008E-04   1.1544717E+06   -1.8744444E+00
   1.0233048E-04   1.1445453E+06   -1.8740106E+00
   1.0280305E-04   1.1347064E+06   -1.8735759E+00
   1.0327781E-04   1.1249544E+06   -1.8731402E+00
   1.0375475E-04   1.1152885E+06   -1.8727035E+00
   1.0423390E-04   1.1057078E+06   -1.8722658E+00
   1.0471527E-04   1.0962116E+06   -1.8718271E+00
   1.0519885E-04   1.0867992E+06   -1.8713874E+00
   1.0568467E-04   1.0774698E+06   -1.8709467E+00
   1.0617274E-04   1.0682226E+06   -1.8705051E+00
   1.0666305E-04   1.0590570E+06   -1.8700625E+00
   1.0715563E-04   1.0499722E+06   -1.8696189E+00
   1.0765049E-04   1.0409674E+06   -1.8691743E+00
   1.0814763E-04   1.0320420E+06   -1.8687287E+00
   1.0864707E-04   1.0231951E+06   -1.8682822E+00
   1.0914881E-04   1.0144263E+06   -1.8678347E+00
   1.0965287E-04   1.0057346E+06   -1.8673862E+00
   1.1015926E-04   9.9711949E+05   -1.8669367E+00
   1.1066799E-04   9.8858022E+05   -1.8664863E+00
   1.1117906E-04   9.8011611E+05   -1.8660349E+00
   1.1169250E-04   9.7172649E+05   -1.8655825E+00
   1.1220831E-04   9.6341070E+05   -1.8651292E+00
   1.1272650E-04   9.5516806E+05   -1.8646749E+00
   1.1324708E-04   9.4699794E+05   -1.8642197E+00
   1.1377007E-04   9.3889967E+05   -1.8637634E+00
   1.1429547E-04   9.3087261E+05   -1.8633063E+00
   1.1482330E-04   9.2291612E+05   -1.8628482E+00
   1.1535356E-04   9.1502958E+05   -1.8623891E+00
   1.1588628E-04   9.0721235E+05   -1.8619290E+00
   1.1642145E-04   8.9946381E+05   -1.8614681E+00
   1.1695910E-04   8.9178334E+05   -1.8610061E+00
   1.1749923E-04   8.8417034E+05   -1.8605433E+00
   1.1804185E-04   8.7662421E+05   -1.8600794E+00
   1.1858698E-04   8.6914434E+05   -1.8596147E+00
   1.1913463E-04   8.6173013E+05   -1.8591490E+00
   1.1968481E-04   8.5438101E+05   -1.8586823E+00
   1.2023752E-04   8.4709639E+05   -1.8582148E+00
   1.2079279E-04   8.3987569E+05   -1.8577463E+00
   1.2135063E-04   8.3271834E+05   -1.8572768E+00
   1.2191104E-04   8.2562377E+05   -1.8568064E+00
   1.2247403E-04   8.1859142E+05   -1.8563352E+00
   1.2303963E-04   8.1162074E+05   -1.8558629E+00
   1.2360784E-04   8.0471116E+05   -1.8553898E+00
   1.2417868E-04   7.9786215E+05   -1.8549157E+00
   1.2475215E-04   7.9107317E+05   -1.8544407E+00
   1.2532826E-04   7.8434366E+05   -1.8539648E+00
   1.2590704E-04   7.7767311E+05   -1.8534880E+00
   1.2648850E-04   7.7106099E+05   -1.8530103E+00
   1.2707263E-04   7.6450677E+05   -1.8525317E+00
   1.2765947E-04   7.5800993E+05   -1.8520522E+00
   1.2824901E-04   7.5156997E+05   -1.8515717E+00
   1.2884128E-04   7.4518638E+05   -1.8510904E+00
   1.2943628E-04   7.3885864E+05   -1.8506082E+00
   1.3003403E-04   7.3258627E+05   -1.8501250E+00
   1.3063454E-04   7.2636876E+05   -1.8496410E+00
   1.3123783E-04   7.2020562E+05   -1.8491561E+00
   1.3184390E-04   7.1409638E+05   -1.8486703E+00
   1.3245277E-04   7.0804055E+05   -1.8481836E+00
   1.3306445E-04   7.0203764E+05   -1.8476960E+00
   1.3367895E-04   6.9608720E+05   -1.8472076E+00
   1.3429630E-04   6.9018874E+05   -1.8467183E+00
   1.3491649E-04   6.8434182E+05   -1.8462281E+00
   1.3553955E-04   6.7854595E+05   -1.8457370E+00
   1.3616548E-04   6.7280070E+05   -1.8452451E+00
   1.3679431E-04   6.6710561E+05   -1.8447523E+00
   1.3742604E-04   6.6146023E+05   -1.8442587E+00
   1.3806069E-04   6.5586412E+05   -1.8437641E+00
   1.3869827E-04   6.5031683E+05   -1.8432688E+00
   1.3933879E-04   6.4481794E+05   -1.8427725E+00
   1.3998227E-04   6.3936700E+05   -1.8422755E+00
   1.4062872E-04   6.3396360E+05   -1.8417776E+00
   1.4127816E-04   6.2860730E+05   -1.8412788E+00
   1.4193060E-04   6.2329770E+05   -1.8407792E+00
   1.4258605E-04   6.1803436E+05   -1.8402788E+00
   1.4324453E-04   6.1281689E+05   -1.8397775E+00
   1.4390605E-04   6.0764486E+05   -1.8392754E+00
   1.4457062E-04   6.0251788E+05   -1.8387725E+00
   1.4523826E-04   5.9743555E+05   -1.8382687E+00
   1.4590899E-04   5.9239747E+05   -1.8377641E+00
   1.4658281E-04   5.8740323E+05   -1.8372587E+00
   1.4725974E-04   5.8245246E+05   -1.8367525E+00
   1.4793981E-04   5.7754476E+05   -1.8362455E+00
   1.4862301E-04   5.7267975E+05   -1.8357377E+00
   1.4930936E-04   5.6785705E+05   -1.8352291E+00
   1.4999889E-04   5.6307629E+05   -1.8347197E+00
   1.5069160E-04   5.5833708E+05   -1.8342094E+00
   1.5138751E-04   5.5363907E+05   -1.8336984E+00
   1.5208663E-04   5.4898188E+05   -1.8331866E+00
   1.5278899E-04   5.4436515E+05   -1.8326740E+00
   1.5349458E-04   5.3978852E+05   -1.8321607E+00
   1.5420343E-04   5.3525164E+05   -1.8316465E+00
   1.5491556E-04   5.3075415E+05   -1.8311316E+00
   1.5563098E-04   5.2629570E+05   -1.8306159E+00
   1.5634970E-04   5.2187594E+05   -1.8300994E+00
   1.5707174E-04   5.1749452E+05   -1.8295822E+00
   1.5779711E-04   5.1315112E+05   -1.8290642E+00
   1.5852584E-04   5.0884539E+05   -1.8285455E+00
   1.5925792E-04   5.0457699E+05   -1.8280260E+00
   1.5999339E-04   5.0034560E+05   -1.8275058E+00
   1.6073226E-04   4.9615087E+05   -1.8269848E+00
   1.6147454E-04   4.9199250E+05   -1.8264631E+00
   1.6222024E-04   4.8787016E+05   -1.8259406E+00
   1.6296939E-04   4.8378352E+05   -1.8254174E+00
   1.6372200E-04   4.7973227E+05   -1.8248935E+00
   1.6447809E-04   4.7571610E+05   -1.8243689E+00
   1.6523767E-04   4.7173468E+05   -1.8238435E+00
   1.6600075E-04   4.6778773E+05   -1.8233174E+00
   1.6676736E-04   4.6387492E+05   -1.8227907E+00
   1.6753751E-04   4.5999596E+05   -1.8222632E+00
   1.6831122E-04   4.5615054E+05   -1.8217350E+00
   1.6908849E-04   4.5233837E+05   -1.8212061E+00
   1.6986936E-04   4.4855915E+05   -1.8206765E+00
   1.7065384E-04   4.4481260E+05   -1.8201462E+00
   1.7144193E-04   4.4109841E+05   -1.8196152E+00
   1.7223367E-04   4.3741631E+05   -1.8190836E+00
   1.7302906E-04   4.3376602E+05   -1.8185513E+00
   1.7382813E-04   4.3014723E+05   -1.8180183E+00
   1.7463089E-04   4.2655969E+05   -1.8174846E+00
   1.7543735E-04   4.2300311E+05   -1.8169503E+00
   1.7624754E-04   4.1947722E+05   -1.8164153E+00
   1.7706147E-04   4.1598174E+05   -1.8158796E+00
   1.7787916E-04   4.1251641E+05   -1.8153433E+00
   1.7870062E-04   4.0908096E+05   -1.8148064E+00
   1.7952588E-04   4.0567512E+05   -1.8142688E+00
   1.8035495E-04   4.0229863E+05   -1.8137305E+00
   1.8118785E-04   3.9895124E+05   -1.8131917E+00
   1.8202459E-04   3.9563268E+05   -1.8126522E+00
   1.8286520E-04   3.9234270E+05   -1.8121121E+00
   1.8370969E-04   3.8908106E+05   -1.8115714E+00
   1.8455808E-04   3.8584748E+05   -1.8110300E+00
   1.8541039E-04   3.8264174E+05   -1.8104881E+00
   1.8626663E-04   3.7946358E+05   -1.8099455E+00
   1.8712683E-04   3.7631276E+05   -1.8094023E+00
   1.8799100E-04   3.7318903E+05   -1.8088586E+00
   1.8885917E-04   3.7009216E+05   -1.8083142E+00
   1.8973134E-04   3.6702191E+05   -1.8077693E+00
   1.9060754E-04   3.6397805E+05   -1.8072238E+00
   1.9148778E-04   3.6096034E+05   -1.8066777E+00
   1.9237209E-04   3.5796855E+05   -1.8061311E+00
   1.9326049E-04   3.5500245E+05   -1.8055838E+00
   1.9415299E-04   3.5206181E+05   -1.8050360E+00
   1.9504960E-04   3.4914642E+05   -1.8044877E+00
   1.9595036E-04   3.4625604E+05   -1.8039388E+00
   1.9685528E-04   3.4339046E+05   -1.8033894E+00
   1.9776438E-04   3.4054946E+05   -1.8028394E+00
   1.9867768E-04   3.3773282E+05   -1.8022889E+00
   1.9959519E-04   3.3494032E+05   -1.8017378E+00
   2.0051694E-04   3.3217176E+05   -1.8011863E+00
   2.0144295E-04   3.2942692E+05   -1.8006342E+00
   2.0237324E-04   3.2670559E+05   -1.8000816E+00
   2.0330782E-04   3.2400757E+05   -1.7995284E+00
   2.0424671E-04   3.2133265E+05   -1.7989748E+00
   2.0518995E-04   3.1868062E+05   -1.7984207E+00
   2.0613754E-04   3.1605129E+05   -1.7978661E+00
   2.0708950E-04   3.1344446E+05   -1.7973110E+00
   2.0804586E-04   3.1085992E+05   -1.7967554E+00
   2.0900664E-04   3.0829748E+05   -1.7961993E+00
   2.0997185E-04   3.0575695E+05   -1.7956427E+00
   2.1094152E-04   3.0323813E+05   -1.7950857E+00
   2.1191567E-04   3.0074084E+05   -1.7945282E+00
   2.1289432E-04   2.9826488E+05   -1.7939703E+00
   2.1387749E-04   2.9581006E+05   -1.7934119E+00
   2.1486520E-04   2.9337620E+05   -1.7928531E+00
   2.1585747E-04   2.9096311E+05   -1.7922938E+00
   2.1685432E-04   2.8857062E+05   -1.7917341E+00
   2.1785578E-04   2.8619854E+05   -1.7911739E+00
   2.1886186E-04   2.8384669E+05   -1.7906133E+00
   2.1987259E-04   2.8151489E+05   -1.7900524E+00
   2.2088798E-04   2.7920298E+05   -1.7894909E+00
   2.2190807E-04   2.7691076E+05   -1.7889291E+00
   2.2293286E-04   2.7463808E+05   -1.7883669E+00
   2.2396239E-04   2.7238475E+05   -1.7878043E+00
   2.2499667E-04   2.7015061E+05   -1.7872413E+00
   2.2603573E-04   2.6793549E+05   -1.7866779E+00
   2.2707958E-04   2.6573923E+05   -1.7861141E+00
   2.2812826E-04   2.6356165E+05   -1.7855499E+00
   2.2918178E-04   2.6140260E+05   -1.7849854E+00
   2.3024017E-04   2.5926190E+05   -1.7844205E+00
   2.3130344E-04   2.5713941E+05   -1.7838553E+00
   2.3237162E-04   2.5503496E+05   -1.7832897E+00
   2.3344474E-04   2.5294839E+05   -1.7827237E+00
   2.3452281E-04   2.5087954E+05   -1.7821574E+00
   2.3560586E-04   2.4882827E+05   -1.7815908E+00
   2.3669392E-04   2.4679441E+05   -1.7810238E+00
   2.3778699E-04   2.4477782E+05   -1.7804566E+00
   2.3888512E-04   2.4277834E+05   -1.7798890E+00
   2.3998831E-04   2.4079582E+05   -1.7793210E+00
   2.4109661E-04   2.3883012E+05   -1.7787528E+00
   2.4221001E-04   2.3688108E+05   -1.7781843E+00
   2.4332857E-04   2.3494857E+05   -1.7776155E+00
   2.4445228E-04   2.3303243E+05   -1.7770464E+00
   2.4558119E-04   2.3113252E+05   -1.7764770E+00
   2.4671531E-04   2.2924871E+05   -1.7759073E+00
   2.4785467E-04   2.2738084E+05   -1.7753374E+00
   2.4899928E-04   2.2552879E+05   -1.7747671E+00
   2.5014919E-04   2.2369241E+05   -1.7741967E+00
   2.5130440E-04   2.2187157E+05   -1.7736259E+00
   2.5246495E-04   2.2006613E+05   -1.7730550E+00
   2.5363086E-04   2.1827595E+05   -1.7724837E+00
   2.5480216E-04   2.1650091E+05   -1.7719123E+00
   2.5597886E-04   2.1474086E+05   -1.7713406E+00
   2.5716100E-04   2.1299569E+05   -1.7707687E+00
   2.5834859E-04   2.1126525E+05   -1.7701966E+00
   2.5954168E-04   2.0954943E+05   -1.7696242E+00
   2.6074027E-04   2.0784809E+05   -1.7690517E+00
   2.6194439E-04   2.0616111E+05   -1.7684789E+00
   2.6315408E-04   2.0448836E+05   -1.7679060E+00
   2.6436935E-04   2.0282971E+05   -1.7673328E+00
   2.6559024E-04   2.0118506E+05   -1.7667595E+00
   2.6681676E-04   1.9955426E+05   -1.7661860E+00
   2.6804895E-04   1.9793721E+05   -1.7656123E+00
   2.6928683E-04   1.9633378E+05   -1.7650385E+00
   2.7053042E-04   1.9474385E+05   -1.7644645E+00
   2.7177976E-04   1.9316731E+05   -1.7638903E+00
   2.7303487E-04   1.9160404E+05   -1.7633160E+00
   2.7429577E-04   1.9005393E+05   -1.7627416E+00
   2.7556250E-04   1.8851685E+05   -1.7621670E+00
   2.7683507E-04   1.8699270E+05   -1.7615923E+00
   2.7811353E-04   1.8548136E+05   -1.7610175E+00
   2.7939788E-04   1.8398273E+05   -1.7604425E+00
   2.8068817E-04   1.8249669E+05   -1.7598675E+00
   2.8198442E-04   1.8102313E+05   -1.7592923E+00
   2.8328665E-04   1.7956194E+05   -1.7587171E+00
   2.8459490E-04   1.7811302E+05   -1.7581417E+00
   2.8590919E-04   1.7667627E+05   -1.7575663E+00
   2.8722955E-04   1.7525156E+05   -1.7569907E+00
   2.8855600E-04   1.7383881E+05   -1.7564151E+00
   2.8988859E-04   1.7243790E+05   -1.7558395E+00
   2.9122732E-04   1.7104873E+05   -1.7552637E+00
   2.9257224E-04   1.6967121E+05   -1.7546880E+00
   2.9392337E-04   1.6830522E+05   -1.7541121E+00
   2.9528074E-04   1.6695068E+05   -1.7535363E+00
   2.9664438E-04   1.6560748E+05   -1.7529603E+00
   2.9801431E-04   1.6427552E+05   -1.7523844E+00
   2.9939057E-04   1.6295470E+05   -1.7518084E+00
   3.0077319E-04   1.6164494E+05   -1.7512324E+00
   3.0216219E-04   1.6034612E+05   -1.7506564E+00
   3.0355761E-04   1.5905817E+05   -1.7500804E+00
   3.0495947E-04   1.5778098E+05   -1.7495044E+00
   3.0636780E-04   1.5651446E+05   -1.7489284E+00
   3.0778264E-04   1.5525852E+05   -1.7483524E+00
   3.0920401E-04   1.5401306E+05   -1.7477764E+00
   3.1063195E-04   1.5277800E+05   -1.7472004E+00
   3.1206648E-04   1.5155325E+05   -1.7466245E+00
   3.1350764E-04   1.5033871E+05   -1.7460486E+00
   3.1495545E-04   1.4913431E+05   -1.7454727E+00
   3.1640994E-04   1.4793994E+05   -1.7448969E+00
   3.1787116E-04   1.4675553E+05   -1.7443212E+00
   3.1933912E-04   1.4558099E+05   -1.7437455E+00
   3.2081386E-04   1.4441623E+05   -1.7431699E+00
   3.2229541E-04   1.4326118E+05   -1.7425943E+00
   3.2378381E-04   1.4211573E+05   -1.7420188E+00
   3.2527908E-04   1.4097982E+05   -1.7414434E+00
   3.2678125E-04   1.3985336E+05   -1.7408681E+00
   3.2829036E-04   1.3873626E+05   -1.7402929E+00
   3.2980644E-04   1.3762846E+05   -1.7397178E+00
   3.3132952E-04   1.3652986E+05   -1.7391428E+00
   3.3285963E-04   1.3544039E+05   -1.7385679E+00
   3.3439681E-04   1.3435997E+05   -1.7379932E+00
   3.3594109E-04   1.3328852E+05   -1.7374185E+00
   3.3749250E-04   1.3222596E+05   -1.7368440E+00
   3.3905108E-04   1.3117223E+05   -1.7362696E+00
   3.4061685E-04   1.3012723E+05   -1.7356954E+00
   3.4218986E-04   1.2909090E+05   -1.7351214E+00
   3.4377013E-04   1.2806316E+05   -1.7345474E+00
   3.4535769E-04   1.2704395E+05   -1.7339737E+00
   3.4695259E-04   1.2603317E+05   -1.7334001E+00
   3.4855485E-04   1.2503077E+05   -1.7328267E+00
   3.5016452E-04   1.2403667E+05   -1.7322535E+00
   3.5178161E-04   1.2305079E+05   -1.7316804E+00
   3.5340618E-04   1.2207308E+05   -1.7311076E+00
   3.5503824E-04   1.2110345E+05   -1.7305349E+00
   3.5667785E-04   1.2014185E+05   -1.7299625E+00
   3.5832502E-04   1.1918819E+05   -1.7293903E+00
   3.5997981E-04   1.1824241E+05   -1.7288182E+00
   3.6164223E-04   1.1730445E+05   -1.7282465E+00
   3.6331233E-04   1.1637423E+05   -1.7276749E+00
   3.6499015E-04   1.1545170E+05   -1.7271036E+00
   3.6667571E-04   1.1453678E+05   -1.7265325E+00
   3.6836906E-04   1.1362941E+05   -1.7259616E+00
   3.7007022E-04   1.1272952E+05   -1.7253910E+00
   3.7177925E-04   1.1183706E+05   -1.7248207E+00
   3.7349616E-04   1.1095195E+05   -1.7242506E+00
   3.7522101E-04   1.1007413E+05   -1.7236808E+00
   3.7695382E-04   1.0920355E+05   -1.7231113E+00
   3.7869463E-04   1.0834014E+05   -1.7225421E+00
   3.8044348E-04   1.0748383E+05   -1.7219731E+00
   3.8220041E-04   1.0663458E+05   -1.7214044E+00
   3.8396545E-04   1.0579231E+05   -1.7208361E+00
   3.8573864E-04   1.0495696E+05   -1.7202680E+00
   3.8752002E-04   1.0412849E+05   -1.7197003E+00
   3.8930963E-04   1.0330682E+05   -1.7191328E+00
   3.9110750E-04   1.0249191E+05   -1.7185657E+00
   3.9291368E-04   1.0168369E+05   -1.7179989E+00
   3.9472820E-04   1.0088211E+05   -1.7174325E+00
   3.9655109E-04   1.0008711E+05   -1.7168664E+00
   3.9838241E-04   9.9298630E+04   -1.7163006E+00
   4.0022218E-04   9.8516620E+04   -1.7157352E+00
   4.0207045E-04   9.7741024E+04   -1.7151701E+00
   4.0392725E-04   9.6971786E+04   -1.7146054E+00
   4.0579263E-04   9.6208852E+04   -1.7140411E+00
   4.0766662E-04   9.5452169E+04   -1.7134771E+00
   4.0954927E-04   9.4701683E+04   -1.7129136E+00
   4.1144061E-04   9.3957341E+04   -1.7123504E+00
   4.1334068E-04   9.3219092E+04   -1.7117876E+00
   4.1524953E-04   9.2486883E+04   -1.7112252E+00
   4.1716720E-04   9.1760663E+04   -1.7106631E+00
   4.1909372E-04   9.1040381E+04   -1.7101015E+00
   4.2102914E-04   9.0325987E+04   -1.7095404E+00
   4.2297350E-04   8.9617430E+04   -1.7089796E+00
   4.2492683E-04   8.8914660E+04   -1.7084192E+00
   4.2688919E-04   8.8217630E+04   -1.7078593E+00
   4.2886061E-04   8.7526290E+04   -1.7072998E+00
   4.3084113E-04   8.6840591E+04   -1.7067408E+00
   4.3283080E-04   8.6160487E+04   -1.7061822E+00
   4.3482966E-04   8.5485928E+04   -1.7056240E+00
   4.3683775E-04   8.4816869E+04   -1.7050663E+00
   4.3885511E-04   8.4153262E+04   -1.7045091E+00
   4.4088179E-04   8.3495061E+04   -1.7039523E+00
   4.4291783E-04   8.2842221E+04   -1.7033960E+00
   4.4496327E-04   8.2194696E+04   -1.7028402E+00
   4.4701816E-04   8.1552441E+04   -1.7022848E+00
   4.4908253E-04   8.0915411E+04   -1.7017300E+00
   4.5115644E-04   8.0283563E+04   -1.7011756E+00
   4.5323993E-04   7.9656852E+04   -1.7006218E+00
   4.5533304E-04   7.9035235E+04   -1.7000684E+00
   4.5743582E-04   7.8418669E+04   -1.6995156E+00
   4.5954830E-04   7.7807110E+04   -1.6989632E+00
   4.6167054E-04   7.7200518E+04   -1.6984114E+00
   4.6380259E-04   7.6598849E+04   -1.6978601E+00
   4.6594448E-04   7.6002062E+04   -1.6973093E+00
   4.6809626E-04   7.5410116E+04   -1.6967591E+00
   4.7025797E-04   7.4822970E+04   -1.6962094E+00
   4.7242967E-04   7.4240583E+04   -1.6956602E+00
   4.7461140E-04   7.3662916E+04   -1.6951116E+00
   4.7680321E-04   7.3089928E+04   -1.6945636E+00
   4.7900514E-04   7.2521581E+04   -1.6940161E+00
   4.8121723E-04   7.1957834E+04   -1.6934692E+00
   4.8343954E-04   7.1398649E+04   -1.6929228E+00
   4.8567212E-04   7.0843989E+04   -1.6923770E+00
   4.8791500E-04   7.0293813E+04   -1.6918318E+00
   4.9016825E-04   6.9748086E+04   -1.6912872E+00
   4.9243189E-04   6.9206768E+04   -1.6907431E+00
   4.9470600E-04   6.8669824E+04   -1.6901997E+00
   4.9699060E-04   6.8137217E+04   -1.6896568E+00
   4.9928575E-04   6.7608909E+04   -1.6891146E+00
   5.0159151E-04   6.7084865E+04   -1.6885730E+00
   5.0390791E-04   6.6565049E+04   -1.6880319E+00
   5.0623501E-04   6.6049425E+04   -1.6874915E+00
   5.0857286E-04   6.5537959E+04   -1.6869517E+00
   5.1092150E-04   6.5030615E+04   -1.6864126E+00
   5.1328099E-04   6.4527358E+04   -1.6858740E+00
   5.1565137E-04   6.4028155E+04   -1.6853361E+00
   5.1803270E-04   6.3532972E+04   -1.6847989E+00
   5.2042503E-04   6.3041774E+04   -1.6842623E+00
   5.2282841E-04   6.2554528E+04   -1.6837263E+00
   5.2524289E-04   6.2071201E+04   -1.6831910E+00
   5.2766851E-04   6.1591761E+04   -1.6826563E+00
   5.3010534E-04   6.1116174E+04   -1.6821224E+00
   5.3255342E-04   6.0644408E+04   -1.6815890E+00
   5.3501281E-04   6.0176432E+04   -1.6810564E+00
   5.3748356E-04   5.9712214E+04   -1.6805244E+00
   5.3996571E-04   5.9251722E+04   -1.6799931E+00
   5.4245933E-04   5.8794925E+04   -1.6794625E+00
   5.4496446E-04   5.8341792E+04   -1.6789325E+00
   5.4748117E-04   5.7892293E+04   -1.6784033E+00
   5.5000949E-04   5.7446397E+04   -1.6778748E+00
   5.5254949E-04   5.7004074E+04   -1.6773469E+00
   5.5510123E-04   5.6565294E+04   -1.6768198E+00
   5.5766474E-04   5.6130028E+04   -1.6762934E+00
   5.6024010E-04   5.5698246E+04   -1.6757677E+00
   5.6282734E-04   5.5269920E+04   -1.6752427E+00
   5.6542654E-04   5.4845020E+04   -1.6747184E+00
   5.6803774E-04   5.4423517E+04   -1.6741949E+00
   5.7066099E-04   5.4005385E+04   -1.6736720E+00
   5.7329637E-04   5.3590594E+04   -1.6731500E+00
   5.7594391E-04   5.3179116E+04   -1.6726286E+00
   5.7860368E-04   5.2770925E+04   -1.6721080E+00
   5.8127573E-04   5.2365992E+04   -1.6715882E+00
   5.8396012E-04   5.1964292E+04   -1.6710690E+00
   5.8665691E-04   5.1565795E+04   -1.6705507E+00
   5.8936616E-04   5.1170477E+04   -1.6700331E+00
   5.9208791E-04   5.0778310E+04   -1.6695163E+00
   5.9482223E-04   5.0389269E+04   -1.6690002E+00
   5.9756919E-04   5.0003327E+04   -1.6684849E+00
   6.0032882E-04   4.9620459E+04   -1.6679704E+00
   6.0310120E-04   4.9240639E+04   -1.6674566E+00
   6.0588639E-04   4.8863842E+04   -1.6669436E+00
   6.0868443E-04   4.8490043E+04   -1.6664314E+00
   6.1149540E-04   4.8119217E+04   -1.6659200E+00
   6.1431935E-04   4.7751340E+04   -1.6654094E+00
   6.1715634E-04   4.7386386E+04   -1.6648996E+00
   6.2000644E-04   4.7024331E+04   -1.6643906E+00
   6.2286969E-04   4.6665153E+04   -1.6638823E+00
