#        a       HoverH0(a)       dlogHdloga_of_a(a)
   1.0000000E-04   1.2330402E+06   -1.8691661E+00
   1.0046181E-04   1.2224679E+06   -1.8687205E+00
   1.0092575E-04   1.2119888E+06   -1.8682740E+00
   1.0139184E-04   1.2016020E+06   -1.8678265E+00
   1.0186008E-04   1.1913067E+06   -1.8673779E+00
   1.0233048E-04   1.1811020E+06   -1.8669285E+00
   1.0280305E-04   1.1709871E+06   -1.8664780E+00
   1.0327781E-04   1.1609613E+06   -1.8660266E+00
   1.0375475E-04   1.1510237E+06   -1.8655742E+00
   1.0423390E-04   1.1411736E+06   -1.8651209E+00
   1.0471527E-04   1.1314101E+06   -1.8646666E+00
   1.0519885E-04   1.1217326E+06   -1.8642113E+00
   1.0568467E-04   1.1121401E+06   -1.8637551E+00
   1.0617274E-04   1.1026320E+06   -1.8632979E+00
   1.0666305E-04   1.0932074E+06   -1.8628398E+00
   1.0715563E-04   1.0838657E+06   -1.8623807E+00
   1.0765049E-04   1.0746062E+06   -1.8619206E+00
   1.0814763E-04   1.0654279E+06   -1.8614596E+00
   1.0864707E-04   1.0563304E+06   -1.8609977E+00
   1.0914881E-04   1.0473127E+06   -1.8605348E+00
   1.0965287E-04   1.0383742E+06   -1.8600710E+00
   1.1015926E-04   1.0295143E+06   -1.8596062E+00
   1.1066799E-04   1.0207321E+06   -1.8591405E+00
   1.1117906E-04   1.0120270E+06   -1.8586738E+00
   1.1169250E-04   1.0033983E+06   -1.8582062E+00
   1.1220831E-04   9.9484527E+05   -1.8577377E+00
   1.1272650E-04   9.8636732E+05   -1.8572683E+00
   1.1324708E-04   9.7796373E+05   -1.8567979E+00
   1.1377007E-04   9.6963385E+05   -1.8563266E+00
   1.1429547E-04   9.6137701E+05   -1.8558543E+00
   1.1482330E-04   9.5319255E+05   -1.8553812E+00
   1.1535356E-04   9.4507983E+05   -1.8549071E+00
   1.1588628E-04   9.3703821E+05   -1.8544321E+00
   1.1642145E-04   9.2906705E+05   -1.8539562E+00
   1.1695910E-04   9.2116572E+05   -1.8534794E+00
   1.1749923E-04   9.1333359E+05   -1.8530016E+00
   1.1804185E-04   9.0557005E+05   -1.8525230E+00
   1.1858698E-04   8.9787449E+05   -1.8520435E+00
   1.1913463E-04   8.9024629E+05   -1.8515630E+00
   1.1968481E-04   8.8268485E+05   -1.8510817E+00
   1.2023752E-04   8.7518959E+05   -1.8505994E+00
   1.2079279E-04   8.6775990E+05   -1.8501163E+00
   1.2135063E-04   8.6039519E+05   -1.8496322E+00
   1.2191104E-04   8.5309490E+05   -1.8491473E+00
   1.2247403E-04   8.4585844E+05   -1.8486615E+00
   1.2303963E-04   8.3868525E+05   -1.8481748E+00
   1.2360784E-04   8.3157475E+05   -1.8476872E+00
   1.2417868E-04   8.2452638E+05   -1.8471988E+00
   1.2475215E-04   8.1753961E+05   -1.8467094E+00
   1.2532826E-04   8.1061386E+05   -1.8462192E+00
   1.2590704E-04   8.0374860E+05   -1.8457282E+00
   1.2648850E-04   7.9694329E+05   -1.8452362E+00
   1.2707263E-04   7.9019739E+05   -1.8447434E+00
   1.2765947E-04   7.8351038E+05   -1.8442497E+00
   1.2824901E-04   7.7688172E+05   -1.8437552E+00
   1.2884128E-04   7.7031090E+05   -1.8432598E+00
   1.2943628E-04   7.6379740E+05   -1.8427636E+00
   1.3003403E-04   7.5734071E+05   -1.8422665E+00
   1.3063454E-04   7.5094033E+05   -1.8417686E+00
   1.3123783E-04   7.4459574E+05   -1.8412698E+00
   1.3184390E-04   7.3830645E+05   -1.8407702E+00
   1.3245277E-04   7.3207198E+05   -1.8402697E+00
   1.3306445E-04   7.2589182E+05   -1.8397685E+00
   1.3367895E-04   7.1976550E+05   -1.8392664E+00
   1.3429630E-04   7.1369254E+05   -1.8387634E+00
   1.3491649E-04   7.0767246E+05   -1.8382596E+00
   1.3553955E-04   7.0170479E+05   -1.8377551E+00
   1.3616548E-04   6.9578906E+05   -1.8372497E+00
   1.3679431E-04   6.8992482E+05   -1.8367434E+00
   1.3742604E-04   6.8411159E+05   -1.8362364E+00
   1.3806069E-04   6.7834894E+05   -1.8357286E+00
   1.3869827E-04   6.7263640E+05   -1.8352200E+00
   1.3933879E-04   6.6697353E+05   -1.8347105E+00
   1.3998227E-04   6.6135989E+05   -1.8342003E+00
   1.4062872E-04   6.5579504E+05   -1.8336893E+00
   1.4127816E-04   6.5027854E+05   -1.8331775E+00
   1.4193060E-04   6.4480998E+05   -1.8326649E+00
   1.4258605E-04   6.3938891E+05   -1.8321515E+00
   1.4324453E-04   6.3401492E+05   -1.8316373E+00
   1.4390605E-04   6.2868758E+05   -1.8311224E+00
   1.4457062E-04   6.2340649E+05   -1.8306067E+00
   1.4523826E-04   6.1817124E+05   -1.8300902E+00
   1.4590899E-04   6.1298141E+05   -1.8295730E+00
   1.4658281E-04   6.0783660E+05   -1.8290550E+00
   1.4725974E-04   6.0273640E+05   -1.8285363E+00
   1.4793981E-04   5.9768044E+05   -1.8280168E+00
   1.4862301E-04   5.9266830E+05   -1.8274965E+00
   1.4930936E-04   5.8769960E+05   -1.8269755E+00
   1.4999889E-04   5.8277396E+05   -1.8264538E+00
   1.5069160E-04   5.7789100E+05   -1.8259313E+00
   1.5138751E-04   5.7305032E+05   -1.8254081E+00
   1.5208663E-04   5.6825157E+05   -1.8248842E+00
   1.5278899E-04   5.6349436E+05   -1.8243596E+00
   1.5349458E-04   5.5877833E+05   -1.8238342E+00
   1.5420343E-04   5.5410311E+05   -1.8233081E+00
   1.5491556E-04   5.4946834E+05   -1.8227813E+00
   1.5563098E-04   5.4487366E+05   -1.8222538E+00
   1.5634970E-04   5.4031872E+05   -1.8217256E+00
   1.5707174E-04   5.3580316E+05   -1.8211967E+00
   1.5779711E-04   5.3132663E+05   -1.8206671E+00
   1.5852584E-04   5.2688879E+05   -1.8201368E+00
   1.5925792E-04   5.2248929E+05   -1.8196058E+00
   1.5999339E-04   5.1812780E+05   -1.8190742E+00
   1.6073226E-04   5.1380397E+05   -1.8185418E+00
   1.6147454E-04   5.0951748E+05   -1.8180088E+00
   1.6222024E-04   5.0526799E+05   -1.8174752E+00
   1.6296939E-04   5.0105517E+05   -1.8169408E+00
   1.6372200E-04   4.9687871E+05   -1.8164058E+00
   1.6447809E-04   4.9273827E+05   -1.8158702E+00
   1.6523767E-04   4.8863354E+05   -1.8153339E+00
   1.6600075E-04   4.8456420E+05   -1.8147969E+00
   1.6676736E-04   4.8052994E+05   -1.8142593E+00
   1.6753751E-04   4.7653045E+05   -1.8137211E+00
   1.6831122E-04   4.7256542E+05   -1.8131822E+00
   1.6908849E-04   4.6863455E+05   -1.8126427E+00
   1.6986936E-04   4.6473753E+05   -1.8121026E+00
   1.7065384E-04   4.6087406E+05   -1.8115619E+00
   1.7144193E-04   4.5704385E+05   -1.8110205E+00
   1.7223367E-04   4.5324661E+05   -1.8104786E+00
   1.7302906E-04   4.4948203E+05   -1.8099360E+00
   1.7382813E-04   4.4574984E+05   -1.8093928E+00
   1.7463089E-04   4.4204975E+05   -1.8088491E+00
   1.7543735E-04   4.3838146E+05   -1.8083047E+00
   1.7624754E-04   4.3474471E+05   -1.8077598E+00
   1.7706147E-04   4.3113922E+05   -1.8072143E+00
   1.7787916E-04   4.2756469E+05   -1.8066682E+00
   1.7870062E-04   4.2402088E+05   -1.8061215E+00
   1.7952588E-04   4.2050749E+05   -1.8055743E+00
   1.8035495E-04   4.1702427E+05   -1.8050265E+00
   1.8118785E-04   4.1357094E+05   -1.8044782E+00
   1.8202459E-04   4.1014725E+05   -1.8039293E+00
   1.8286520E-04   4.0675293E+05   -1.8033798E+00
   1.8370969E-04   4.0338772E+05   -1.8028298E+00
   1.8455808E-04   4.0005137E+05   -1.8022793E+00
   1.8541039E-04   3.9674362E+05   -1.8017283E+00
   1.8626663E-04   3.9346422E+05   -1.8011767E+00
   1.8712683E-04   3.9021292E+05   -1.8006246E+00
   1.8799100E-04   3.8698947E+05   -1.8000720E+00
   1.8885917E-04   3.8379363E+05   -1.7995189E+00
   1.8973134E-04   3.8062514E+05   -1.7989652E+00
   1.9060754E-04   3.7748378E+05   -1.7984111E+00
   1.9148778E-04   3.7436930E+05   -1.7978565E+00
   1.9237209E-04   3.7128147E+05   -1.7973014E+00
   1.9326049E-04   3.6822005E+05   -1.7967458E+00
   1.9415299E-04   3.6518480E+05   -1.7961897E+00
   1.9504960E-04   3.6217550E+05   -1.7956331E+00
   1.9595036E-04   3.5919193E+05   -1.7950761E+00
   1.9685528E-04   3.5623385E+05   -1.7945186E+00
   1.9776438E-04   3.5330103E+05   -1.7939607E+00
   1.9867768E-04   3.5039326E+05   -1.7934023E+00
   1.9959519E-04   3.4751032E+05   -1.7928435E+00
   2.0051694E-04   3.4465199E+05   -1.7922842E+00
   2.0144295E-04   3.4181804E+05   -1.7917245E+00
   2.0237324E-04   3.3900828E+05   -1.7911643E+00
   2.0330782E-04   3.3622248E+05   -1.7906037E+00
   2.0424671E-04   3.3346043E+05   -1.7900427E+00
   2.0518995E-04   3.3072193E+05   -1.7894813E+00
   2.0613754E-04   3.2800676E+05   -1.7889195E+00
   2.0708950E-04   3.2531473E+05   -1.7883573E+00
   2.0804586E-04   3.2264563E+05   -1.7877947E+00
   2.0900664E-04   3.1999926E+05   -1.7872317E+00
   2.0997185E-04   3.1737542E+05   -1.7866683E+00
   2.1094152E-04   3.1477391E+05   -1.7861045E+00
   2.1191567E-04   3.1219454E+05   -1.7855403E+00
   2.1289432E-04   3.0963710E+05   -1.7849758E+00
   2.1387749E-04   3.0710142E+05   -1.7844109E+00
   2.1486520E-04   3.0458729E+05   -1.7838457E+00
   2.1585747E-04   3.0209454E+05   -1.7832801E+00
   2.1685432E-04   2.9962296E+05   -1.7827141E+00
   2.1785578E-04   2.9717238E+05   -1.7821478E+00
   2.1886186E-04   2.9474262E+05   -1.7815812E+00
   2.1987259E-04   2.9233348E+05   -1.7810143E+00
   2.2088798E-04   2.8994479E+05   -1.7804470E+00
   2.2190807E-04   2.8757638E+05   -1.7798794E+00
   2.2293286E-04   2.8522805E+05   -1.7793115E+00
   2.2396239E-04   2.8289965E+05   -1.7787432E+00
   2.2499667E-04   2.8059098E+05   -1.7781747E+00
   2.2603573E-04   2.7830188E+05   -1.7776059E+00
   2.2707958E-04   2.7603219E+05   -1.7770368E+00
   2.2812826E-04   2.7378172E+05   -1.7764674E+00
   2.2918178E-04   2.7155031E+05   -1.7758977E+00
   2.3024017E-04   2.6933779E+05   -1.7753278E+00
   2.3130344E-04   2.6714401E+05   -1.7747576E+00
   2.3237162E-04   2.6496879E+05   -1.7741871E+00
   2.3344474E-04   2.6281197E+05   -1.7736164E+00
   2.3452281E-04   2.6067339E+05   -1.7730454E+00
   2.3560586E-04   2.5855290E+05   -1.7724742E+00
   2.3669392E-04   2.5645033E+05   -1.7719028E+00
   2.3778699E-04   2.5436553E+05   -1.7713311E+00
   2.3888512E-04   2.5229834E+05   -1.7707592E+00
   2.3998831E-04   2.5024861E+05   -1.7701870E+00
   2.4109661E-04   2.4821619E+05   -1.7696147E+00
   2.4221001E-04   2.4620092E+05   -1.7690422E+00
   2.4332857E-04   2.4420266E+05   -1.7684694E+00
   2.4445228E-04   2.4222126E+05   -1.7678965E+00
   2.4558119E-04   2.4025657E+05   -1.7673233E+00
   2.4671531E-04   2.3830844E+05   -1.7667500E+00
   2.4785467E-04   2.3637674E+05   -1.7661765E+00
   2.4899928E-04   2.3446131E+05   -1.7656028E+00
   2.5014919E-04   2.3256202E+05   -1.7650290E+00
   2.5130440E-04   2.3067873E+05   -1.7644550E+00
   2.5246495E-04   2.2881129E+05   -1.7638809E+00
   2.5363086E-04   2.2695956E+05   -1.7633066E+00
   2.5480216E-04   2.2512343E+05   -1.7627322E+00
   2.5597886E-04   2.2330273E+05   -1.7621576E+00
   2.5716100E-04   2.2149735E+05   -1.7615829E+00
   2.5834859E-04   2.1970714E+05   -1.7610081E+00
   2.5954168E-04   2.1793199E+05   -1.7604331E+00
   2.6074027E-04   2.1617174E+05   -1.7598581E+00
   2.6194439E-04   2.1442628E+05   -1.7592829E+00
   2.6315408E-04   2.1269548E+05   -1.7587077E+00
   2.6436935E-04   2.1097921E+05   -1.7581323E+00
   2.6559024E-04   2.0927735E+05   -1.7575569E+00
   2.6681676E-04   2.0758976E+05   -1.7569814E+00
   2.6804895E-04   2.0591633E+05   -1.7564058E+00
   2.6928683E-04   2.0425693E+05   -1.7558301E+00
   2.7053042E-04   2.0261143E+05   -1.7552544E+00
   2.7177976E-04   2.0097973E+05   -1.7546787E+00
   2.7303487E-04   1.9936170E+05   -1.7541028E+00
   2.7429577E-04   1.9775722E+05   -1.7535270E+00
   2.7556250E-04   1.9616617E+05   -1.7529511E+00
   2.7683507E-04   1.9458844E+05   -1.7523751E+00
   2.7811353E-04   1.9302391E+05   -1.7517992E+00
   2.7939788E-04   1.9147246E+05   -1.7512232E+00
   2.8068817E-04   1.8993399E+05   -1.7506472E+00
   2.8198442E-04   1.8840839E+05   -1.7500712E+00
   2.8328665E-04   1.8689553E+05   -1.7494952E+00
   2.8459490E-04   1.8539531E+05   -1.7489192E+00
   2.8590919E-04   1.8390763E+05   -1.7483432E+00
   2.8722955E-04   1.8243236E+05   -1.7477672E+00
   2.8855600E-04   1.8096941E+05   -1.7471913E+00
   2.8988859E-04   1.7951867E+05   -1.7466153E+00
   2.9122732E-04   1.7808003E+05   -1.7460394E+00
   2.9257224E-04   1.7665339E+05   -1.7454636E+00
   2.9392337E-04   1.7523864E+05   -1.7448878E+00
   2.9528074E-04   1.7383568E+05   -1.7443121E+00
   2.9664438E-04   1.7244441E+05   -1.7437364E+00
   2.9801431E-04   1.7106474E+05   -1.7431608E+00
   2.9939057E-04   1.6969655E+05   -1.7425852E+00
   3.0077319E-04   1.6833974E+05   -1.7420098E+00
   3.0216219E-04   1.6699423E+05   -1.7414344E+00
   3.0355761E-04   1.6565992E+05   -1.7408591E+00
   3.0495947E-04   1.6433670E+05   -1.7402839E+00
   3.0636780E-04   1.6302448E+05   -1.7397088E+00
   3.0778264E-04   1.6172317E+05   -1.7391338E+00
   3.0920401E-04   1.6043267E+05   -1.7385590E+00
   3.1063195E-04   1.5915289E+05   -1.7379842E+00
   3.1206648E-04   1.5788374E+05   -1.7374096E+00
   3.1350764E-04   1.5662512E+05   -1.7368351E+00
   3.1495545E-04   1.5537694E+05   -1.7362607E+00
   3.1640994E-04   1.5413913E+05   -1.7356865E+00
   3.1787116E-04   1.5291157E+05   -1.7351125E+00
   3.1933912E-04   1.5169420E+05   -1.7345386E+00
   3.2081386E-04   1.5048691E+05   -1.7339649E+00
   3.2229541E-04   1.4928963E+05   -1.7333913E+00
   3.2378381E-04   1.4810227E+05   -1.7328179E+00
   3.2527908E-04   1.4692473E+05   -1.7322447E+00
   3.2678125E-04   1.4575694E+05   -1.7316717E+00
   3.2829036E-04   1.4459882E+05   -1.7310988E+00
   3.2980644E-04   1.4345028E+05   -1.7305262E+00
   3.3132952E-04   1.4231123E+05   -1.7299538E+00
   3.3285963E-04   1.4118161E+05   -1.7293816E+00
   3.3439681E-04   1.4006131E+05   -1.7288096E+00
   3.3594109E-04   1.3895028E+05   -1.7282378E+00
   3.3749250E-04   1.3784842E+05   -1.7276662E+00
   3.3905108E-04   1.3675566E+05   -1.7270949E+00
   3.4061685E-04   1.3567191E+05   -1.7265239E+00
   3.4218986E-04   1.3459711E+05   -1.7259530E+00
   3.4377013E-04   1.3353118E+05   -1.7253825E+00
   3.4535769E-04   1.3247404E+05   -1.7248121E+00
   3.4695259E-04   1.3142561E+05   -1.7242421E+00
   3.4855485E-04   1.3038582E+05   -1.7236723E+00
   3.5016452E-04   1.2935459E+05   -1.7231028E+00
   3.5178161E-04   1.2833186E+05   -1.7225336E+00
   3.5340618E-04   1.2731755E+05   -1.7219646E+00
   3.5503824E-04   1.2631158E+05   -1.7213960E+00
   3.5667785E-04   1.2531390E+05   -1.7208277E+00
   3.5832502E-04   1.2432442E+05   -1.7202596E+00
   3.5997981E-04   1.2334307E+05   -1.7196919E+00
   3.6164223E-04   1.2236979E+05   -1.7191245E+00
   3.6331233E-04   1.2140451E+05   -1.7185574E+00
   3.6499015E-04   1.2044716E+05   -1.7179906E+00
   3.6667571E-04   1.1949767E+05   -1.7174242E+00
   3.6836906E-04   1.1855597E+05   -1.7168581E+00
   3.7007022E-04   1.1762200E+05   -1.7162924E+00
   3.7177925E-04   1.1669569E+05   -1.7157270E+00
   3.7349616E-04   1.1577698E+05   -1.7151619E+00
   3.7522101E-04   1.1486580E+05   -1.7145973E+00
   3.7695382E-04   1.1396209E+05   -1.7140329E+00
   3.7869463E-04   1.1306578E+05   -1.7134690E+00
   3.8044348E-04   1.1217681E+05   -1.7129055E+00
   3.8220041E-04   1.1129512E+05   -1.7123423E+00
   3.8396545E-04   1.1042065E+05   -1.7117795E+00
   3.8573864E-04   1.0955333E+05   -1.7112171E+00
   3.8752002E-04   1.0869311E+05   -1.7106551E+00
   3.8930963E-04   1.0783992E+05   -1.7100935E+00
   3.9110750E-04   1.0699370E+05   -1.7095324E+00
   3.9291368E-04   1.0615440E+05   -1.7089716E+00
   3.9472820E-04   1.0532195E+05   -1.7084113E+00
   3.9655109E-04   1.0449630E+05   -1.7078514E+00
   3.9838241E-04   1.0367739E+05   -1.7072919E+00
   4.0022218E-04   1.0286517E+05   -1.7067329E+00
   4.0207045E-04   1.0205957E+05   -1.7061743E+00
   4.0392725E-04   1.0126054E+05   -1.7056162E+00
   4.0579263E-04   1.0046802E+05   -1.7050585E+00
   4.0766662E-04   9.9681963E+04   -1.7045013E+00
   4.0954927E-04   9.8902309E+04   -1.7039446E+00
   4.1144061E-04   9.8129005E+04   -1.7033883E+00
   4.1334068E-04   9.7361996E+04   -1.7028325E+00
   4.1524953E-04   9.6601230E+04   -1.7022772E+00
   4.1716720E-04   9.5846654E+04   -1.7017224E+00
   4.1909372E-04   9.5098214E+04   -1.7011680E+00
   4.2102914E-04   9.4355860E+04   -1.7006142E+00
   4.2297350E-04   9.3619539E+04   -1.7000609E+00
   4.2492683E-04   9.2889202E+04   -1.6995080E+00
   4.2688919E-04   9.2164796E+04   -1.6989557E+00
   4.2886061E-04   9.1446273E+04   -1.6984039E+00
   4.3084113E-04   9.0733581E+04   -1.6978527E+00
   4.3283080E-04   9.0026673E+04   -1.6973019E+00
   4.3482966E-04   8.9325499E+04   -1.6967517E+00
   4.3683775E-04   8.8630010E+04   -1.6962020E+00
   4.3885511E-04   8.7940159E+04   -1.6956529E+00
   4.4088179E-04   8.7255898E+04   -1.6951043E+00
   4.4291783E-04   8.6577180E+04   -1.6945563E+00
   4.4496327E-04   8.5903959E+04   -1.6940089E+00
   4.4701816E-04   8.5236187E+04   -1.6934620E+00
   4.4908253E-04   8.4573819E+04   -1.6929156E+00
   4.5115644E-04   8.3916809E+04   -1.6923699E+00
   4.5323993E-04   8.3265112E+04   -1.6918247E+00
   4.5533304E-04   8.2618685E+04   -1.6912801E+00
   4.5743582E-04   8.1977481E+04   -1.6907361E+00
   4.5954830E-04   8.1341457E+04   -1.6901927E+00
   4.6167054E-04   8.0710570E+04   -1.6896499E+00
   4.6380259E-04   8.0084777E+04   -1.6891076E+00
   4.6594448E-04   7.9464034E+04   -1.6885660E+00
   4.6809626E-04   7.8848299E+04   -1.6880250E+00
   4.7025797E-04   7.8237529E+04   -1.6874847E+00
   4.7242967E-04   7.7631685E+04   -1.6869449E+00
   4.7461140E-04   7.7030723E+04   -1.6864058E+00
   4.7680321E-04   7.6434602E+04   -1.6858673E+00
   4.7900514E-04   7.5843284E+04   -1.6853294E+00
   4.8121723E-04   7.5256726E+04   -1.6847922E+00
   4.8343954E-04   7.4674889E+04   -1.6842556E+00
   4.8567212E-04   7.4097734E+04   -1.6837197E+00
   4.8791500E-04   7.3525221E+04   -1.6831844E+00
   4.9016825E-04   7.2957312E+04   -1.6826498E+00
   4.9243189E-04   7.2393967E+04   -1.6821158E+00
   4.9470600E-04   7.1835149E+04   -1.6815825E+00
   4.9699060E-04   7.1280819E+04   -1.6810499E+00
   4.9928575E-04   7.0730940E+04   -1.6805179E+00
   5.0159151E-04   7.0185475E+04   -1.6799867E+00
   5.0390791E-04   6.9644387E+04   -1.6794561E+00
   5.0623501E-04   6.9107639E+04   -1.6789262E+00
   5.0857286E-04   6.8575196E+04   -1.6783970E+00
   5.1092150E-04   6.8047020E+04   -1.6778685E+00
   5.1328099E-04   6.7523077E+04   -1.6773407E+00
   5.1565137E-04   6.7003331E+04   -1.6768136E+00
   5.1803270E-04   6.6487747E+04   -1.6762872E+00
   5.2042503E-04   6.5976290E+04   -1.6757615E+00
   5.2282841E-04   6.5468926E+04   -1.6752366E+00
   5.2524289E-04   6.4965621E+04   -1.6747123E+00
   5.2766851E-04   6.4466340E+04   -1.6741888E+00
   5.3010534E-04   6.3971051E+04   -1.6736660E+00
   5.3255342E-04   6.3479720E+04   -1.6731440E+00
   5.3501281E-04   6.2992314E+04   -1.6726227E+00
   5.3748356E-04   6.2508800E+04   -1.6721021E+00
   5.3996571E-04   6.2029146E+04   -1.6715823E+00
   5.4245933E-04   6.1553321E+04   -1.6710632E+00
   5.4496446E-04   6.1081291E+04   -1.6705449E+00
   5.4748117E-04   6.0613026E+04   -1.6700274E+00
   5.5000949E-04   6.0148494E+04   -1.6695106E+00
   5.5254949E-04   5.9687664E+04   -1.6689945E+00
   5.5510123E-04   5.9230506E+04   -1.6684793E+00
   5.5766474E-04   5.8776988E+04   -1.6679648E+00
   5.6024010E-04   5.8327081E+04   -1.6674510E+00
   5.6282734E-04   5.7880755E+04   -1.6669381E+00
   5.6542654E-04   5.7437979E+04   -1.6664260E+00
   5.6803774E-04   5.6998726E+04   -1.6659146E+00
   5.7066099E-04   5.6562964E+04   -1.6654040E+00
   5.7329637E-04   5.6130666E+04   -1.6648942E+00
   5.7594391E-04   5.5701803E+04   -1.6643852E+00
   5.7860368E-04   5.5276346E+04   -1.6638771E+00
   5.8127573E-04   5.4854267E+04   -1.6633697E+00
   5.8396012E-04   5.4435538E+04   -1.6628631E+00
   5.8665691E-04   5.4020131E+04   -1.6623574E+00
   5.8936616E-04   5.3608019E+04   -1.6618524E+00
   5.9208791E-04   5.3199175E+04   -1.6613483E+00
   5.9482223E-04   5.2793572E+04   -1.6608450E+00
   5.9756919E-04   5.2391182E+04   -1.6603425E+00
   6.0032882E-04   5.1991979E+04   -1.6598409E+00
   6.0310120E-04   5.1595938E+04   -1.6593400E+00
   6.0588639E-04   5.1203031E+04   -1.6588401E+00
   6.0868443E-04   5.0813233E+04   -1.6583409E+00
   6.1149540E-04   5.0426519E+04   -1.6578426E+00
   6.1431935E-04   5.0042862E+04   -1.6573452E+00
   6.1715634E-04   4.9662238E+04   -1.6568485E+00
   6.2000644E-04   4.9284622E+04   -1.6563528E+00
   6.2286969E-04   4.8909989E+04   -1.6558579E+00
