#        a       HoverH0(a)       dlogHdloga_of_a(a)
   1.0000000E-04   1.1293431E+06   -1.8751458E+00
   1.0046181E-04   1.1196290E+06   -1.8747137E+00
   1.0092575E-04   1.1100008E+06   -1.8742806E+00
   1.0139184E-04   1.1004575E+06   -1.8738465E+00
   1.0186008E-04   1.0909985E+06   -1.8734114E+00
   1.0233048E-04   1.0816229E+06   -1.8729753E+00
   1.0280305E-04   1.0723301E+06   -1.8725382E+00
   1.0327781E-04   1.0631193E+06   -1.8721001E+00
   1.0375475E-04   1.0539897E+06   -1.8716610E+00
   1.0423390E-04   1.0449406E+06   -1.8712210E+00
   1.0471527E-04   1.0359713E+06   -1.8707800E+00
   1.0519885E-04   1.0270811E+06   -1.8703379E+00
   1.0568467E-04   1.0182693E+06   -1.8698950E+00
   1.0617274E-04   1.0095351E+06   -1.8694510E+00
   1.0666305E-04   1.0008779E+06   -1.8690060E+00
   1.0715563E-04   9.9229695E+05   -1.8685601E+00
   1.0765049E-04   9.8379161E+05   -1.8681132E+00
   1.0814763E-04   9.7536118E+05   -1.8676653E+00
   1.0864707E-04   9.6700500E+05   -1.8672164E+00
   1.0914881E-04   9.5872239E+05   -1.8667666E+00
   1.0965287E-04   9.5051269E+05   -1.8663158E+00
   1.1015926E-04   9.4237525E+05   -1.8658641E+00
   1.1066799E-04   9.3430942E+05   -1.8654113E+00
   1.1117906E-04   9.2631457E+05   -1.8649577E+00
   1.1169250E-04   9.1839004E+05   -1.8645030E+00
   1.1220831E-04   9.1053522E+05   -1.8640474E+00
   1.1272650E-04   9.0274948E+05   -1.8635908E+00
   1.1324708E-04   8.9503219E+05   -1.8631333E+00
   1.1377007E-04   8.8738276E+05   -1.8626748E+00
   1.1429547E-04   8.7980056E+05   -1.8622154E+00
   1.1482330E-04   8.7228499E+05   -1.8617550E+00
   1.1535356E-04   8.6483546E+05   -1.8612936E+00
   1.1588628E-04   8.5745138E+05   -1.8608313E+00
   1.1642145E-04   8.5013215E+05   -1.8603681E+00
   1.1695910E-04   8.4287720E+05   -1.8599039E+00
   1.1749923E-04   8.3568596E+05   -1.8594388E+00
   1.1804185E-04   8.2855784E+05   -1.8589728E+00
   1.1858698E-04   8.2149229E+05   -1.8585058E+00
   1.1913463E-04   8.1448875E+05   -1.8580378E+00
   1.1968481E-04   8.0754666E+05   -1.8575690E+00
   1.2023752E-04   8.0066547E+05   -1.8570992E+00
   1.2079279E-04   7.9384463E+05   -1.8566285E+00
   1.2135063E-04   7.8708361E+05   -1.8561568E+00
   1.2191104E-04   7.8038187E+05   -1.8556843E+00
   1.2247403E-04   7.7373888E+05   -1.8552108E+00
   1.2303963E-04   7.6715412E+05   -1.8547364E+00
   1.2360784E-04   7.6062705E+05   -1.8542610E+00
   1.2417868E-04   7.5415717E+05   -1.8537848E+00
   1.2475215E-04   7.4774397E+05   -1.8533076E+00
   1.2532826E-04   7.4138693E+05   -1.8528296E+00
   1.2590704E-04   7.3508556E+05   -1.8523506E+00
   1.2648850E-04   7.2883936E+05   -1.8518707E+00
   1.2707263E-04   7.2264783E+05   -1.8513900E+00
   1.2765947E-04   7.1651049E+05   -1.8509083E+00
   1.2824901E-04   7.1042685E+05   -1.8504257E+00
   1.2884128E-04   7.0439643E+05   -1.8499422E+00
   1.2943628E-04   6.9841876E+05   -1.8494579E+00
   1.3003403E-04   6.9249337E+05   -1.8489726E+00
   1.3063454E-04   6.8661978E+05   -1.8484865E+00
   1.3123783E-04   6.8079753E+05   -1.8479995E+00
   1.3184390E-04   6.7502618E+05   -1.8475116E+00
   1.3245277E-04   6.6930525E+05   -1.8470228E+00
   1.3306445E-04   6.6363430E+05   -1.8465332E+00
   1.3367895E-04   6.5801289E+05   -1.8460427E+00
   1.3429630E-04   6.5244058E+05   -1.8455513E+00
   1.3491649E-04   6.4691691E+05   -1.8450590E+00
   1.3553955E-04   6.4144147E+05   -1.8445659E+00
   1.3616548E-04   6.3601382E+05   -1.8440719E+00
   1.3679431E-04   6.3063353E+05   -1.8435771E+00
   1.3742604E-04   6.2530018E+05   -1.8430814E+00
   1.3806069E-04   6.2001336E+05   -1.8425848E+00
   1.3869827E-04   6.1477264E+05   -1.8420874E+00
   1.3933879E-04   6.0957762E+05   -1.8415892E+00
   1.3998227E-04   6.0442788E+05   -1.8410901E+00
   1.4062872E-04   5.9932303E+05   -1.8405902E+00
   1.4127816E-04   5.9426267E+05   -1.8400895E+00
   1.4193060E-04   5.8924639E+05   -1.8395879E+00
   1.4258605E-04   5.8427380E+05   -1.8390855E+00
   1.4324453E-04   5.7934452E+05   -1.8385822E+00
   1.4390605E-04   5.7445816E+05   -1.8380782E+00
   1.4457062E-04   5.6961434E+05   -1.8375733E+00
   1.4523826E-04   5.6481268E+05   -1.8370676E+00
   1.4590899E-04   5.6005280E+05   -1.8365611E+00
   1.4658281E-04   5.5533433E+05   -1.8360538E+00
   1.4725974E-04   5.5065690E+05   -1.8355456E+00
   1.4793981E-04   5.4602014E+05   -1.8350367E+00
   1.4862301E-04   5.4142370E+05   -1.8345270E+00
   1.4930936E-04   5.3686722E+05   -1.8340165E+00
   1.4999889E-04   5.3235033E+05   -1.8335052E+00
   1.5069160E-04   5.2787269E+05   -1.8329931E+00
   1.5138751E-04   5.2343395E+05   -1.8324802E+00
   1.5208663E-04   5.1903376E+05   -1.8319665E+00
   1.5278899E-04   5.1467178E+05   -1.8314521E+00
   1.5349458E-04   5.1034767E+05   -1.8309369E+00
   1.5420343E-04   5.0606109E+05   -1.8304209E+00
   1.5491556E-04   5.0181171E+05   -1.8299041E+00
   1.5563098E-04   4.9759920E+05   -1.8293866E+00
   1.5634970E-04   4.9342322E+05   -1.8288684E+00
   1.5707174E-04   4.8928347E+05   -1.8283493E+00
   1.5779711E-04   4.8517960E+05   -1.8278296E+00
   1.5852584E-04   4.8111131E+05   -1.8273091E+00
   1.5925792E-04   4.7707827E+05   -1.8267878E+00
   1.5999339E-04   4.7308018E+05   -1.8262658E+00
   1.6073226E-04   4.6911673E+05   -1.8257431E+00
   1.6147454E-04   4.6518760E+05   -1.8252196E+00
   1.6222024E-04   4.6129250E+05   -1.8246954E+00
   1.6296939E-04   4.5743111E+05   -1.8241705E+00
   1.6372200E-04   4.5360315E+05   -1.8236449E+00
   1.6447809E-04   4.4980831E+05   -1.8231185E+00
   1.6523767E-04   4.4604630E+05   -1.8225915E+00
   1.6600075E-04   4.4231683E+05   -1.8220637E+00
   1.6676736E-04   4.3861961E+05   -1.8215352E+00
   1.6753751E-04   4.3495435E+05   -1.8210061E+00
   1.6831122E-04   4.3132077E+05   -1.8204762E+00
   1.6908849E-04   4.2771859E+05   -1.8199457E+00
   1.6986936E-04   4.2414753E+05   -1.8194145E+00
   1.7065384E-04   4.2060732E+05   -1.8188826E+00
   1.7144193E-04   4.1709768E+05   -1.8183500E+00
   1.7223367E-04   4.1361834E+05   -1.8178167E+00
   1.7302906E-04   4.1016904E+05   -1.8172828E+00
   1.7382813E-04   4.0674950E+05   -1.8167482E+00
   1.7463089E-04   4.0335946E+05   -1.8162130E+00
   1.7543735E-04   3.9999866E+05   -1.8156771E+00
   1.7624754E-04   3.9666685E+05   -1.8151405E+00
   1.7706147E-04   3.9336376E+05   -1.8146034E+00
   1.7787916E-04   3.9008914E+05   -1.8140655E+00
   1.7870062E-04   3.8684274E+05   -1.8135271E+00
   1.7952588E-04   3.8362431E+05   -1.8129880E+00
   1.8035495E-04   3.8043361E+05   -1.8124482E+00
   1.8118785E-04   3.7727038E+05   -1.8119079E+00
   1.8202459E-04   3.7413438E+05   -1.8113669E+00
   1.8286520E-04   3.7102537E+05   -1.8108254E+00
   1.8370969E-04   3.6794313E+05   -1.8102832E+00
   1.8455808E-04   3.6488739E+05   -1.8097404E+00
   1.8541039E-04   3.6185794E+05   -1.8091970E+00
   1.8626663E-04   3.5885455E+05   -1.8086530E+00
   1.8712683E-04   3.5587697E+05   -1.8081085E+00
   1.8799100E-04   3.5292498E+05   -1.8075633E+00
   1.8885917E-04   3.4999836E+05   -1.8070176E+00
   1.8973134E-04   3.4709688E+05   -1.8064713E+00
   1.9060754E-04   3.4422033E+05   -1.8059244E+00
   1.9148778E-04   3.4136847E+05   -1.8053770E+00
   1.9237209E-04   3.3854109E+05   -1.8048290E+00
   1.9326049E-04   3.3573798E+05   -1.8042804E+00
   1.9415299E-04   3.3295892E+05   -1.8037313E+00
   1.9504960E-04   3.3020370E+05   -1.8031817E+00
   1.9595036E-04   3.2747212E+05   -1.8026315E+00
   1.9685528E-04   3.2476395E+05   -1.8020808E+00
   1.9776438E-04   3.2207899E+05   -1.8015296E+00
   1.9867768E-04   3.1941705E+05   -1.8009778E+00
   1.9959519E-04   3.1677791E+05   -1.8004255E+00
   2.0051694E-04   3.1416137E+05   -1.7998727E+00
   2.0144295E-04   3.1156724E+05   -1.7993194E+00
   2.0237324E-04   3.0899532E+05   -1.7987656E+00
   2.0330782E-04   3.0644542E+05   -1.7982113E+00
   2.0424671E-04   3.0391733E+05   -1.7976565E+00
   2.0518995E-04   3.0141087E+05   -1.7971012E+00
   2.0613754E-04   2.9892584E+05   -1.7965454E+00
   2.0708950E-04   2.9646207E+05   -1.7959891E+00
   2.0804586E-04   2.9401935E+05   -1.7954324E+00
   2.0900664E-04   2.9159751E+05   -1.7948752E+00
   2.0997185E-04   2.8919636E+05   -1.7943176E+00
   2.1094152E-04   2.8681572E+05   -1.7937594E+00
   2.1191567E-04   2.8445541E+05   -1.7932009E+00
   2.1289432E-04   2.8211525E+05   -1.7926419E+00
   2.1387749E-04   2.7979506E+05   -1.7920824E+00
   2.1486520E-04   2.7749467E+05   -1.7915226E+00
   2.1585747E-04   2.7521390E+05   -1.7909623E+00
   2.1685432E-04   2.7295258E+05   -1.7904015E+00
   2.1785578E-04   2.7071055E+05   -1.7898404E+00
   2.1886186E-04   2.6848762E+05   -1.7892788E+00
   2.1987259E-04   2.6628364E+05   -1.7887168E+00
   2.2088798E-04   2.6409843E+05   -1.7881545E+00
   2.2190807E-04   2.6193184E+05   -1.7875917E+00
   2.2293286E-04   2.5978369E+05   -1.7870285E+00
   2.2396239E-04   2.5765383E+05   -1.7864650E+00
   2.2499667E-04   2.5554209E+05   -1.7859011E+00
   2.2603573E-04   2.5344832E+05   -1.7853368E+00
   2.2707958E-04   2.5137236E+05   -1.7847721E+00
   2.2812826E-04   2.4931405E+05   -1.7842071E+00
   2.2918178E-04   2.4727324E+05   -1.7836417E+00
   2.3024017E-04   2.4524978E+05   -1.7830760E+00
   2.3130344E-04   2.4324351E+05   -1.7825099E+00
   2.3237162E-04   2.4125427E+05   -1.7819435E+00
   2.3344474E-04   2.3928194E+05   -1.7813767E+00
   2.3452281E-04   2.3732634E+05   -1.7808096E+00
   2.3560586E-04   2.3538735E+05   -1.7802422E+00
   2.3669392E-04   2.3346480E+05   -1.7796745E+00
   2.3778699E-04   2.3155857E+05   -1.7791065E+00
   2.3888512E-04   2.2966850E+05   -1.7785382E+00
   2.3998831E-04   2.2779445E+05   -1.7779695E+00
   2.4109661E-04   2.2593629E+05   -1.7774006E+00
   2.4221001E-04   2.2409387E+05   -1.7768314E+00
   2.4332857E-04   2.2226707E+05   -1.7762619E+00
   2.4445228E-04   2.2045573E+05   -1.7756921E+00
   2.4558119E-04   2.1865972E+05   -1.7751221E+00
   2.4671531E-04   2.1687892E+05   -1.7745518E+00
   2.4785467E-04   2.1511319E+05   -1.7739812E+00
   2.4899928E-04   2.1336239E+05   -1.7734104E+00
   2.5014919E-04   2.1162640E+05   -1.7728393E+00
   2.5130440E-04   2.0990509E+05   -1.7722680E+00
   2.5246495E-04   2.0819832E+05   -1.7716964E+00
   2.5363086E-04   2.0650598E+05   -1.7711247E+00
   2.5480216E-04   2.0482794E+05   -1.7705527E+00
   2.5597886E-04   2.0316406E+05   -1.7699805E+00
   2.5716100E-04   2.0151423E+05   -1.7694080E+00
   2.5834859E-04   1.9987833E+05   -1.7688354E+00
   2.5954168E-04   1.9825623E+05   -1.7682626E+00
   2.6074027E-04   1.9664781E+05   -1.7676896E+00
   2.6194439E-04   1.9505296E+05   -1.7671164E+00
   2.6315408E-04   1.9347155E+05   -1.7665430E+00
   2.6436935E-04   1.9190348E+05   -1.7659694E+00
   2.6559024E-04   1.9034861E+05   -1.7653957E+00
   2.6681676E-04   1.8880684E+05   -1.7648218E+00
   2.6804895E-04   1.8727806E+05   -1.7642477E+00
   2.6928683E-04   1.8576214E+05   -1.7636735E+00
   2.7053042E-04   1.8425898E+05   -1.7630992E+00
   2.7177976E-04   1.8276847E+05   -1.7625247E+00
   2.7303487E-04   1.8129050E+05   -1.7619500E+00
   2.7429577E-04   1.7982495E+05   -1.7613753E+00
   2.7556250E-04   1.7837173E+05   -1.7608004E+00
   2.7683507E-04   1.7693071E+05   -1.7602254E+00
   2.7811353E-04   1.7550181E+05   -1.7596503E+00
   2.7939788E-04   1.7408490E+05   -1.7590751E+00
   2.8068817E-04   1.7267989E+05   -1.7584998E+00
   2.8198442E-04   1.7128668E+05   -1.7579245E+00
   2.8328665E-04   1.6990516E+05   -1.7573490E+00
   2.8459490E-04   1.6853522E+05   -1.7567734E+00
   2.8590919E-04   1.6717678E+05   -1.7561978E+00
   2.8722955E-04   1.6582972E+05   -1.7556221E+00
   2.8855600E-04   1.6449396E+05   -1.7550464E+00
   2.8988859E-04   1.6316938E+05   -1.7544706E+00
   2.9122732E-04   1.6185591E+05   -1.7538947E+00
   2.9257224E-04   1.6055343E+05   -1.7533188E+00
   2.9392337E-04   1.5926186E+05   -1.7527429E+00
   2.9528074E-04   1.5798109E+05   -1.7521669E+00
   2.9664438E-04   1.5671104E+05   -1.7515910E+00
   2.9801431E-04   1.5545161E+05   -1.7510150E+00
   2.9939057E-04   1.5420272E+05   -1.7504390E+00
   3.0077319E-04   1.5296426E+05   -1.7498629E+00
   3.0216219E-04   1.5173616E+05   -1.7492869E+00
   3.0355761E-04   1.5051831E+05   -1.7487109E+00
   3.0495947E-04   1.4931063E+05   -1.7481349E+00
   3.0636780E-04   1.4811304E+05   -1.7475590E+00
   3.0778264E-04   1.4692544E+05   -1.7469830E+00
   3.0920401E-04   1.4574775E+05   -1.7464071E+00
   3.1063195E-04   1.4457989E+05   -1.7458312E+00
   3.1206648E-04   1.4342176E+05   -1.7452554E+00
   3.1350764E-04   1.4227329E+05   -1.7446796E+00
   3.1495545E-04   1.4113439E+05   -1.7441039E+00
   3.1640994E-04   1.4000497E+05   -1.7435282E+00
   3.1787116E-04   1.3888497E+05   -1.7429526E+00
   3.1933912E-04   1.3777428E+05   -1.7423771E+00
   3.2081386E-04   1.3667285E+05   -1.7418016E+00
   3.2229541E-04   1.3558058E+05   -1.7412263E+00
   3.2378381E-04   1.3449739E+05   -1.7406510E+00
   3.2527908E-04   1.3342321E+05   -1.7400758E+00
   3.2678125E-04   1.3235796E+05   -1.7395008E+00
   3.2829036E-04   1.3130157E+05   -1.7389258E+00
   3.2980644E-04   1.3025395E+05   -1.7383510E+00
   3.3132952E-04   1.2921503E+05   -1.7377763E+00
   3.3285963E-04   1.2818473E+05   -1.7372017E+00
   3.3439681E-04   1.2716299E+05   -1.7366272E+00
   3.3594109E-04   1.2614973E+05   -1.7360529E+00
   3.3749250E-04   1.2514487E+05   -1.7354787E+00
   3.3905108E-04   1.2414834E+05   -1.7349047E+00
   3.4061685E-04   1.2316008E+05   -1.7343309E+00
   3.4218986E-04   1.2218001E+05   -1.7337572E+00
   3.4377013E-04   1.2120805E+05   -1.7331837E+00
   3.4535769E-04   1.2024414E+05   -1.7326103E+00
   3.4695259E-04   1.1928822E+05   -1.7320372E+00
   3.4855485E-04   1.1834021E+05   -1.7314642E+00
   3.5016452E-04   1.1740004E+05   -1.7308915E+00
   3.5178161E-04   1.1646764E+05   -1.7303189E+00
   3.5340618E-04   1.1554296E+05   -1.7297465E+00
   3.5503824E-04   1.1462592E+05   -1.7291744E+00
   3.5667785E-04   1.1371646E+05   -1.7286024E+00
   3.5832502E-04   1.1281451E+05   -1.7280307E+00
   3.5997981E-04   1.1192001E+05   -1.7274593E+00
   3.6164223E-04   1.1103290E+05   -1.7268880E+00
   3.6331233E-04   1.1015311E+05   -1.7263170E+00
   3.6499015E-04   1.0928057E+05   -1.7257463E+00
   3.6667571E-04   1.0841523E+05   -1.7251758E+00
   3.6836906E-04   1.0755703E+05   -1.7246056E+00
   3.7007022E-04   1.0670590E+05   -1.7240356E+00
   3.7177925E-04   1.0586178E+05   -1.7234659E+00
   3.7349616E-04   1.0502462E+05   -1.7228965E+00
   3.7522101E-04   1.0419435E+05   -1.7223273E+00
   3.7695382E-04   1.0337092E+05   -1.7217585E+00
   3.7869463E-04   1.0255426E+05   -1.7211899E+00
   3.8044348E-04   1.0174432E+05   -1.7206217E+00
   3.8220041E-04   1.0094104E+05   -1.7200538E+00
   3.8396545E-04   1.0014436E+05   -1.7194861E+00
   3.8573864E-04   9.9354235E+04   -1.7189188E+00
   3.8752002E-04   9.8570599E+04   -1.7183518E+00
   3.8930963E-04   9.7793399E+04   -1.7177852E+00
   3.9110750E-04   9.7022580E+04   -1.7172189E+00
   3.9291368E-04   9.6258087E+04   -1.7166529E+00
   3.9472820E-04   9.5499868E+04   -1.7160872E+00
   3.9655109E-04   9.4747867E+04   -1.7155220E+00
   3.9838241E-04   9.4002033E+04   -1.7149570E+00
   4.0022218E-04   9.3262313E+04   -1.7143925E+00
   4.0207045E-04   9.2528655E+04   -1.7138283E+00
   4.0392725E-04   9.1801006E+04   -1.7132645E+00
   4.0579263E-04   9.1079316E+04   -1.7127011E+00
   4.0766662E-04   9.0363535E+04   -1.7121380E+00
   4.0954927E-04   8.9653611E+04   -1.7115754E+00
   4.1144061E-04   8.8949495E+04   -1.7110131E+00
   4.1334068E-04   8.8251137E+04   -1.7104512E+00
   4.1524953E-04   8.7558489E+04   -1.7098898E+00
   4.1716720E-04   8.6871501E+04   -1.7093288E+00
   4.1909372E-04   8.6190127E+04   -1.7087682E+00
   4.2102914E-04   8.5514318E+04   -1.7082080E+00
   4.2297350E-04   8.4844026E+04   -1.7076482E+00
   4.2492683E-04   8.4179206E+04   -1.7070889E+00
   4.2688919E-04   8.3519810E+04   -1.7065300E+00
   4.2886061E-04   8.2865793E+04   -1.7059716E+00
   4.3084113E-04   8.2217108E+04   -1.7054136E+00
   4.3283080E-04   8.1573712E+04   -1.7048561E+00
   4.3482966E-04   8.0935558E+04   -1.7042990E+00
   4.3683775E-04   8.0302602E+04   -1.7037424E+00
   4.3885511E-04   7.9674800E+04   -1.7031863E+00
   4.4088179E-04   7.9052109E+04   -1.7026307E+00
   4.4291783E-04   7.8434486E+04   -1.7020755E+00
   4.4496327E-04   7.7821886E+04   -1.7015209E+00
   4.4701816E-04   7.7214269E+04   -1.7009667E+00
   4.4908253E-04   7.6611591E+04   -1.7004130E+00
   4.5115644E-04   7.6013811E+04   -1.6998599E+00
   4.5323993E-04   7.5420888E+04   -1.6993072E+00
   4.5533304E-04   7.4832780E+04   -1.6987551E+00
   4.5743582E-04   7.4249447E+04   -1.6982034E+00
   4.5954830E-04   7.3670848E+04   -1.6976523E+00
   4.6167054E-04   7.3096943E+04   -1.6971018E+00
   4.6380259E-04   7.2527693E+04   -1.6965517E+00
   4.6594448E-04   7.1963059E+04   -1.6960022E+00
   4.6809626E-04   7.1403001E+04   -1.6954533E+00
   4.7025797E-04   7.0847480E+04   -1.6949049E+00
   4.7242967E-04   7.0296459E+04   -1.6943571E+00
   4.7461140E-04   6.9749900E+04   -1.6938098E+00
   4.7680321E-04   6.9207765E+04   -1.6932631E+00
   4.7900514E-04   6.8670016E+04   -1.6927169E+00
   4.8121723E-04   6.8136617E+04   -1.6921714E+00
   4.8343954E-04   6.7607531E+04   -1.6916264E+00
   4.8567212E-04   6.7082722E+04   -1.6910820E+00
   4.8791500E-04   6.6562154E+04   -1.6905382E+00
   4.9016825E-04   6.6045790E+04   -1.6899950E+00
   4.9243189E-04   6.5533597E+04   -1.6894523E+00
   4.9470600E-04   6.5025538E+04   -1.6889103E+00
   4.9699060E-04   6.4521578E+04   -1.6883689E+00
   4.9928575E-04   6.4021684E+04   -1.6878281E+00
   5.0159151E-04   6.3525822E+04   -1.6872880E+00
   5.0390791E-04   6.3033956E+04   -1.6867484E+00
   5.0623501E-04   6.2546055E+04   -1.6862095E+00
   5.0857286E-04   6.2062084E+04   -1.6856712E+00
   5.1092150E-04   6.1582010E+04   -1.6851335E+00
   5.1328099E-04   6.1105802E+04   -1.6845965E+00
   5.1565137E-04   6.0633426E+04   -1.6840602E+00
   5.1803270E-04   6.0164850E+04   -1.6835245E+00
   5.2042503E-04   5.9700043E+04   -1.6829894E+00
   5.2282841E-04   5.9238972E+04   -1.6824550E+00
   5.2524289E-04   5.8781607E+04   -1.6819213E+00
   5.2766851E-04   5.8327916E+04   -1.6813882E+00
   5.3010534E-04   5.7877869E+04   -1.6808558E+00
   5.3255342E-04   5.7431436E+04   -1.6803241E+00
   5.3501281E-04   5.6988585E+04   -1.6797930E+00
   5.3748356E-04   5.6549288E+04   -1.6792627E+00
   5.3996571E-04   5.6113514E+04   -1.6787330E+00
   5.4245933E-04   5.5681234E+04   -1.6782040E+00
   5.4496446E-04   5.5252418E+04   -1.6776758E+00
   5.4748117E-04   5.4827039E+04   -1.6771482E+00
   5.5000949E-04   5.4405066E+04   -1.6766213E+00
   5.5254949E-04   5.3986472E+04   -1.6760952E+00
   5.5510123E-04   5.3571229E+04   -1.6755698E+00
   5.5766474E-04   5.3159308E+04   -1.6750450E+00
   5.6024010E-04   5.2750682E+04   -1.6745210E+00
   5.6282734E-04   5.2345323E+04   -1.6739978E+00
   5.6542654E-04   5.1943204E+04   -1.6734752E+00
   5.6803774E-04   5.1544298E+04   -1.6729534E+00
   5.7066099E-04   5.1148579E+04   -1.6724324E+00
   5.7329637E-04   5.0756019E+04   -1.6719121E+00
   5.7594391E-04   5.0366593E+04   -1.6713925E+00
   5.7860368E-04   4.9980275E+04   -1.6708737E+00
   5.8127573E-04   4.9597038E+04   -1.6703556E+00
   5.8396012E-04   4.9216857E+04   -1.6698383E+00
   5.8665691E-04   4.8839706E+04   -1.6693218E+00
   5.8936616E-04   4.8465561E+04   -1.6688060E+00
   5.9208791E-04   4.8094397E+04   -1.6682910E+00
   5.9482223E-04   4.7726188E+04   -1.6677767E+00
   5.9756919E-04   4.7360910E+04   -1.6672633E+00
   6.0032882E-04   4.6998539E+04   -1.6667506E+00
   6.0310120E-04   4.6639050E+04   -1.6662387E+00
   6.0588639E-04   4.6282421E+04   -1.6657276E+00
   6.0868443E-04   4.5928626E+04   -1.6652173E+00
   6.1149540E-04   4.5577643E+04   -1.6647078E+00
   6.1431935E-04   4.5229448E+04   -1.6641991E+00
   6.1715634E-04   4.4884019E+04   -1.6636912E+00
   6.2000644E-04   4.4541332E+04   -1.6631840E+00
   6.2286969E-04   4.4201364E+04   -1.6626777E+00
