#        a       HoverH0(a)       dlogHdloga_of_a(a)
   1.0000000E-04   1.1571883E+06   -1.9058726E+00
   1.0046181E-04   1.1470722E+06   -1.9055200E+00
   1.0092575E-04   1.1370463E+06   -1.9051664E+00
   1.0139184E-04   1.1271099E+06   -1.9048118E+00
   1.0186008E-04   1.1172622E+06   -1.9044562E+00
   1.0233048E-04   1.1075023E+06   -1.9040996E+00
   1.0280305E-04   1.0978295E+06   -1.9037420E+00
   1.0327781E-04   1.0882429E+06   -1.9033833E+00
   1.0375475E-04   1.0787419E+06   -1.9030237E+00
   1.0423390E-04   1.0693256E+06   -1.9026630E+00
   1.0471527E-04   1.0599932E+06   -1.9023013E+00
   1.0519885E-04   1.0507441E+06   -1.9019386E+00
   1.0568467E-04   1.0415773E+06   -1.9015749E+00
   1.0617274E-04   1.0324923E+06   -1.9012101E+00
   1.0666305E-04   1.0234883E+06   -1.9008443E+00
   1.0715563E-04   1.0145645E+06   -1.9004776E+00
   1.0765049E-04   1.0057202E+06   -1.9001098E+00
   1.0814763E-04   9.9695468E+05   -1.8997409E+00
   1.0864707E-04   9.8826726E+05   -1.8993711E+00
   1.0914881E-04   9.7965720E+05   -1.8990002E+00
   1.0965287E-04   9.7112382E+05   -1.8986284E+00
   1.1015926E-04   9.6266642E+05   -1.8982555E+00
   1.1066799E-04   9.5428432E+05   -1.8978815E+00
   1.1117906E-04   9.4597683E+05   -1.8975066E+00
   1.1169250E-04   9.3774329E+05   -1.8971306E+00
   1.1220831E-04   9.2958302E+05   -1.8967536E+00
   1.1272650E-04   9.2149536E+05   -1.8963756E+00
   1.1324708E-04   9.1347966E+05   -1.8959966E+00
   1.1377007E-04   9.0553528E+05   -1.8956166E+00
   1.1429547E-04   8.9766156E+05   -1.8952355E+00
   1.1482330E-04   8.8985786E+05   -1.8948534E+00
   1.1535356E-04   8.8212356E+05   -1.8944703E+00
   1.1588628E-04   8.7445803E+05   -1.8940862E+00
   1.1642145E-04   8.6686065E+05   -1.8937010E+00
   1.1695910E-04   8.5933080E+05   -1.8933148E+00
   1.1749923E-04   8.5186788E+05   -1.8929276E+00
   1.1804185E-04   8.4447127E+05   -1.8925394E+00
   1.1858698E-04   8.3714039E+05   -1.8921502E+00
   1.1913463E-04   8.2987464E+05   -1.8917599E+00
   1.1968481E-04   8.2267343E+05   -1.8913686E+00
   1.2023752E-04   8.1553618E+05   -1.8909763E+00
   1.2079279E-04   8.0846232E+05   -1.8905830E+00
   1.2135063E-04   8.0145127E+05   -1.8901887E+00
   1.2191104E-04   7.9450246E+05   -1.8897933E+00
   1.2247403E-04   7.8761534E+05   -1.8893969E+00
   1.2303963E-04   7.8078935E+05   -1.8889995E+00
   1.2360784E-04   7.7402394E+05   -1.8886011E+00
   1.2417868E-04   7.6731855E+05   -1.8882016E+00
   1.2475215E-04   7.6067266E+05   -1.8878012E+00
   1.2532826E-04   7.5408572E+05   -1.8873997E+00
   1.2590704E-04   7.4755720E+05   -1.8869972E+00
   1.2648850E-04   7.4108659E+05   -1.8865937E+00
   1.2707263E-04   7.3467334E+05   -1.8861892E+00
   1.2765947E-04   7.2831696E+05   -1.8857836E+00
   1.2824901E-04   7.2201692E+05   -1.8853770E+00
   1.2884128E-04   7.1577272E+05   -1.8849695E+00
   1.2943628E-04   7.0958386E+05   -1.8845609E+00
   1.3003403E-04   7.0344983E+05   -1.8841512E+00
   1.3063454E-04   6.9737015E+05   -1.8837406E+00
   1.3123783E-04   6.9134432E+05   -1.8833290E+00
   1.3184390E-04   6.8537186E+05   -1.8829163E+00
   1.3245277E-04   6.7945229E+05   -1.8825027E+00
   1.3306445E-04   6.7358513E+05   -1.8820880E+00
   1.3367895E-04   6.6776991E+05   -1.8816723E+00
   1.3429630E-04   6.6200617E+05   -1.8812556E+00
   1.3491649E-04   6.5629344E+05   -1.8808379E+00
   1.3553955E-04   6.5063126E+05   -1.8804192E+00
   1.3616548E-04   6.4501917E+05   -1.8799994E+00
   1.3679431E-04   6.3945673E+05   -1.8795787E+00
   1.3742604E-04   6.3394350E+05   -1.8791570E+00
   1.3806069E-04   6.2847901E+05   -1.8787342E+00
   1.3869827E-04   6.2306285E+05   -1.8783105E+00
   1.3933879E-04   6.1769456E+05   -1.8778857E+00
   1.3998227E-04   6.1237373E+05   -1.8774600E+00
   1.4062872E-04   6.0709993E+05   -1.8770332E+00
   1.4127816E-04   6.0187273E+05   -1.8766055E+00
   1.4193060E-04   5.9669171E+05   -1.8761767E+00
   1.4258605E-04   5.9155647E+05   -1.8757470E+00
   1.4324453E-04   5.8646657E+05   -1.8753162E+00
   1.4390605E-04   5.8142164E+05   -1.8748845E+00
   1.4457062E-04   5.7642124E+05   -1.8744517E+00
   1.4523826E-04   5.7146499E+05   -1.8740180E+00
   1.4590899E-04   5.6655250E+05   -1.8735832E+00
   1.4658281E-04   5.6168335E+05   -1.8731475E+00
   1.4725974E-04   5.5685718E+05   -1.8727108E+00
   1.4793981E-04   5.5207358E+05   -1.8722731E+00
   1.4862301E-04   5.4733218E+05   -1.8718344E+00
   1.4930936E-04   5.4263260E+05   -1.8713948E+00
   1.4999889E-04   5.3797446E+05   -1.8709541E+00
   1.5069160E-04   5.3335739E+05   -1.8705125E+00
   1.5138751E-04   5.2878103E+05   -1.8700698E+00
   1.5208663E-04   5.2424500E+05   -1.8696262E+00
   1.5278899E-04   5.1974895E+05   -1.8691816E+00
   1.5349458E-04   5.1529251E+05   -1.8687361E+00
   1.5420343E-04   5.1087534E+05   -1.8682895E+00
   1.5491556E-04   5.0649707E+05   -1.8678420E+00
   1.5563098E-04   5.0215736E+05   -1.8673935E+00
   1.5634970E-04   4.9785587E+05   -1.8669441E+00
   1.5707174E-04   4.9359224E+05   -1.8664937E+00
   1.5779711E-04   4.8936614E+05   -1.8660423E+00
   1.5852584E-04   4.8517724E+05   -1.8655899E+00
   1.5925792E-04   4.8102520E+05   -1.8651366E+00
   1.5999339E-04   4.7690969E+05   -1.8646823E+00
   1.6073226E-04   4.7283037E+05   -1.8642270E+00
   1.6147454E-04   4.6878694E+05   -1.8637708E+00
   1.6222024E-04   4.6477906E+05   -1.8633136E+00
   1.6296939E-04   4.6080642E+05   -1.8628555E+00
   1.6372200E-04   4.5686870E+05   -1.8623964E+00
   1.6447809E-04   4.5296559E+05   -1.8619364E+00
   1.6523767E-04   4.4909678E+05   -1.8614754E+00
   1.6600075E-04   4.4526195E+05   -1.8610135E+00
   1.6676736E-04   4.4146081E+05   -1.8605506E+00
   1.6753751E-04   4.3769306E+05   -1.8600868E+00
   1.6831122E-04   4.3395839E+05   -1.8596220E+00
   1.6908849E-04   4.3025651E+05   -1.8591563E+00
   1.6986936E-04   4.2658713E+05   -1.8586897E+00
   1.7065384E-04   4.2294995E+05   -1.8582221E+00
   1.7144193E-04   4.1934468E+05   -1.8577536E+00
   1.7223367E-04   4.1577105E+05   -1.8572841E+00
   1.7302906E-04   4.1222876E+05   -1.8568138E+00
   1.7382813E-04   4.0871754E+05   -1.8563425E+00
   1.7463089E-04   4.0523711E+05   -1.8558702E+00
   1.7543735E-04   4.0178719E+05   -1.8553971E+00
   1.7624754E-04   3.9836750E+05   -1.8549230E+00
   1.7706147E-04   3.9497779E+05   -1.8544480E+00
   1.7787916E-04   3.9161778E+05   -1.8539721E+00
   1.7870062E-04   3.8828721E+05   -1.8534953E+00
   1.7952588E-04   3.8498580E+05   -1.8530176E+00
   1.8035495E-04   3.8171331E+05   -1.8525389E+00
   1.8118785E-04   3.7846947E+05   -1.8520594E+00
   1.8202459E-04   3.7525402E+05   -1.8515790E+00
   1.8286520E-04   3.7206672E+05   -1.8510976E+00
   1.8370969E-04   3.6890731E+05   -1.8506154E+00
   1.8455808E-04   3.6577555E+05   -1.8501322E+00
   1.8541039E-04   3.6267117E+05   -1.8496482E+00
   1.8626663E-04   3.5959395E+05   -1.8491633E+00
   1.8712683E-04   3.5654363E+05   -1.8486775E+00
   1.8799100E-04   3.5351998E+05   -1.8481908E+00
   1.8885917E-04   3.5052276E+05   -1.8477032E+00
   1.8973134E-04   3.4755173E+05   -1.8472148E+00
   1.9060754E-04   3.4460666E+05   -1.8467254E+00
   1.9148778E-04   3.4168732E+05   -1.8462352E+00
   1.9237209E-04   3.3879347E+05   -1.8457442E+00
   1.9326049E-04   3.3592489E+05   -1.8452522E+00
   1.9415299E-04   3.3308136E+05   -1.8447594E+00
   1.9504960E-04   3.3026265E+05   -1.8442658E+00
   1.9595036E-04   3.2746854E+05   -1.8437712E+00
   1.9685528E-04   3.2469880E+05   -1.8432758E+00
   1.9776438E-04   3.2195323E+05   -1.8427796E+00
   1.9867768E-04   3.1923161E+05   -1.8422825E+00
   1.9959519E-04   3.1653371E+05   -1.8417846E+00
   2.0051694E-04   3.1385934E+05   -1.8412858E+00
   2.0144295E-04   3.1120828E+05   -1.8407862E+00
   2.0237324E-04   3.0858033E+05   -1.8402858E+00
   2.0330782E-04   3.0597527E+05   -1.8397845E+00
   2.0424671E-04   3.0339290E+05   -1.8392824E+00
   2.0518995E-04   3.0083303E+05   -1.8387794E+00
   2.0613754E-04   2.9829544E+05   -1.8382756E+00
   2.0708950E-04   2.9577995E+05   -1.8377711E+00
   2.0804586E-04   2.9328635E+05   -1.8372657E+00
   2.0900664E-04   2.9081446E+05   -1.8367594E+00
   2.0997185E-04   2.8836407E+05   -1.8362524E+00
   2.1094152E-04   2.8593500E+05   -1.8357446E+00
   2.1191567E-04   2.8352705E+05   -1.8352359E+00
   2.1289432E-04   2.8114004E+05   -1.8347265E+00
   2.1387749E-04   2.7877378E+05   -1.8342163E+00
   2.1486520E-04   2.7642808E+05   -1.8337052E+00
   2.1585747E-04   2.7410277E+05   -1.8331934E+00
   2.1685432E-04   2.7179766E+05   -1.8326808E+00
   2.1785578E-04   2.6951258E+05   -1.8321674E+00
   2.1886186E-04   2.6724733E+05   -1.8316532E+00
   2.1987259E-04   2.6500176E+05   -1.8311383E+00
   2.2088798E-04   2.6277568E+05   -1.8306226E+00
   2.2190807E-04   2.6056892E+05   -1.8301061E+00
   2.2293286E-04   2.5838130E+05   -1.8295889E+00
   2.2396239E-04   2.5621266E+05   -1.8290709E+00
   2.2499667E-04   2.5406283E+05   -1.8285521E+00
   2.2603573E-04   2.5193165E+05   -1.8280326E+00
   2.2707958E-04   2.4981893E+05   -1.8275124E+00
   2.2812826E-04   2.4772453E+05   -1.8269914E+00
   2.2918178E-04   2.4564828E+05   -1.8264696E+00
   2.3024017E-04   2.4359002E+05   -1.8259471E+00
   2.3130344E-04   2.4154958E+05   -1.8254239E+00
   2.3237162E-04   2.3952681E+05   -1.8249000E+00
   2.3344474E-04   2.3752156E+05   -1.8243753E+00
   2.3452281E-04   2.3553366E+05   -1.8238499E+00
   2.3560586E-04   2.3356297E+05   -1.8233238E+00
   2.3669392E-04   2.3160933E+05   -1.8227970E+00
   2.3778699E-04   2.2967258E+05   -1.8222695E+00
   2.3888512E-04   2.2775259E+05   -1.8217413E+00
   2.3998831E-04   2.2584919E+05   -1.8212124E+00
   2.4109661E-04   2.2396225E+05   -1.8206827E+00
   2.4221001E-04   2.2209162E+05   -1.8201524E+00
   2.4332857E-04   2.2023715E+05   -1.8196214E+00
   2.4445228E-04   2.1839870E+05   -1.8190898E+00
   2.4558119E-04   2.1657612E+05   -1.8185574E+00
   2.4671531E-04   2.1476929E+05   -1.8180244E+00
   2.4785467E-04   2.1297805E+05   -1.8174907E+00
   2.4899928E-04   2.1120227E+05   -1.8169563E+00
   2.5014919E-04   2.0944181E+05   -1.8164213E+00
   2.5130440E-04   2.0769654E+05   -1.8158856E+00
   2.5246495E-04   2.0596632E+05   -1.8153493E+00
   2.5363086E-04   2.0425102E+05   -1.8148123E+00
   2.5480216E-04   2.0255050E+05   -1.8142747E+00
   2.5597886E-04   2.0086464E+05   -1.8137364E+00
   2.5716100E-04   1.9919331E+05   -1.8131976E+00
   2.5834859E-04   1.9753638E+05   -1.8126580E+00
   2.5954168E-04   1.9589371E+05   -1.8121179E+00
   2.6074027E-04   1.9426519E+05   -1.8115771E+00
   2.6194439E-04   1.9265069E+05   -1.8110358E+00
   2.6315408E-04   1.9105008E+05   -1.8104938E+00
   2.6436935E-04   1.8946324E+05   -1.8099512E+00
   2.6559024E-04   1.8789005E+05   -1.8094080E+00
   2.6681676E-04   1.8633040E+05   -1.8088642E+00
   2.6804895E-04   1.8478415E+05   -1.8083198E+00
   2.6928683E-04   1.8325119E+05   -1.8077749E+00
   2.7053042E-04   1.8173141E+05   -1.8072293E+00
   2.7177976E-04   1.8022469E+05   -1.8066832E+00
   2.7303487E-04   1.7873090E+05   -1.8061365E+00
   2.7429577E-04   1.7724995E+05   -1.8055892E+00
   2.7556250E-04   1.7578171E+05   -1.8050414E+00
   2.7683507E-04   1.7432607E+05   -1.8044930E+00
   2.7811353E-04   1.7288292E+05   -1.8039441E+00
   2.7939788E-04   1.7145216E+05   -1.8033946E+00
   2.8068817E-04   1.7003366E+05   -1.8028446E+00
   2.8198442E-04   1.6862733E+05   -1.8022941E+00
   2.8328665E-04   1.6723306E+05   -1.8017430E+00
   2.8459490E-04   1.6585073E+05   -1.8011914E+00
   2.8590919E-04   1.6448025E+05   -1.8006392E+00
   2.8722955E-04   1.6312151E+05   -1.8000866E+00
   2.8855600E-04   1.6177441E+05   -1.7995334E+00
   2.8988859E-04   1.6043884E+05   -1.7989798E+00
   2.9122732E-04   1.5911470E+05   -1.7984256E+00
   2.9257224E-04   1.5780189E+05   -1.7978709E+00
   2.9392337E-04   1.5650031E+05   -1.7973158E+00
   2.9528074E-04   1.5520987E+05   -1.7967601E+00
   2.9664438E-04   1.5393046E+05   -1.7962040E+00
   2.9801431E-04   1.5266199E+05   -1.7956474E+00
   2.9939057E-04   1.5140437E+05   -1.7950904E+00
   3.0077319E-04   1.5015748E+05   -1.7945328E+00
   3.0216219E-04   1.4892125E+05   -1.7939749E+00
   3.0355761E-04   1.4769558E+05   -1.7934164E+00
   3.0495947E-04   1.4648037E+05   -1.7928575E+00
   3.0636780E-04   1.4527553E+05   -1.7922982E+00
   3.0778264E-04   1.4408098E+05   -1.7917385E+00
   3.0920401E-04   1.4289661E+05   -1.7911783E+00
   3.1063195E-04   1.4172235E+05   -1.7906176E+00
   3.1206648E-04   1.4055810E+05   -1.7900566E+00
   3.1350764E-04   1.3940378E+05   -1.7894951E+00
   3.1495545E-04   1.3825929E+05   -1.7889333E+00
   3.1640994E-04   1.3712455E+05   -1.7883710E+00
   3.1787116E-04   1.3599948E+05   -1.7878083E+00
   3.1933912E-04   1.3488399E+05   -1.7872453E+00
   3.2081386E-04   1.3377800E+05   -1.7866818E+00
   3.2229541E-04   1.3268142E+05   -1.7861180E+00
   3.2378381E-04   1.3159417E+05   -1.7855538E+00
   3.2527908E-04   1.3051617E+05   -1.7849892E+00
   3.2678125E-04   1.2944734E+05   -1.7844243E+00
   3.2829036E-04   1.2838759E+05   -1.7838590E+00
   3.2980644E-04   1.2733686E+05   -1.7832933E+00
   3.3132952E-04   1.2629505E+05   -1.7827273E+00
   3.3285963E-04   1.2526209E+05   -1.7821610E+00
   3.3439681E-04   1.2423790E+05   -1.7815943E+00
   3.3594109E-04   1.2322241E+05   -1.7810273E+00
   3.3749250E-04   1.2221554E+05   -1.7804599E+00
   3.3905108E-04   1.2121722E+05   -1.7798923E+00
   3.4061685E-04   1.2022736E+05   -1.7793243E+00
   3.4218986E-04   1.1924590E+05   -1.7787560E+00
   3.4377013E-04   1.1827276E+05   -1.7781874E+00
   3.4535769E-04   1.1730787E+05   -1.7776186E+00
   3.4695259E-04   1.1635115E+05   -1.7770494E+00
   3.4855485E-04   1.1540254E+05   -1.7764799E+00
   3.5016452E-04   1.1446197E+05   -1.7759102E+00
   3.5178161E-04   1.1352936E+05   -1.7753402E+00
   3.5340618E-04   1.1260464E+05   -1.7747699E+00
   3.5503824E-04   1.1168775E+05   -1.7741994E+00
   3.5667785E-04   1.1077862E+05   -1.7736286E+00
   3.5832502E-04   1.0987718E+05   -1.7730576E+00
   3.5997981E-04   1.0898336E+05   -1.7724863E+00
   3.6164223E-04   1.0809709E+05   -1.7719148E+00
   3.6331233E-04   1.0721831E+05   -1.7713430E+00
   3.6499015E-04   1.0634696E+05   -1.7707710E+00
   3.6667571E-04   1.0548297E+05   -1.7701988E+00
   3.6836906E-04   1.0462627E+05   -1.7696264E+00
   3.7007022E-04   1.0377681E+05   -1.7690538E+00
   3.7177925E-04   1.0293451E+05   -1.7684810E+00
   3.7349616E-04   1.0209932E+05   -1.7679080E+00
   3.7522101E-04   1.0127117E+05   -1.7673348E+00
   3.7695382E-04   1.0045001E+05   -1.7667614E+00
   3.7869463E-04   9.9635762E+04   -1.7661878E+00
   3.8044348E-04   9.8828381E+04   -1.7656141E+00
   3.8220041E-04   9.8027801E+04   -1.7650402E+00
   3.8396545E-04   9.7233963E+04   -1.7644661E+00
   3.8573864E-04   9.6446809E+04   -1.7638919E+00
   3.8752002E-04   9.5666281E+04   -1.7633175E+00
   3.8930963E-04   9.4892320E+04   -1.7627430E+00
   3.9110750E-04   9.4124871E+04   -1.7621683E+00
   3.9291368E-04   9.3363875E+04   -1.7615936E+00
   3.9472820E-04   9.2609277E+04   -1.7610187E+00
   3.9655109E-04   9.1861021E+04   -1.7604436E+00
   3.9838241E-04   9.1119052E+04   -1.7598685E+00
   4.0022218E-04   9.0383316E+04   -1.7592933E+00
   4.0207045E-04   8.9653759E+04   -1.7587179E+00
   4.0392725E-04   8.8930326E+04   -1.7581425E+00
   4.0579263E-04   8.8212964E+04   -1.7575670E+00
   4.0766662E-04   8.7501621E+04   -1.7569914E+00
   4.0954927E-04   8.6796244E+04   -1.7564157E+00
   4.1144061E-04   8.6096782E+04   -1.7558400E+00
   4.1334068E-04   8.5403184E+04   -1.7552642E+00
   4.1524953E-04   8.4715397E+04   -1.7546883E+00
   4.1716720E-04   8.4033373E+04   -1.7541124E+00
   4.1909372E-04   8.3357061E+04   -1.7535364E+00
   4.2102914E-04   8.2686411E+04   -1.7529604E+00
   4.2297350E-04   8.2021374E+04   -1.7523844E+00
   4.2492683E-04   8.1361903E+04   -1.7518084E+00
   4.2688919E-04   8.0707948E+04   -1.7512323E+00
   4.2886061E-04   8.0059461E+04   -1.7506562E+00
   4.3084113E-04   7.9416396E+04   -1.7500801E+00
   4.3283080E-04   7.8778706E+04   -1.7495040E+00
   4.3482966E-04   7.8146343E+04   -1.7489279E+00
   4.3683775E-04   7.7519262E+04   -1.7483518E+00
   4.3885511E-04   7.6897417E+04   -1.7477757E+00
   4.4088179E-04   7.6280763E+04   -1.7471997E+00
   4.4291783E-04   7.5669255E+04   -1.7466237E+00
   4.4496327E-04   7.5062848E+04   -1.7460477E+00
   4.4701816E-04   7.4461499E+04   -1.7454718E+00
   4.4908253E-04   7.3865163E+04   -1.7448959E+00
   4.5115644E-04   7.3273797E+04   -1.7443200E+00
   4.5323993E-04   7.2687359E+04   -1.7437442E+00
   4.5533304E-04   7.2105806E+04   -1.7431685E+00
   4.5743582E-04   7.1529095E+04   -1.7425929E+00
   4.5954830E-04   7.0957185E+04   -1.7420173E+00
   4.6167054E-04   7.0390034E+04   -1.7414418E+00
   4.6380259E-04   6.9827601E+04   -1.7408664E+00
   4.6594448E-04   6.9269847E+04   -1.7402911E+00
   4.6809626E-04   6.8716729E+04   -1.7397159E+00
   4.7025797E-04   6.8168208E+04   -1.7391408E+00
   4.7242967E-04   6.7624246E+04   -1.7385658E+00
   4.7461140E-04   6.7084801E+04   -1.7379910E+00
   4.7680321E-04   6.6549836E+04   -1.7374162E+00
   4.7900514E-04   6.6019312E+04   -1.7368416E+00
   4.8121723E-04   6.5493191E+04   -1.7362672E+00
   4.8343954E-04   6.4971434E+04   -1.7356929E+00
   4.8567212E-04   6.4454005E+04   -1.7351187E+00
   4.8791500E-04   6.3940865E+04   -1.7345447E+00
   4.9016825E-04   6.3431978E+04   -1.7339708E+00
   4.9243189E-04   6.2927308E+04   -1.7333972E+00
   4.9470600E-04   6.2426818E+04   -1.7328236E+00
   4.9699060E-04   6.1930472E+04   -1.7322503E+00
   4.9928575E-04   6.1438235E+04   -1.7316772E+00
   5.0159151E-04   6.0950071E+04   -1.7311042E+00
   5.0390791E-04   6.0465946E+04   -1.7305315E+00
   5.0623501E-04   5.9985824E+04   -1.7299589E+00
   5.0857286E-04   5.9509671E+04   -1.7293866E+00
   5.1092150E-04   5.9037454E+04   -1.7288145E+00
   5.1328099E-04   5.8569138E+04   -1.7282426E+00
   5.1565137E-04   5.8104691E+04   -1.7276709E+00
   5.1803270E-04   5.7644078E+04   -1.7270995E+00
   5.2042503E-04   5.7187267E+04   -1.7265283E+00
   5.2282841E-04   5.6734225E+04   -1.7259573E+00
   5.2524289E-04   5.6284921E+04   -1.7253866E+00
   5.2766851E-04   5.5839321E+04   -1.7248162E+00
   5.3010534E-04   5.5397395E+04   -1.7242460E+00
   5.3255342E-04   5.4959110E+04   -1.7236761E+00
   5.3501281E-04   5.4524437E+04   -1.7231064E+00
   5.3748356E-04   5.4093343E+04   -1.7225371E+00
   5.3996571E-04   5.3665798E+04   -1.7219680E+00
   5.4245933E-04   5.3241772E+04   -1.7213992E+00
   5.4496446E-04   5.2821235E+04   -1.7208308E+00
   5.4748117E-04   5.2404157E+04   -1.7202626E+00
   5.5000949E-04   5.1990508E+04   -1.7196947E+00
   5.5254949E-04   5.1580259E+04   -1.7191272E+00
   5.5510123E-04   5.1173381E+04   -1.7185599E+00
   5.5766474E-04   5.0769845E+04   -1.7179930E+00
   5.6024010E-04   5.0369623E+04   -1.7174265E+00
   5.6282734E-04   4.9972686E+04   -1.7168602E+00
   5.6542654E-04   4.9579007E+04   -1.7162944E+00
   5.6803774E-04   4.9188557E+04   -1.7157288E+00
   5.7066099E-04   4.8801309E+04   -1.7151636E+00
   5.7329637E-04   4.8417236E+04   -1.7145988E+00
   5.7594391E-04   4.8036311E+04   -1.7140344E+00
   5.7860368E-04   4.7658506E+04   -1.7134703E+00
   5.8127573E-04   4.7283796E+04   -1.7129066E+00
   5.8396012E-04   4.6912154E+04   -1.7123433E+00
   5.8665691E-04   4.6543554E+04   -1.7117803E+00
   5.8936616E-04   4.6177969E+04   -1.7112178E+00
   5.9208791E-04   4.5815375E+04   -1.7106557E+00
   5.9482223E-04   4.5455745E+04   -1.7100939E+00
   5.9756919E-04   4.5099055E+04   -1.7095326E+00
   6.0032882E-04   4.4745280E+04   -1.7089717E+00
   6.0310120E-04   4.4394395E+04   -1.7084112E+00
   6.0588639E-04   4.4046374E+04   -1.7078512E+00
   6.0868443E-04   4.3701195E+04   -1.7072916E+00
   6.1149540E-04   4.3358833E+04   -1.7067324E+00
   6.1431935E-04   4.3019263E+04   -1.7061737E+00
   6.1715634E-04   4.2682463E+04   -1.7056154E+00
   6.2000644E-04   4.2348409E+04   -1.7050575E+00
   6.2286969E-04   4.2017077E+04   -1.7045002E+00
