#        a       HoverH0(a)       dlogHdloga_of_a(a)
   1.0000000E-04   1.1389563E+06   -1.8492326E+00
   1.0046181E-04   1.1292945E+06   -1.8487470E+00
   1.0092575E-04   1.1197172E+06   -1.8482604E+00
   1.0139184E-04   1.1102237E+06   -1.8477730E+00
   1.0186008E-04   1.1008131E+06   -1.8472847E+00
   1.0233048E-04   1.0914847E+06   -1.8467956E+00
   1.0280305E-04   1.0822378E+06   -1.8463055E+00
   1.0327781E-04   1.0730717E+06   -1.8458146E+00
   1.0375475E-04   1.0639856E+06   -1.8453228E+00
   1.0423390E-04   1.0549788E+06   -1.8448302E+00
   1.0471527E-04   1.0460507E+06   -1.8443367E+00
   1.0519885E-04   1.0372005E+06   -1.8438423E+00
   1.0568467E-04   1.0284275E+06   -1.8433471E+00
   1.0617274E-04   1.0197310E+06   -1.8428510E+00
   1.0666305E-04   1.0111104E+06   -1.8423541E+00
   1.0715563E-04   1.0025650E+06   -1.8418563E+00
   1.0765049E-04   9.9409406E+05   -1.8413577E+00
   1.0814763E-04   9.8569697E+05   -1.8408582E+00
   1.0864707E-04   9.7737306E+05   -1.8403579E+00
   1.0914881E-04   9.6912168E+05   -1.8398568E+00
   1.0965287E-04   9.6094218E+05   -1.8393548E+00
   1.1015926E-04   9.5283392E+05   -1.8388520E+00
   1.1066799E-04   9.4479627E+05   -1.8383484E+00
   1.1117906E-04   9.3682860E+05   -1.8378440E+00
   1.1169250E-04   9.2893027E+05   -1.8373387E+00
   1.1220831E-04   9.2110069E+05   -1.8368327E+00
   1.1272650E-04   9.1333923E+05   -1.8363258E+00
   1.1324708E-04   9.0564528E+05   -1.8358181E+00
   1.1377007E-04   8.9801825E+05   -1.8353096E+00
   1.1429547E-04   8.9045755E+05   -1.8348004E+00
   1.1482330E-04   8.8296257E+05   -1.8342903E+00
   1.1535356E-04   8.7553274E+05   -1.8337794E+00
   1.1588628E-04   8.6816747E+05   -1.8332677E+00
   1.1642145E-04   8.6086619E+05   -1.8327553E+00
   1.1695910E-04   8.5362833E+05   -1.8322420E+00
   1.1749923E-04   8.4645333E+05   -1.8317280E+00
   1.1804185E-04   8.3934062E+05   -1.8312132E+00
   1.1858698E-04   8.3228966E+05   -1.8306977E+00
   1.1913463E-04   8.2529989E+05   -1.8301814E+00
   1.1968481E-04   8.1837078E+05   -1.8296643E+00
   1.2023752E-04   8.1150177E+05   -1.8291464E+00
   1.2079279E-04   8.0469234E+05   -1.8286278E+00
   1.2135063E-04   7.9794196E+05   -1.8281085E+00
   1.2191104E-04   7.9125010E+05   -1.8275884E+00
   1.2247403E-04   7.8461624E+05   -1.8270675E+00
   1.2303963E-04   7.7803987E+05   -1.8265459E+00
   1.2360784E-04   7.7152047E+05   -1.8260236E+00
   1.2417868E-04   7.6505755E+05   -1.8255005E+00
   1.2475215E-04   7.5865059E+05   -1.8249767E+00
   1.2532826E-04   7.5229911E+05   -1.8244522E+00
   1.2590704E-04   7.4600260E+05   -1.8239270E+00
   1.2648850E-04   7.3976059E+05   -1.8234011E+00
   1.2707263E-04   7.3357258E+05   -1.8228744E+00
   1.2765947E-04   7.2743810E+05   -1.8223470E+00
   1.2824901E-04   7.2135667E+05   -1.8218189E+00
   1.2884128E-04   7.1532783E+05   -1.8212902E+00
   1.2943628E-04   7.0935111E+05   -1.8207607E+00
   1.3003403E-04   7.0342603E+05   -1.8202306E+00
   1.3063454E-04   6.9755216E+05   -1.8196997E+00
   1.3123783E-04   6.9172903E+05   -1.8191682E+00
   1.3184390E-04   6.8595618E+05   -1.8186360E+00
   1.3245277E-04   6.8023319E+05   -1.8181031E+00
   1.3306445E-04   6.7455960E+05   -1.8175695E+00
   1.3367895E-04   6.6893497E+05   -1.8170353E+00
   1.3429630E-04   6.6335888E+05   -1.8165005E+00
   1.3491649E-04   6.5783089E+05   -1.8159649E+00
   1.3553955E-04   6.5235058E+05   -1.8154287E+00
   1.3616548E-04   6.4691753E+05   -1.8148919E+00
   1.3679431E-04   6.4153131E+05   -1.8143544E+00
   1.3742604E-04   6.3619151E+05   -1.8138163E+00
   1.3806069E-04   6.3089773E+05   -1.8132776E+00
   1.3869827E-04   6.2564954E+05   -1.8127382E+00
   1.3933879E-04   6.2044656E+05   -1.8121982E+00
   1.3998227E-04   6.1528838E+05   -1.8116576E+00
   1.4062872E-04   6.1017460E+05   -1.8111164E+00
   1.4127816E-04   6.0510484E+05   -1.8105745E+00
   1.4193060E-04   6.0007869E+05   -1.8100321E+00
   1.4258605E-04   5.9509579E+05   -1.8094890E+00
   1.4324453E-04   5.9015573E+05   -1.8089454E+00
   1.4390605E-04   5.8525815E+05   -1.8084012E+00
   1.4457062E-04   5.8040268E+05   -1.8078563E+00
   1.4523826E-04   5.7558893E+05   -1.8073109E+00
   1.4590899E-04   5.7081654E+05   -1.8067650E+00
   1.4658281E-04   5.6608514E+05   -1.8062184E+00
   1.4725974E-04   5.6139438E+05   -1.8056713E+00
   1.4793981E-04   5.5674389E+05   -1.8051236E+00
   1.4862301E-04   5.5213332E+05   -1.8045754E+00
   1.4930936E-04   5.4756231E+05   -1.8040266E+00
   1.4999889E-04   5.4303052E+05   -1.8034773E+00
   1.5069160E-04   5.3853760E+05   -1.8029274E+00
   1.5138751E-04   5.3408321E+05   -1.8023770E+00
   1.5208663E-04   5.2966700E+05   -1.8018260E+00
   1.5278899E-04   5.2528864E+05   -1.8012746E+00
   1.5349458E-04   5.2094781E+05   -1.8007226E+00
   1.5420343E-04   5.1664415E+05   -1.8001701E+00
   1.5491556E-04   5.1237736E+05   -1.7996170E+00
   1.5563098E-04   5.0814710E+05   -1.7990635E+00
   1.5634970E-04   5.0395305E+05   -1.7985095E+00
   1.5707174E-04   4.9979490E+05   -1.7979550E+00
   1.5779711E-04   4.9567231E+05   -1.7973999E+00
   1.5852584E-04   4.9158500E+05   -1.7968444E+00
   1.5925792E-04   4.8753263E+05   -1.7962885E+00
   1.5999339E-04   4.8351491E+05   -1.7957320E+00
   1.6073226E-04   4.7953153E+05   -1.7951751E+00
   1.6147454E-04   4.7558219E+05   -1.7946177E+00
   1.6222024E-04   4.7166658E+05   -1.7940599E+00
   1.6296939E-04   4.6778442E+05   -1.7935016E+00
   1.6372200E-04   4.6393540E+05   -1.7929428E+00
   1.6447809E-04   4.6011924E+05   -1.7923836E+00
   1.6523767E-04   4.5633564E+05   -1.7918240E+00
   1.6600075E-04   4.5258433E+05   -1.7912639E+00
   1.6676736E-04   4.4886501E+05   -1.7907034E+00
   1.6753751E-04   4.4517741E+05   -1.7901425E+00
   1.6831122E-04   4.4152124E+05   -1.7895812E+00
   1.6908849E-04   4.3789623E+05   -1.7890195E+00
   1.6986936E-04   4.3430211E+05   -1.7884574E+00
   1.7065384E-04   4.3073861E+05   -1.7878948E+00
   1.7144193E-04   4.2720545E+05   -1.7873319E+00
   1.7223367E-04   4.2370237E+05   -1.7867686E+00
   1.7302906E-04   4.2022911E+05   -1.7862049E+00
   1.7382813E-04   4.1678541E+05   -1.7856408E+00
   1.7463089E-04   4.1337100E+05   -1.7850764E+00
   1.7543735E-04   4.0998562E+05   -1.7845116E+00
   1.7624754E-04   4.0662903E+05   -1.7839464E+00
   1.7706147E-04   4.0330098E+05   -1.7833809E+00
   1.7787916E-04   4.0000120E+05   -1.7828150E+00
   1.7870062E-04   3.9672946E+05   -1.7822488E+00
   1.7952588E-04   3.9348550E+05   -1.7816822E+00
   1.8035495E-04   3.9026909E+05   -1.7811153E+00
   1.8118785E-04   3.8707998E+05   -1.7805481E+00
   1.8202459E-04   3.8391793E+05   -1.7799806E+00
   1.8286520E-04   3.8078271E+05   -1.7794128E+00
   1.8370969E-04   3.7767408E+05   -1.7788446E+00
   1.8455808E-04   3.7459182E+05   -1.7782762E+00
   1.8541039E-04   3.7153568E+05   -1.7777074E+00
   1.8626663E-04   3.6850544E+05   -1.7771384E+00
   1.8712683E-04   3.6550087E+05   -1.7765691E+00
   1.8799100E-04   3.6252175E+05   -1.7759995E+00
   1.8885917E-04   3.5956786E+05   -1.7754296E+00
   1.8973134E-04   3.5663897E+05   -1.7748594E+00
   1.9060754E-04   3.5373487E+05   -1.7742890E+00
   1.9148778E-04   3.5085534E+05   -1.7737184E+00
   1.9237209E-04   3.4800017E+05   -1.7731475E+00
   1.9326049E-04   3.4516913E+05   -1.7725763E+00
   1.9415299E-04   3.4236203E+05   -1.7720049E+00
   1.9504960E-04   3.3957866E+05   -1.7714333E+00
   1.9595036E-04   3.3681880E+05   -1.7708614E+00
   1.9685528E-04   3.3408225E+05   -1.7702894E+00
   1.9776438E-04   3.3136881E+05   -1.7697171E+00
   1.9867768E-04   3.2867827E+05   -1.7691446E+00
   1.9959519E-04   3.2601044E+05   -1.7685719E+00
   2.0051694E-04   3.2336511E+05   -1.7679990E+00
   2.0144295E-04   3.2074210E+05   -1.7674259E+00
   2.0237324E-04   3.1814121E+05   -1.7668527E+00
   2.0330782E-04   3.1556224E+05   -1.7662792E+00
   2.0424671E-04   3.1300500E+05   -1.7657056E+00
   2.0518995E-04   3.1046930E+05   -1.7651318E+00
   2.0613754E-04   3.0795497E+05   -1.7645579E+00
   2.0708950E-04   3.0546180E+05   -1.7639838E+00
   2.0804586E-04   3.0298962E+05   -1.7634095E+00
   2.0900664E-04   3.0053824E+05   -1.7628351E+00
   2.0997185E-04   2.9810749E+05   -1.7622606E+00
   2.1094152E-04   2.9569717E+05   -1.7616860E+00
   2.1191567E-04   2.9330713E+05   -1.7611112E+00
   2.1289432E-04   2.9093717E+05   -1.7605363E+00
   2.1387749E-04   2.8858712E+05   -1.7599613E+00
   2.1486520E-04   2.8625682E+05   -1.7593862E+00
   2.1585747E-04   2.8394608E+05   -1.7588109E+00
   2.1685432E-04   2.8165475E+05   -1.7582356E+00
   2.1785578E-04   2.7938264E+05   -1.7576602E+00
   2.1886186E-04   2.7712960E+05   -1.7570848E+00
   2.1987259E-04   2.7489546E+05   -1.7565092E+00
   2.2088798E-04   2.7268005E+05   -1.7559336E+00
   2.2190807E-04   2.7048321E+05   -1.7553579E+00
   2.2293286E-04   2.6830479E+05   -1.7547822E+00
   2.2396239E-04   2.6614461E+05   -1.7542064E+00
   2.2499667E-04   2.6400253E+05   -1.7536305E+00
   2.2603573E-04   2.6187838E+05   -1.7530547E+00
   2.2707958E-04   2.5977201E+05   -1.7524787E+00
   2.2812826E-04   2.5768327E+05   -1.7519028E+00
   2.2918178E-04   2.5561200E+05   -1.7513268E+00
   2.3024017E-04   2.5355806E+05   -1.7507509E+00
   2.3130344E-04   2.5152128E+05   -1.7501749E+00
   2.3237162E-04   2.4950153E+05   -1.7495989E+00
   2.3344474E-04   2.4749865E+05   -1.7490229E+00
   2.3452281E-04   2.4551251E+05   -1.7484470E+00
   2.3560586E-04   2.4354294E+05   -1.7478710E+00
   2.3669392E-04   2.4158982E+05   -1.7472951E+00
   2.3778699E-04   2.3965300E+05   -1.7467192E+00
   2.3888512E-04   2.3773234E+05   -1.7461433E+00
   2.3998831E-04   2.3582770E+05   -1.7455675E+00
   2.4109661E-04   2.3393893E+05   -1.7449917E+00
   2.4221001E-04   2.3206591E+05   -1.7444160E+00
   2.4332857E-04   2.3020850E+05   -1.7438403E+00
   2.4445228E-04   2.2836655E+05   -1.7432647E+00
   2.4558119E-04   2.2653995E+05   -1.7426892E+00
   2.4671531E-04   2.2472855E+05   -1.7421137E+00
   2.4785467E-04   2.2293223E+05   -1.7415384E+00
   2.4899928E-04   2.2115085E+05   -1.7409631E+00
   2.5014919E-04   2.1938429E+05   -1.7403879E+00
   2.5130440E-04   2.1763242E+05   -1.7398128E+00
   2.5246495E-04   2.1589510E+05   -1.7392378E+00
   2.5363086E-04   2.1417223E+05   -1.7386630E+00
   2.5480216E-04   2.1246366E+05   -1.7380882E+00
   2.5597886E-04   2.1076929E+05   -1.7375136E+00
   2.5716100E-04   2.0908897E+05   -1.7369391E+00
   2.5834859E-04   2.0742261E+05   -1.7363648E+00
   2.5954168E-04   2.0577007E+05   -1.7357906E+00
   2.6074027E-04   2.0413123E+05   -1.7352165E+00
   2.6194439E-04   2.0250598E+05   -1.7346426E+00
   2.6315408E-04   2.0089421E+05   -1.7340689E+00
   2.6436935E-04   1.9929578E+05   -1.7334953E+00
   2.6559024E-04   1.9771060E+05   -1.7329219E+00
   2.6681676E-04   1.9613855E+05   -1.7323487E+00
   2.6804895E-04   1.9457951E+05   -1.7317757E+00
   2.6928683E-04   1.9303337E+05   -1.7312028E+00
   2.7053042E-04   1.9150002E+05   -1.7306302E+00
   2.7177976E-04   1.8997935E+05   -1.7300578E+00
   2.7303487E-04   1.8847126E+05   -1.7294855E+00
   2.7429577E-04   1.8697563E+05   -1.7289135E+00
   2.7556250E-04   1.8549236E+05   -1.7283417E+00
   2.7683507E-04   1.8402134E+05   -1.7277702E+00
   2.7811353E-04   1.8256246E+05   -1.7271988E+00
   2.7939788E-04   1.8111563E+05   -1.7266278E+00
   2.8068817E-04   1.7968073E+05   -1.7260569E+00
   2.8198442E-04   1.7825768E+05   -1.7254863E+00
   2.8328665E-04   1.7684636E+05   -1.7249160E+00
   2.8459490E-04   1.7544667E+05   -1.7243459E+00
   2.8590919E-04   1.7405852E+05   -1.7237761E+00
   2.8722955E-04   1.7268180E+05   -1.7232066E+00
   2.8855600E-04   1.7131643E+05   -1.7226374E+00
   2.8988859E-04   1.6996229E+05   -1.7220684E+00
   2.9122732E-04   1.6861930E+05   -1.7214997E+00
   2.9257224E-04   1.6728736E+05   -1.7209314E+00
   2.9392337E-04   1.6596638E+05   -1.7203633E+00
   2.9528074E-04   1.6465626E+05   -1.7197956E+00
   2.9664438E-04   1.6335690E+05   -1.7192281E+00
   2.9801431E-04   1.6206823E+05   -1.7186610E+00
   2.9939057E-04   1.6079014E+05   -1.7180942E+00
   3.0077319E-04   1.5952255E+05   -1.7175278E+00
   3.0216219E-04   1.5826536E+05   -1.7169616E+00
   3.0355761E-04   1.5701849E+05   -1.7163959E+00
   3.0495947E-04   1.5578185E+05   -1.7158304E+00
   3.0636780E-04   1.5455535E+05   -1.7152654E+00
   3.0778264E-04   1.5333890E+05   -1.7147007E+00
   3.0920401E-04   1.5213243E+05   -1.7141363E+00
   3.1063195E-04   1.5093584E+05   -1.7135724E+00
   3.1206648E-04   1.4974905E+05   -1.7130088E+00
   3.1350764E-04   1.4857198E+05   -1.7124456E+00
   3.1495545E-04   1.4740454E+05   -1.7118827E+00
   3.1640994E-04   1.4624666E+05   -1.7113203E+00
   3.1787116E-04   1.4509825E+05   -1.7107583E+00
   3.1933912E-04   1.4395923E+05   -1.7101967E+00
   3.2081386E-04   1.4282951E+05   -1.7096355E+00
   3.2229541E-04   1.4170903E+05   -1.7090747E+00
   3.2378381E-04   1.4059771E+05   -1.7085143E+00
   3.2527908E-04   1.3949546E+05   -1.7079544E+00
   3.2678125E-04   1.3840220E+05   -1.7073949E+00
   3.2829036E-04   1.3731787E+05   -1.7068358E+00
   3.2980644E-04   1.3624239E+05   -1.7062772E+00
   3.3132952E-04   1.3517567E+05   -1.7057190E+00
   3.3285963E-04   1.3411766E+05   -1.7051613E+00
   3.3439681E-04   1.3306826E+05   -1.7046040E+00
   3.3594109E-04   1.3202742E+05   -1.7040473E+00
   3.3749250E-04   1.3099505E+05   -1.7034909E+00
   3.3905108E-04   1.2997109E+05   -1.7029351E+00
   3.4061685E-04   1.2895546E+05   -1.7023797E+00
   3.4218986E-04   1.2794810E+05   -1.7018248E+00
   3.4377013E-04   1.2694893E+05   -1.7012705E+00
   3.4535769E-04   1.2595788E+05   -1.7007166E+00
   3.4695259E-04   1.2497489E+05   -1.7001632E+00
   3.4855485E-04   1.2399989E+05   -1.6996103E+00
   3.5016452E-04   1.2303280E+05   -1.6990579E+00
   3.5178161E-04   1.2207357E+05   -1.6985061E+00
   3.5340618E-04   1.2112213E+05   -1.6979548E+00
   3.5503824E-04   1.2017841E+05   -1.6974040E+00
   3.5667785E-04   1.1924234E+05   -1.6968537E+00
   3.5832502E-04   1.1831386E+05   -1.6963040E+00
   3.5997981E-04   1.1739291E+05   -1.6957548E+00
   3.6164223E-04   1.1647943E+05   -1.6952062E+00
   3.6331233E-04   1.1557334E+05   -1.6946581E+00
   3.6499015E-04   1.1467459E+05   -1.6941106E+00
   3.6667571E-04   1.1378312E+05   -1.6935636E+00
   3.6836906E-04   1.1289886E+05   -1.6930172E+00
   3.7007022E-04   1.1202175E+05   -1.6924714E+00
   3.7177925E-04   1.1115174E+05   -1.6919261E+00
   3.7349616E-04   1.1028877E+05   -1.6913815E+00
   3.7522101E-04   1.0943276E+05   -1.6908374E+00
   3.7695382E-04   1.0858368E+05   -1.6902939E+00
   3.7869463E-04   1.0774145E+05   -1.6897510E+00
   3.8044348E-04   1.0690602E+05   -1.6892088E+00
   3.8220041E-04   1.0607733E+05   -1.6886671E+00
   3.8396545E-04   1.0525533E+05   -1.6881260E+00
   3.8573864E-04   1.0443996E+05   -1.6875856E+00
   3.8752002E-04   1.0363117E+05   -1.6870458E+00
   3.8930963E-04   1.0282889E+05   -1.6865066E+00
   3.9110750E-04   1.0203308E+05   -1.6859680E+00
   3.9291368E-04   1.0124368E+05   -1.6854301E+00
   3.9472820E-04   1.0046063E+05   -1.6848928E+00
   3.9655109E-04   9.9683887E+04   -1.6843561E+00
   3.9838241E-04   9.8913394E+04   -1.6838201E+00
   4.0022218E-04   9.8149098E+04   -1.6832847E+00
   4.0207045E-04   9.7390948E+04   -1.6827501E+00
   4.0392725E-04   9.6638893E+04   -1.6822160E+00
   4.0579263E-04   9.5892881E+04   -1.6816827E+00
   4.0766662E-04   9.5152861E+04   -1.6811500E+00
   4.0954927E-04   9.4418784E+04   -1.6806179E+00
   4.1144061E-04   9.3690599E+04   -1.6800866E+00
   4.1334068E-04   9.2968258E+04   -1.6795559E+00
   4.1524953E-04   9.2251711E+04   -1.6790260E+00
   4.1716720E-04   9.1540911E+04   -1.6784967E+00
   4.1909372E-04   9.0835808E+04   -1.6779681E+00
   4.2102914E-04   9.0136356E+04   -1.6774402E+00
   4.2297350E-04   8.9442508E+04   -1.6769130E+00
   4.2492683E-04   8.8754215E+04   -1.6763866E+00
   4.2688919E-04   8.8071433E+04   -1.6758608E+00
   4.2886061E-04   8.7394116E+04   -1.6753358E+00
   4.3084113E-04   8.6722217E+04   -1.6748115E+00
   4.3283080E-04   8.6055691E+04   -1.6742879E+00
   4.3482966E-04   8.5394494E+04   -1.6737650E+00
   4.3683775E-04   8.4738581E+04   -1.6732429E+00
   4.3885511E-04   8.4087908E+04   -1.6727215E+00
   4.4088179E-04   8.3442432E+04   -1.6722008E+00
   4.4291783E-04   8.2802109E+04   -1.6716809E+00
   4.4496327E-04   8.2166896E+04   -1.6711618E+00
   4.4701816E-04   8.1536752E+04   -1.6706434E+00
   4.4908253E-04   8.0911633E+04   -1.6701257E+00
   4.5115644E-04   8.0291498E+04   -1.6696088E+00
   4.5323993E-04   7.9676306E+04   -1.6690927E+00
   4.5533304E-04   7.9066015E+04   -1.6685774E+00
   4.5743582E-04   7.8460585E+04   -1.6680628E+00
   4.5954830E-04   7.7859975E+04   -1.6675490E+00
   4.6167054E-04   7.7264146E+04   -1.6670360E+00
   4.6380259E-04   7.6673057E+04   -1.6665237E+00
   4.6594448E-04   7.6086670E+04   -1.6660123E+00
   4.6809626E-04   7.5504946E+04   -1.6655016E+00
   4.7025797E-04   7.4927845E+04   -1.6649917E+00
   4.7242967E-04   7.4355329E+04   -1.6644826E+00
   4.7461140E-04   7.3787361E+04   -1.6639744E+00
   4.7680321E-04   7.3223902E+04   -1.6634669E+00
   4.7900514E-04   7.2664917E+04   -1.6629602E+00
   4.8121723E-04   7.2110366E+04   -1.6624544E+00
   4.8343954E-04   7.1560215E+04   -1.6619494E+00
   4.8567212E-04   7.1014426E+04   -1.6614451E+00
   4.8791500E-04   7.0472963E+04   -1.6609417E+00
   4.9016825E-04   6.9935791E+04   -1.6604392E+00
   4.9243189E-04   6.9402873E+04   -1.6599374E+00
   4.9470600E-04   6.8874176E+04   -1.6594365E+00
   4.9699060E-04   6.8349664E+04   -1.6589364E+00
   4.9928575E-04   6.7829303E+04   -1.6584372E+00
   5.0159151E-04   6.7313057E+04   -1.6579388E+00
   5.0390791E-04   6.6800894E+04   -1.6574412E+00
   5.0623501E-04   6.6292780E+04   -1.6569445E+00
   5.0857286E-04   6.5788681E+04   -1.6564487E+00
   5.1092150E-04   6.5288565E+04   -1.6559537E+00
   5.1328099E-04   6.4792398E+04   -1.6554595E+00
   5.1565137E-04   6.4300148E+04   -1.6549662E+00
   5.1803270E-04   6.3811783E+04   -1.6544738E+00
   5.2042503E-04   6.3327270E+04   -1.6539823E+00
   5.2282841E-04   6.2846579E+04   -1.6534916E+00
   5.2524289E-04   6.2369677E+04   -1.6530017E+00
   5.2766851E-04   6.1896533E+04   -1.6525128E+00
   5.3010534E-04   6.1427117E+04   -1.6520247E+00
   5.3255342E-04   6.0961398E+04   -1.6515375E+00
   5.3501281E-04   6.0499346E+04   -1.6510512E+00
   5.3748356E-04   6.0040930E+04   -1.6505658E+00
   5.3996571E-04   5.9586120E+04   -1.6500813E+00
   5.4245933E-04   5.9134888E+04   -1.6495976E+00
   5.4496446E-04   5.8687204E+04   -1.6491149E+00
   5.4748117E-04   5.8243038E+04   -1.6486330E+00
   5.5000949E-04   5.7802362E+04   -1.6481521E+00
   5.5254949E-04   5.7365148E+04   -1.6476720E+00
   5.5510123E-04   5.6931366E+04   -1.6471929E+00
   5.5766474E-04   5.6500989E+04   -1.6467146E+00
   5.6024010E-04   5.6073989E+04   -1.6462373E+00
   5.6282734E-04   5.5650338E+04   -1.6457608E+00
   5.6542654E-04   5.5230009E+04   -1.6452853E+00
   5.6803774E-04   5.4812974E+04   -1.6448107E+00
   5.7066099E-04   5.4399208E+04   -1.6443371E+00
   5.7329637E-04   5.3988682E+04   -1.6438643E+00
   5.7594391E-04   5.3581372E+04   -1.6433925E+00
   5.7860368E-04   5.3177249E+04   -1.6429215E+00
   5.8127573E-04   5.2776290E+04   -1.6424516E+00
   5.8396012E-04   5.2378466E+04   -1.6419825E+00
   5.8665691E-04   5.1983754E+04   -1.6415144E+00
   5.8936616E-04   5.1592127E+04   -1.6410472E+00
   5.9208791E-04   5.1203561E+04   -1.6405809E+00
   5.9482223E-04   5.0818030E+04   -1.6401156E+00
   5.9756919E-04   5.0435511E+04   -1.6396513E+00
   6.0032882E-04   5.0055977E+04   -1.6391878E+00
   6.0310120E-04   4.9679405E+04   -1.6387253E+00
   6.0588639E-04   4.9305772E+04   -1.6382638E+00
   6.0868443E-04   4.8935052E+04   -1.6378032E+00
   6.1149540E-04   4.8567223E+04   -1.6373436E+00
   6.1431935E-04   4.8202260E+04   -1.6368849E+00
   6.1715634E-04   4.7840141E+04   -1.6364271E+00
   6.2000644E-04   4.7480843E+04   -1.6359704E+00
   6.2286969E-04   4.7124342E+04   -1.6355145E+00
