#        a       HoverH0(a)       dlogHdloga_of_a(a)
   1.0000000E-04   1.0974423E+06   -1.8657423E+00
   1.0046181E-04   1.0880498E+06   -1.8652893E+00
   1.0092575E-04   1.0787401E+06   -1.8648353E+00
   1.0139184E-04   1.0695121E+06   -1.8643804E+00
   1.0186008E-04   1.0603654E+06   -1.8639246E+00
   1.0233048E-04   1.0512991E+06   -1.8634677E+00
   1.0280305E-04   1.0423125E+06   -1.8630099E+00
   1.0327781E-04   1.0334049E+06   -1.8625512E+00
   1.0375475E-04   1.0245756E+06   -1.8620915E+00
   1.0423390E-04   1.0158239E+06   -1.8616309E+00
   1.0471527E-04   1.0071491E+06   -1.8611693E+00
   1.0519885E-04   9.9855051E+05   -1.8607067E+00
   1.0568467E-04   9.9002742E+05   -1.8602433E+00
   1.0617274E-04   9.8157919E+05   -1.8597788E+00
   1.0666305E-04   9.7320513E+05   -1.8593135E+00
   1.0715563E-04   9.6490458E+05   -1.8588472E+00
   1.0765049E-04   9.5667689E+05   -1.8583799E+00
   1.0814763E-04   9.4852140E+05   -1.8579117E+00
   1.0864707E-04   9.4043746E+05   -1.8574426E+00
   1.0914881E-04   9.3242443E+05   -1.8569726E+00
   1.0965287E-04   9.2448169E+05   -1.8565016E+00
   1.1015926E-04   9.1660859E+05   -1.8560297E+00
   1.1066799E-04   9.0880453E+05   -1.8555569E+00
   1.1117906E-04   9.0106887E+05   -1.8550832E+00
   1.1169250E-04   8.9340100E+05   -1.8546085E+00
   1.1220831E-04   8.8580033E+05   -1.8541330E+00
   1.1272650E-04   8.7826625E+05   -1.8536565E+00
   1.1324708E-04   8.7079816E+05   -1.8531791E+00
   1.1377007E-04   8.6339548E+05   -1.8527008E+00
   1.1429547E-04   8.5605762E+05   -1.8522216E+00
   1.1482330E-04   8.4878399E+05   -1.8517415E+00
   1.1535356E-04   8.4157403E+05   -1.8512605E+00
   1.1588628E-04   8.3442717E+05   -1.8507785E+00
   1.1642145E-04   8.2734283E+05   -1.8502957E+00
   1.1695910E-04   8.2032047E+05   -1.8498120E+00
   1.1749923E-04   8.1335953E+05   -1.8493274E+00
   1.1804185E-04   8.0645946E+05   -1.8488420E+00
   1.1858698E-04   7.9961971E+05   -1.8483556E+00
   1.1913463E-04   7.9283976E+05   -1.8478683E+00
   1.1968481E-04   7.8611905E+05   -1.8473802E+00
   1.2023752E-04   7.7945707E+05   -1.8468912E+00
   1.2079279E-04   7.7285329E+05   -1.8464013E+00
   1.2135063E-04   7.6630720E+05   -1.8459106E+00
   1.2191104E-04   7.5981826E+05   -1.8454190E+00
   1.2247403E-04   7.5338598E+05   -1.8449265E+00
   1.2303963E-04   7.4700986E+05   -1.8444331E+00
   1.2360784E-04   7.4068937E+05   -1.8439389E+00
   1.2417868E-04   7.3442404E+05   -1.8434439E+00
   1.2475215E-04   7.2821337E+05   -1.8429479E+00
   1.2532826E-04   7.2205688E+05   -1.8424512E+00
   1.2590704E-04   7.1595407E+05   -1.8419536E+00
   1.2648850E-04   7.0990446E+05   -1.8414551E+00
   1.2707263E-04   7.0390760E+05   -1.8409558E+00
   1.2765947E-04   6.9796300E+05   -1.8404557E+00
   1.2824901E-04   6.9207020E+05   -1.8399547E+00
   1.2884128E-04   6.8622874E+05   -1.8394529E+00
   1.2943628E-04   6.8043816E+05   -1.8389503E+00
   1.3003403E-04   6.7469800E+05   -1.8384468E+00
   1.3063454E-04   6.6900782E+05   -1.8379425E+00
   1.3123783E-04   6.6336717E+05   -1.8374374E+00
   1.3184390E-04   6.5777561E+05   -1.8369315E+00
   1.3245277E-04   6.5223271E+05   -1.8364248E+00
   1.3306445E-04   6.4673802E+05   -1.8359173E+00
   1.3367895E-04   6.4129113E+05   -1.8354089E+00
   1.3429630E-04   6.3589160E+05   -1.8348998E+00
   1.3491649E-04   6.3053901E+05   -1.8343899E+00
   1.3553955E-04   6.2523295E+05   -1.8338791E+00
   1.3616548E-04   6.1997300E+05   -1.8333676E+00
   1.3679431E-04   6.1475875E+05   -1.8328553E+00
   1.3742604E-04   6.0958980E+05   -1.8323422E+00
   1.3806069E-04   6.0446573E+05   -1.8318284E+00
   1.3869827E-04   5.9938616E+05   -1.8313137E+00
   1.3933879E-04   5.9435068E+05   -1.8307983E+00
   1.3998227E-04   5.8935891E+05   -1.8302821E+00
   1.4062872E-04   5.8441045E+05   -1.8297652E+00
   1.4127816E-04   5.7950493E+05   -1.8292475E+00
   1.4193060E-04   5.7464195E+05   -1.8287290E+00
   1.4258605E-04   5.6982114E+05   -1.8282098E+00
   1.4324453E-04   5.6504213E+05   -1.8276898E+00
   1.4390605E-04   5.6030454E+05   -1.8271691E+00
   1.4457062E-04   5.5560801E+05   -1.8266476E+00
   1.4523826E-04   5.5095217E+05   -1.8261255E+00
   1.4590899E-04   5.4633666E+05   -1.8256025E+00
   1.4658281E-04   5.4176112E+05   -1.8250789E+00
   1.4725974E-04   5.3722520E+05   -1.8245545E+00
   1.4793981E-04   5.3272854E+05   -1.8240294E+00
   1.4862301E-04   5.2827080E+05   -1.8235036E+00
   1.4930936E-04   5.2385164E+05   -1.8229771E+00
   1.4999889E-04   5.1947070E+05   -1.8224498E+00
   1.5069160E-04   5.1512765E+05   -1.8219219E+00
   1.5138751E-04   5.1082215E+05   -1.8213932E+00
   1.5208663E-04   5.0655387E+05   -1.8208639E+00
   1.5278899E-04   5.0232249E+05   -1.8203339E+00
   1.5349458E-04   4.9812767E+05   -1.8198031E+00
   1.5420343E-04   4.9396908E+05   -1.8192717E+00
   1.5491556E-04   4.8984642E+05   -1.8187397E+00
   1.5563098E-04   4.8575935E+05   -1.8182069E+00
   1.5634970E-04   4.8170757E+05   -1.8176735E+00
   1.5707174E-04   4.7769076E+05   -1.8171394E+00
   1.5779711E-04   4.7370861E+05   -1.8166046E+00
   1.5852584E-04   4.6976082E+05   -1.8160692E+00
   1.5925792E-04   4.6584707E+05   -1.8155331E+00
   1.5999339E-04   4.6196707E+05   -1.8149964E+00
   1.6073226E-04   4.5812053E+05   -1.8144591E+00
   1.6147454E-04   4.5430713E+05   -1.8139211E+00
   1.6222024E-04   4.5052660E+05   -1.8133825E+00
   1.6296939E-04   4.4677864E+05   -1.8128432E+00
   1.6372200E-04   4.4306295E+05   -1.8123033E+00
   1.6447809E-04   4.3937927E+05   -1.8117628E+00
   1.6523767E-04   4.3572729E+05   -1.8112217E+00
   1.6600075E-04   4.3210675E+05   -1.8106800E+00
   1.6676736E-04   4.2851736E+05   -1.8101376E+00
   1.6753751E-04   4.2495885E+05   -1.8095947E+00
   1.6831122E-04   4.2143094E+05   -1.8090511E+00
   1.6908849E-04   4.1793337E+05   -1.8085070E+00
   1.6986936E-04   4.1446587E+05   -1.8079623E+00
   1.7065384E-04   4.1102817E+05   -1.8074170E+00
   1.7144193E-04   4.0762000E+05   -1.8068711E+00
   1.7223367E-04   4.0424112E+05   -1.8063247E+00
   1.7302906E-04   4.0089125E+05   -1.8057777E+00
   1.7382813E-04   3.9757014E+05   -1.8052301E+00
   1.7463089E-04   3.9427755E+05   -1.8046820E+00
   1.7543735E-04   3.9101321E+05   -1.8041333E+00
   1.7624754E-04   3.8777687E+05   -1.8035840E+00
   1.7706147E-04   3.8456830E+05   -1.8030342E+00
   1.7787916E-04   3.8138724E+05   -1.8024839E+00
   1.7870062E-04   3.7823345E+05   -1.8019331E+00
   1.7952588E-04   3.7510670E+05   -1.8013817E+00
   1.8035495E-04   3.7200674E+05   -1.8008298E+00
   1.8118785E-04   3.6893334E+05   -1.8002774E+00
   1.8202459E-04   3.6588626E+05   -1.7997244E+00
   1.8286520E-04   3.6286527E+05   -1.7991710E+00
   1.8370969E-04   3.5987014E+05   -1.7986171E+00
   1.8455808E-04   3.5690065E+05   -1.7980626E+00
   1.8541039E-04   3.5395656E+05   -1.7975077E+00
   1.8626663E-04   3.5103766E+05   -1.7969523E+00
   1.8712683E-04   3.4814372E+05   -1.7963964E+00
   1.8799100E-04   3.4527452E+05   -1.7958400E+00
   1.8885917E-04   3.4242984E+05   -1.7952832E+00
   1.8973134E-04   3.3960948E+05   -1.7947259E+00
   1.9060754E-04   3.3681321E+05   -1.7941681E+00
   1.9148778E-04   3.3404082E+05   -1.7936099E+00
   1.9237209E-04   3.3129210E+05   -1.7930512E+00
   1.9326049E-04   3.2856685E+05   -1.7924921E+00
   1.9415299E-04   3.2586486E+05   -1.7919325E+00
   1.9504960E-04   3.2318592E+05   -1.7913725E+00
   1.9595036E-04   3.2052983E+05   -1.7908121E+00
   1.9685528E-04   3.1789639E+05   -1.7902513E+00
   1.9776438E-04   3.1528541E+05   -1.7896900E+00
   1.9867768E-04   3.1269667E+05   -1.7891284E+00
   1.9959519E-04   3.1013000E+05   -1.7885663E+00
   2.0051694E-04   3.0758519E+05   -1.7880038E+00
   2.0144295E-04   3.0506205E+05   -1.7874410E+00
   2.0237324E-04   3.0256039E+05   -1.7868777E+00
   2.0330782E-04   3.0008003E+05   -1.7863141E+00
   2.0424671E-04   2.9762078E+05   -1.7857501E+00
   2.0518995E-04   2.9518244E+05   -1.7851857E+00
   2.0613754E-04   2.9276485E+05   -1.7846209E+00
   2.0708950E-04   2.9036781E+05   -1.7840558E+00
   2.0804586E-04   2.8799115E+05   -1.7834904E+00
   2.0900664E-04   2.8563468E+05   -1.7829245E+00
   2.0997185E-04   2.8329824E+05   -1.7823584E+00
   2.1094152E-04   2.8098164E+05   -1.7817919E+00
   2.1191567E-04   2.7868471E+05   -1.7812251E+00
   2.1289432E-04   2.7640728E+05   -1.7806579E+00
   2.1387749E-04   2.7414918E+05   -1.7800904E+00
   2.1486520E-04   2.7191023E+05   -1.7795226E+00
   2.1585747E-04   2.6969028E+05   -1.7789545E+00
   2.1685432E-04   2.6748915E+05   -1.7783861E+00
   2.1785578E-04   2.6530668E+05   -1.7778174E+00
   2.1886186E-04   2.6314271E+05   -1.7772484E+00
   2.1987259E-04   2.6099708E+05   -1.7766791E+00
   2.2088798E-04   2.5886961E+05   -1.7761096E+00
   2.2190807E-04   2.5676017E+05   -1.7755397E+00
   2.2293286E-04   2.5466858E+05   -1.7749696E+00
   2.2396239E-04   2.5259469E+05   -1.7743993E+00
   2.2499667E-04   2.5053835E+05   -1.7738286E+00
   2.2603573E-04   2.4849941E+05   -1.7732578E+00
   2.2707958E-04   2.4647770E+05   -1.7726866E+00
   2.2812826E-04   2.4447309E+05   -1.7721153E+00
   2.2918178E-04   2.4248542E+05   -1.7715437E+00
   2.3024017E-04   2.4051454E+05   -1.7709719E+00
   2.3130344E-04   2.3856032E+05   -1.7703998E+00
   2.3237162E-04   2.3662259E+05   -1.7698276E+00
   2.3344474E-04   2.3470122E+05   -1.7692551E+00
   2.3452281E-04   2.3279607E+05   -1.7686824E+00
   2.3560586E-04   2.3090699E+05   -1.7681096E+00
   2.3669392E-04   2.2903385E+05   -1.7675365E+00
   2.3778699E-04   2.2717650E+05   -1.7669633E+00
   2.3888512E-04   2.2533481E+05   -1.7663898E+00
   2.3998831E-04   2.2350863E+05   -1.7658162E+00
   2.4109661E-04   2.2169785E+05   -1.7652425E+00
   2.4221001E-04   2.1990232E+05   -1.7646685E+00
   2.4332857E-04   2.1812190E+05   -1.7640944E+00
   2.4445228E-04   2.1635647E+05   -1.7635202E+00
   2.4558119E-04   2.1460590E+05   -1.7629458E+00
   2.4671531E-04   2.1287006E+05   -1.7623713E+00
   2.4785467E-04   2.1114882E+05   -1.7617967E+00
   2.4899928E-04   2.0944205E+05   -1.7612219E+00
   2.5014919E-04   2.0774962E+05   -1.7606470E+00
   2.5130440E-04   2.0607142E+05   -1.7600720E+00
   2.5246495E-04   2.0440731E+05   -1.7594969E+00
   2.5363086E-04   2.0275719E+05   -1.7589217E+00
   2.5480216E-04   2.0112091E+05   -1.7583464E+00
   2.5597886E-04   1.9949837E+05   -1.7577710E+00
   2.5716100E-04   1.9788944E+05   -1.7571955E+00
   2.5834859E-04   1.9629401E+05   -1.7566200E+00
   2.5954168E-04   1.9471196E+05   -1.7560443E+00
   2.6074027E-04   1.9314317E+05   -1.7554686E+00
   2.6194439E-04   1.9158753E+05   -1.7548929E+00
   2.6315408E-04   1.9004492E+05   -1.7543171E+00
   2.6436935E-04   1.8851524E+05   -1.7537412E+00
   2.6559024E-04   1.8699836E+05   -1.7531653E+00
   2.6681676E-04   1.8549418E+05   -1.7525894E+00
   2.6804895E-04   1.8400259E+05   -1.7520135E+00
   2.6928683E-04   1.8252348E+05   -1.7514375E+00
   2.7053042E-04   1.8105674E+05   -1.7508615E+00
   2.7177976E-04   1.7960226E+05   -1.7502855E+00
   2.7303487E-04   1.7815993E+05   -1.7497095E+00
   2.7429577E-04   1.7672966E+05   -1.7491335E+00
   2.7556250E-04   1.7531134E+05   -1.7485575E+00
   2.7683507E-04   1.7390486E+05   -1.7479816E+00
   2.7811353E-04   1.7251012E+05   -1.7474056E+00
   2.7939788E-04   1.7112702E+05   -1.7468297E+00
   2.8068817E-04   1.6975547E+05   -1.7462538E+00
   2.8198442E-04   1.6839535E+05   -1.7456779E+00
   2.8328665E-04   1.6704657E+05   -1.7451021E+00
   2.8459490E-04   1.6570904E+05   -1.7445264E+00
   2.8590919E-04   1.6438265E+05   -1.7439507E+00
   2.8722955E-04   1.6306731E+05   -1.7433750E+00
   2.8855600E-04   1.6176292E+05   -1.7427995E+00
   2.8988859E-04   1.6046939E+05   -1.7422240E+00
   2.9122732E-04   1.5918663E+05   -1.7416486E+00
   2.9257224E-04   1.5791454E+05   -1.7410732E+00
   2.9392337E-04   1.5665304E+05   -1.7404980E+00
   2.9528074E-04   1.5540202E+05   -1.7399229E+00
   2.9664438E-04   1.5416140E+05   -1.7393479E+00
   2.9801431E-04   1.5293109E+05   -1.7387730E+00
   2.9939057E-04   1.5171100E+05   -1.7381982E+00
   3.0077319E-04   1.5050105E+05   -1.7376235E+00
   3.0216219E-04   1.4930113E+05   -1.7370490E+00
   3.0355761E-04   1.4811118E+05   -1.7364746E+00
   3.0495947E-04   1.4693110E+05   -1.7359003E+00
   3.0636780E-04   1.4576081E+05   -1.7353262E+00
   3.0778264E-04   1.4460022E+05   -1.7347523E+00
   3.0920401E-04   1.4344925E+05   -1.7341785E+00
   3.1063195E-04   1.4230782E+05   -1.7336049E+00
   3.1206648E-04   1.4117585E+05   -1.7330314E+00
   3.1350764E-04   1.4005325E+05   -1.7324581E+00
   3.1495545E-04   1.3893994E+05   -1.7318850E+00
   3.1640994E-04   1.3783584E+05   -1.7313122E+00
   3.1787116E-04   1.3674089E+05   -1.7307395E+00
   3.1933912E-04   1.3565498E+05   -1.7301670E+00
   3.2081386E-04   1.3457806E+05   -1.7295947E+00
   3.2229541E-04   1.3351004E+05   -1.7290226E+00
   3.2378381E-04   1.3245084E+05   -1.7284507E+00
   3.2527908E-04   1.3140039E+05   -1.7278791E+00
   3.2678125E-04   1.3035861E+05   -1.7273077E+00
   3.2829036E-04   1.2932544E+05   -1.7267366E+00
   3.2980644E-04   1.2830079E+05   -1.7261657E+00
   3.3132952E-04   1.2728459E+05   -1.7255950E+00
   3.3285963E-04   1.2627678E+05   -1.7250246E+00
   3.3439681E-04   1.2527727E+05   -1.7244544E+00
   3.3594109E-04   1.2428601E+05   -1.7238846E+00
   3.3749250E-04   1.2330290E+05   -1.7233150E+00
   3.3905108E-04   1.2232790E+05   -1.7227456E+00
   3.4061685E-04   1.2136093E+05   -1.7221766E+00
   3.4218986E-04   1.2040191E+05   -1.7216079E+00
   3.4377013E-04   1.1945078E+05   -1.7210394E+00
   3.4535769E-04   1.1850748E+05   -1.7204713E+00
   3.4695259E-04   1.1757194E+05   -1.7199034E+00
   3.4855485E-04   1.1664408E+05   -1.7193359E+00
   3.5016452E-04   1.1572385E+05   -1.7187687E+00
   3.5178161E-04   1.1481118E+05   -1.7182018E+00
   3.5340618E-04   1.1390601E+05   -1.7176353E+00
   3.5503824E-04   1.1300827E+05   -1.7170691E+00
   3.5667785E-04   1.1211789E+05   -1.7165032E+00
   3.5832502E-04   1.1123482E+05   -1.7159377E+00
   3.5997981E-04   1.1035900E+05   -1.7153725E+00
   3.6164223E-04   1.0949035E+05   -1.7148077E+00
   3.6331233E-04   1.0862883E+05   -1.7142433E+00
   3.6499015E-04   1.0777436E+05   -1.7136792E+00
   3.6667571E-04   1.0692689E+05   -1.7131155E+00
   3.6836906E-04   1.0608636E+05   -1.7125522E+00
   3.7007022E-04   1.0525271E+05   -1.7119893E+00
   3.7177925E-04   1.0442589E+05   -1.7114268E+00
   3.7349616E-04   1.0360582E+05   -1.7108646E+00
   3.7522101E-04   1.0279247E+05   -1.7103029E+00
   3.7695382E-04   1.0198576E+05   -1.7097416E+00
   3.7869463E-04   1.0118564E+05   -1.7091807E+00
   3.8044348E-04   1.0039207E+05   -1.7086202E+00
   3.8220041E-04   9.9604969E+04   -1.7080602E+00
   3.8396545E-04   9.8824298E+04   -1.7075006E+00
   3.8573864E-04   9.8049997E+04   -1.7069414E+00
   3.8752002E-04   9.7282014E+04   -1.7063826E+00
   3.8930963E-04   9.6520295E+04   -1.7058243E+00
   3.9110750E-04   9.5764786E+04   -1.7052665E+00
   3.9291368E-04   9.5015435E+04   -1.7047091E+00
   3.9472820E-04   9.4272190E+04   -1.7041522E+00
   3.9655109E-04   9.3534998E+04   -1.7035958E+00
   3.9838241E-04   9.2803809E+04   -1.7030398E+00
   4.0022218E-04   9.2078572E+04   -1.7024843E+00
   4.0207045E-04   9.1359236E+04   -1.7019293E+00
   4.0392725E-04   9.0645751E+04   -1.7013748E+00
   4.0579263E-04   8.9938068E+04   -1.7008208E+00
   4.0766662E-04   8.9236138E+04   -1.7002673E+00
   4.0954927E-04   8.8539912E+04   -1.6997143E+00
   4.1144061E-04   8.7849341E+04   -1.6991618E+00
   4.1334068E-04   8.7164378E+04   -1.6986098E+00
   4.1524953E-04   8.6484976E+04   -1.6980583E+00
   4.1716720E-04   8.5811087E+04   -1.6975074E+00
   4.1909372E-04   8.5142666E+04   -1.6969570E+00
   4.2102914E-04   8.4479665E+04   -1.6964072E+00
   4.2297350E-04   8.3822038E+04   -1.6958578E+00
   4.2492683E-04   8.3169742E+04   -1.6953091E+00
   4.2688919E-04   8.2522730E+04   -1.6947608E+00
   4.2886061E-04   8.1880959E+04   -1.6942132E+00
   4.3084113E-04   8.1244383E+04   -1.6936661E+00
   4.3283080E-04   8.0612960E+04   -1.6931195E+00
   4.3482966E-04   7.9986645E+04   -1.6925736E+00
   4.3683775E-04   7.9365396E+04   -1.6920282E+00
   4.3885511E-04   7.8749170E+04   -1.6914834E+00
   4.4088179E-04   7.8137924E+04   -1.6909392E+00
   4.4291783E-04   7.7531617E+04   -1.6903955E+00
   4.4496327E-04   7.6930207E+04   -1.6898525E+00
   4.4701816E-04   7.6333654E+04   -1.6893101E+00
   4.4908253E-04   7.5741915E+04   -1.6887683E+00
   4.5115644E-04   7.5154951E+04   -1.6882270E+00
   4.5323993E-04   7.4572722E+04   -1.6876864E+00
   4.5533304E-04   7.3995187E+04   -1.6871465E+00
   4.5743582E-04   7.3422308E+04   -1.6866071E+00
   4.5954830E-04   7.2854045E+04   -1.6860684E+00
   4.6167054E-04   7.2290360E+04   -1.6855303E+00
   4.6380259E-04   7.1731213E+04   -1.6849928E+00
   4.6594448E-04   7.1176568E+04   -1.6844560E+00
   4.6809626E-04   7.0626386E+04   -1.6839199E+00
   4.7025797E-04   7.0080629E+04   -1.6833843E+00
   4.7242967E-04   6.9539262E+04   -1.6828495E+00
   4.7461140E-04   6.9002246E+04   -1.6823153E+00
   4.7680321E-04   6.8469546E+04   -1.6817818E+00
   4.7900514E-04   6.7941125E+04   -1.6812489E+00
   4.8121723E-04   6.7416948E+04   -1.6807167E+00
   4.8343954E-04   6.6896979E+04   -1.6801852E+00
   4.8567212E-04   6.6381182E+04   -1.6796544E+00
   4.8791500E-04   6.5869524E+04   -1.6791242E+00
   4.9016825E-04   6.5361969E+04   -1.6785948E+00
   4.9243189E-04   6.4858483E+04   -1.6780660E+00
   4.9470600E-04   6.4359032E+04   -1.6775380E+00
   4.9699060E-04   6.3863583E+04   -1.6770106E+00
   4.9928575E-04   6.3372101E+04   -1.6764840E+00
   5.0159151E-04   6.2884554E+04   -1.6759580E+00
   5.0390791E-04   6.2400910E+04   -1.6754328E+00
   5.0623501E-04   6.1921134E+04   -1.6749083E+00
   5.0857286E-04   6.1445196E+04   -1.6743846E+00
   5.1092150E-04   6.0973063E+04   -1.6738615E+00
   5.1328099E-04   6.0504704E+04   -1.6733392E+00
   5.1565137E-04   6.0040086E+04   -1.6728176E+00
   5.1803270E-04   5.9579180E+04   -1.6722968E+00
   5.2042503E-04   5.9121953E+04   -1.6717767E+00
   5.2282841E-04   5.8668376E+04   -1.6712574E+00
   5.2524289E-04   5.8218418E+04   -1.6707388E+00
   5.2766851E-04   5.7772049E+04   -1.6702210E+00
   5.3010534E-04   5.7329239E+04   -1.6697039E+00
   5.3255342E-04   5.6889958E+04   -1.6691876E+00
   5.3501281E-04   5.6454177E+04   -1.6686720E+00
   5.3748356E-04   5.6021868E+04   -1.6681573E+00
   5.3996571E-04   5.5593001E+04   -1.6676433E+00
   5.4245933E-04   5.5167547E+04   -1.6671300E+00
   5.4496446E-04   5.4745479E+04   -1.6666176E+00
   5.4748117E-04   5.4326768E+04   -1.6661060E+00
   5.5000949E-04   5.3911387E+04   -1.6655951E+00
   5.5254949E-04   5.3499307E+04   -1.6650850E+00
   5.5510123E-04   5.3090502E+04   -1.6645758E+00
   5.5766474E-04   5.2684944E+04   -1.6640673E+00
   5.6024010E-04   5.2282606E+04   -1.6635596E+00
   5.6282734E-04   5.1883463E+04   -1.6630528E+00
   5.6542654E-04   5.1487486E+04   -1.6625467E+00
   5.6803774E-04   5.1094651E+04   -1.6620415E+00
   5.7066099E-04   5.0704931E+04   -1.6615371E+00
   5.7329637E-04   5.0318301E+04   -1.6610335E+00
   5.7594391E-04   4.9934734E+04   -1.6605307E+00
   5.7860368E-04   4.9554206E+04   -1.6600288E+00
   5.8127573E-04   4.9176691E+04   -1.6595276E+00
   5.8396012E-04   4.8802165E+04   -1.6590274E+00
   5.8665691E-04   4.8430603E+04   -1.6585279E+00
   5.8936616E-04   4.8061980E+04   -1.6580293E+00
   5.9208791E-04   4.7696272E+04   -1.6575315E+00
   5.9482223E-04   4.7333456E+04   -1.6570346E+00
   5.9756919E-04   4.6973507E+04   -1.6565386E+00
   6.0032882E-04   4.6616401E+04   -1.6560433E+00
   6.0310120E-04   4.6262116E+04   -1.6555490E+00
   6.0588639E-04   4.5910628E+04   -1.6550555E+00
   6.0868443E-04   4.5561914E+04   -1.6545629E+00
   6.1149540E-04   4.5215951E+04   -1.6540711E+00
   6.1431935E-04   4.4872717E+04   -1.6535802E+00
   6.1715634E-04   4.4532189E+04   -1.6530901E+00
   6.2000644E-04   4.4194345E+04   -1.6526010E+00
   6.2286969E-04   4.3859162E+04   -1.6521127E+00
