#        a       HoverH0(a)       dlogHdloga_of_a(a)
   1.0000000E-04   1.1975126E+06   -1.8708806E+00
   1.0046181E-04   1.1872356E+06   -1.8704389E+00
   1.0092575E-04   1.1770492E+06   -1.8699961E+00
   1.0139184E-04   1.1669525E+06   -1.8695523E+00
   1.0186008E-04   1.1569448E+06   -1.8691076E+00
   1.0233048E-04   1.1470253E+06   -1.8686619E+00
   1.0280305E-04   1.1371932E+06   -1.8682152E+00
   1.0327781E-04   1.1274477E+06   -1.8677676E+00
   1.0375475E-04   1.1177880E+06   -1.8673189E+00
   1.0423390E-04   1.1082134E+06   -1.8668693E+00
   1.0471527E-04   1.0987231E+06   -1.8664187E+00
   1.0519885E-04   1.0893163E+06   -1.8659672E+00
   1.0568467E-04   1.0799923E+06   -1.8655147E+00
   1.0617274E-04   1.0707503E+06   -1.8650612E+00
   1.0666305E-04   1.0615896E+06   -1.8646068E+00
   1.0715563E-04   1.0525095E+06   -1.8641514E+00
   1.0765049E-04   1.0435093E+06   -1.8636951E+00
   1.0814763E-04   1.0345882E+06   -1.8632377E+00
   1.0864707E-04   1.0257456E+06   -1.8627795E+00
   1.0914881E-04   1.0169807E+06   -1.8623203E+00
   1.0965287E-04   1.0082928E+06   -1.8618601E+00
   1.1015926E-04   9.9968120E+05   -1.8613990E+00
   1.1066799E-04   9.9114530E+05   -1.8609369E+00
   1.1117906E-04   9.8268439E+05   -1.8604739E+00
   1.1169250E-04   9.7429777E+05   -1.8600099E+00
   1.1220831E-04   9.6598480E+05   -1.8595450E+00
   1.1272650E-04   9.5774481E+05   -1.8590792E+00
   1.1324708E-04   9.4957715E+05   -1.8586124E+00
   1.1377007E-04   9.4148117E+05   -1.8581447E+00
   1.1429547E-04   9.3345624E+05   -1.8576761E+00
   1.1482330E-04   9.2550170E+05   -1.8572065E+00
   1.1535356E-04   9.1761694E+05   -1.8567360E+00
   1.1588628E-04   9.0980132E+05   -1.8562645E+00
   1.1642145E-04   9.0205423E+05   -1.8557922E+00
   1.1695910E-04   8.9437506E+05   -1.8553189E+00
   1.1749923E-04   8.8676320E+05   -1.8548447E+00
   1.1804185E-04   8.7921804E+05   -1.8543696E+00
   1.1858698E-04   8.7173899E+05   -1.8538936E+00
   1.1913463E-04   8.6432546E+05   -1.8534166E+00
   1.1968481E-04   8.5697686E+05   -1.8529388E+00
   1.2023752E-04   8.4969262E+05   -1.8524600E+00
   1.2079279E-04   8.4247215E+05   -1.8519803E+00
   1.2135063E-04   8.3531488E+05   -1.8514998E+00
   1.2191104E-04   8.2822026E+05   -1.8510183E+00
   1.2247403E-04   8.2118772E+05   -1.8505359E+00
   1.2303963E-04   8.1421670E+05   -1.8500527E+00
   1.2360784E-04   8.0730665E+05   -1.8495685E+00
   1.2417868E-04   8.0045704E+05   -1.8490835E+00
   1.2475215E-04   7.9366732E+05   -1.8485975E+00
   1.2532826E-04   7.8693696E+05   -1.8481107E+00
   1.2590704E-04   7.8026542E+05   -1.8476230E+00
   1.2648850E-04   7.7365218E+05   -1.8471345E+00
   1.2707263E-04   7.6709672E+05   -1.8466450E+00
   1.2765947E-04   7.6059852E+05   -1.8461547E+00
   1.2824901E-04   7.5415708E+05   -1.8456635E+00
   1.2884128E-04   7.4777188E+05   -1.8451715E+00
   1.2943628E-04   7.4144243E+05   -1.8446785E+00
   1.3003403E-04   7.3516822E+05   -1.8441848E+00
   1.3063454E-04   7.2894877E+05   -1.8436901E+00
   1.3123783E-04   7.2278358E+05   -1.8431946E+00
   1.3184390E-04   7.1667217E+05   -1.8426983E+00
   1.3245277E-04   7.1061406E+05   -1.8422011E+00
   1.3306445E-04   7.0460878E+05   -1.8417030E+00
   1.3367895E-04   6.9865585E+05   -1.8412041E+00
   1.3429630E-04   6.9275481E+05   -1.8407044E+00
   1.3491649E-04   6.8690519E+05   -1.8402039E+00
   1.3553955E-04   6.8110654E+05   -1.8397025E+00
   1.3616548E-04   6.7535841E+05   -1.8392002E+00
   1.3679431E-04   6.6966033E+05   -1.8386972E+00
   1.3742604E-04   6.6401187E+05   -1.8381933E+00
   1.3806069E-04   6.5841258E+05   -1.8376886E+00
   1.3869827E-04   6.5286203E+05   -1.8371831E+00
   1.3933879E-04   6.4735978E+05   -1.8366768E+00
   1.3998227E-04   6.4190540E+05   -1.8361697E+00
   1.4062872E-04   6.3649847E+05   -1.8356617E+00
   1.4127816E-04   6.3113856E+05   -1.8351530E+00
   1.4193060E-04   6.2582525E+05   -1.8346435E+00
   1.4258605E-04   6.2055813E+05   -1.8341331E+00
   1.4324453E-04   6.1533678E+05   -1.8336220E+00
   1.4390605E-04   6.1016081E+05   -1.8331101E+00
   1.4457062E-04   6.0502980E+05   -1.8325974E+00
   1.4523826E-04   5.9994336E+05   -1.8320839E+00
   1.4590899E-04   5.9490110E+05   -1.8315696E+00
   1.4658281E-04   5.8990260E+05   -1.8310546E+00
   1.4725974E-04   5.8494750E+05   -1.8305388E+00
   1.4793981E-04   5.8003539E+05   -1.8300222E+00
   1.4862301E-04   5.7516591E+05   -1.8295049E+00
   1.4930936E-04   5.7033867E+05   -1.8289868E+00
   1.4999889E-04   5.6555329E+05   -1.8284680E+00
   1.5069160E-04   5.6080940E+05   -1.8279484E+00
   1.5138751E-04   5.5610664E+05   -1.8274280E+00
   1.5208663E-04   5.5144463E+05   -1.8269069E+00
   1.5278899E-04   5.4682303E+05   -1.8263851E+00
   1.5349458E-04   5.4224146E+05   -1.8258625E+00
   1.5420343E-04   5.3769958E+05   -1.8253392E+00
   1.5491556E-04   5.3319702E+05   -1.8248152E+00
   1.5563098E-04   5.2873345E+05   -1.8242905E+00
   1.5634970E-04   5.2430850E+05   -1.8237650E+00
   1.5707174E-04   5.1992186E+05   -1.8232388E+00
   1.5779711E-04   5.1557316E+05   -1.8227119E+00
   1.5852584E-04   5.1126208E+05   -1.8221844E+00
   1.5925792E-04   5.0698828E+05   -1.8216561E+00
   1.5999339E-04   5.0275142E+05   -1.8211271E+00
   1.6073226E-04   4.9855120E+05   -1.8205974E+00
   1.6147454E-04   4.9438727E+05   -1.8200670E+00
   1.6222024E-04   4.9025931E+05   -1.8195359E+00
   1.6296939E-04   4.8616702E+05   -1.8190042E+00
   1.6372200E-04   4.8211006E+05   -1.8184717E+00
   1.6447809E-04   4.7808814E+05   -1.8179386E+00
   1.6523767E-04   4.7410093E+05   -1.8174049E+00
   1.6600075E-04   4.7014813E+05   -1.8168705E+00
   1.6676736E-04   4.6622944E+05   -1.8163354E+00
   1.6753751E-04   4.6234455E+05   -1.8157996E+00
   1.6831122E-04   4.5849316E+05   -1.8152632E+00
   1.6908849E-04   4.5467498E+05   -1.8147262E+00
   1.6986936E-04   4.5088971E+05   -1.8141885E+00
   1.7065384E-04   4.4713706E+05   -1.8136502E+00
   1.7144193E-04   4.4341675E+05   -1.8131112E+00
   1.7223367E-04   4.3972848E+05   -1.8125717E+00
   1.7302906E-04   4.3607198E+05   -1.8120315E+00
   1.7382813E-04   4.3244696E+05   -1.8114906E+00
   1.7463089E-04   4.2885314E+05   -1.8109492E+00
   1.7543735E-04   4.2529025E+05   -1.8104072E+00
   1.7624754E-04   4.2175801E+05   -1.8098645E+00
   1.7706147E-04   4.1825616E+05   -1.8093213E+00
   1.7787916E-04   4.1478442E+05   -1.8087774E+00
   1.7870062E-04   4.1134253E+05   -1.8082330E+00
   1.7952588E-04   4.0793023E+05   -1.8076880E+00
   1.8035495E-04   4.0454725E+05   -1.8071424E+00
   1.8118785E-04   4.0119333E+05   -1.8065962E+00
   1.8202459E-04   3.9786822E+05   -1.8060495E+00
   1.8286520E-04   3.9457166E+05   -1.8055022E+00
   1.8370969E-04   3.9130341E+05   -1.8049543E+00
   1.8455808E-04   3.8806320E+05   -1.8044059E+00
   1.8541039E-04   3.8485080E+05   -1.8038570E+00
   1.8626663E-04   3.8166596E+05   -1.8033074E+00
   1.8712683E-04   3.7850843E+05   -1.8027574E+00
   1.8799100E-04   3.7537798E+05   -1.8022068E+00
   1.8885917E-04   3.7227436E+05   -1.8016557E+00
   1.8973134E-04   3.6919734E+05   -1.8011040E+00
   1.9060754E-04   3.6614668E+05   -1.8005519E+00
   1.9148778E-04   3.6312216E+05   -1.7999992E+00
   1.9237209E-04   3.6012354E+05   -1.7994460E+00
   1.9326049E-04   3.5715059E+05   -1.7988923E+00
   1.9415299E-04   3.5420308E+05   -1.7983381E+00
   1.9504960E-04   3.5128080E+05   -1.7977834E+00
   1.9595036E-04   3.4838352E+05   -1.7972282E+00
   1.9685528E-04   3.4551102E+05   -1.7966726E+00
   1.9776438E-04   3.4266309E+05   -1.7961164E+00
   1.9867768E-04   3.3983950E+05   -1.7955598E+00
   1.9959519E-04   3.3704004E+05   -1.7950027E+00
   2.0051694E-04   3.3426450E+05   -1.7944452E+00
   2.0144295E-04   3.3151266E+05   -1.7938872E+00
   2.0237324E-04   3.2878433E+05   -1.7933287E+00
   2.0330782E-04   3.2607929E+05   -1.7927698E+00
   2.0424671E-04   3.2339734E+05   -1.7922105E+00
   2.0518995E-04   3.2073827E+05   -1.7916507E+00
   2.0613754E-04   3.1810189E+05   -1.7910905E+00
   2.0708950E-04   3.1548800E+05   -1.7905299E+00
   2.0804586E-04   3.1289639E+05   -1.7899688E+00
   2.0900664E-04   3.1032687E+05   -1.7894074E+00
   2.0997185E-04   3.0777926E+05   -1.7888455E+00
   2.1094152E-04   3.0525334E+05   -1.7882832E+00
   2.1191567E-04   3.0274894E+05   -1.7877205E+00
   2.1289432E-04   3.0026587E+05   -1.7871575E+00
   2.1387749E-04   2.9780393E+05   -1.7865940E+00
   2.1486520E-04   2.9536295E+05   -1.7860302E+00
   2.1585747E-04   2.9294274E+05   -1.7854660E+00
   2.1685432E-04   2.9054311E+05   -1.7849014E+00
   2.1785578E-04   2.8816389E+05   -1.7843365E+00
   2.1886186E-04   2.8580490E+05   -1.7837712E+00
   2.1987259E-04   2.8346595E+05   -1.7832055E+00
   2.2088798E-04   2.8114688E+05   -1.7826395E+00
   2.2190807E-04   2.7884752E+05   -1.7820732E+00
   2.2293286E-04   2.7656767E+05   -1.7815065E+00
   2.2396239E-04   2.7430719E+05   -1.7809395E+00
   2.2499667E-04   2.7206589E+05   -1.7803722E+00
   2.2603573E-04   2.6984361E+05   -1.7798046E+00
   2.2707958E-04   2.6764018E+05   -1.7792366E+00
   2.2812826E-04   2.6545544E+05   -1.7786683E+00
   2.2918178E-04   2.6328922E+05   -1.7780998E+00
   2.3024017E-04   2.6114137E+05   -1.7775309E+00
   2.3130344E-04   2.5901171E+05   -1.7769618E+00
   2.3237162E-04   2.5690010E+05   -1.7763923E+00
   2.3344474E-04   2.5480637E+05   -1.7758226E+00
   2.3452281E-04   2.5273037E+05   -1.7752527E+00
   2.3560586E-04   2.5067194E+05   -1.7746824E+00
   2.3669392E-04   2.4863093E+05   -1.7741119E+00
   2.3778699E-04   2.4660718E+05   -1.7735412E+00
   2.3888512E-04   2.4460055E+05   -1.7729701E+00
   2.3998831E-04   2.4261089E+05   -1.7723989E+00
   2.4109661E-04   2.4063805E+05   -1.7718274E+00
   2.4221001E-04   2.3868187E+05   -1.7712557E+00
   2.4332857E-04   2.3674223E+05   -1.7706838E+00
   2.4445228E-04   2.3481896E+05   -1.7701116E+00
   2.4558119E-04   2.3291193E+05   -1.7695392E+00
   2.4671531E-04   2.3102100E+05   -1.7689667E+00
   2.4785467E-04   2.2914603E+05   -1.7683939E+00
   2.4899928E-04   2.2728687E+05   -1.7678209E+00
   2.5014919E-04   2.2544339E+05   -1.7672477E+00
   2.5130440E-04   2.2361546E+05   -1.7666744E+00
   2.5246495E-04   2.2180293E+05   -1.7661009E+00
   2.5363086E-04   2.2000568E+05   -1.7655272E+00
   2.5480216E-04   2.1822356E+05   -1.7649533E+00
   2.5597886E-04   2.1645645E+05   -1.7643793E+00
   2.5716100E-04   2.1470422E+05   -1.7638052E+00
   2.5834859E-04   2.1296674E+05   -1.7632308E+00
   2.5954168E-04   2.1124388E+05   -1.7626564E+00
   2.6074027E-04   2.0953551E+05   -1.7620818E+00
   2.6194439E-04   2.0784151E+05   -1.7615071E+00
   2.6315408E-04   2.0616175E+05   -1.7609322E+00
   2.6436935E-04   2.0449610E+05   -1.7603573E+00
   2.6559024E-04   2.0284445E+05   -1.7597822E+00
   2.6681676E-04   2.0120667E+05   -1.7592071E+00
   2.6804895E-04   1.9958265E+05   -1.7586318E+00
   2.6928683E-04   1.9797226E+05   -1.7580564E+00
   2.7053042E-04   1.9637538E+05   -1.7574810E+00
   2.7177976E-04   1.9479190E+05   -1.7569055E+00
   2.7303487E-04   1.9322170E+05   -1.7563299E+00
   2.7429577E-04   1.9166467E+05   -1.7557542E+00
   2.7556250E-04   1.9012069E+05   -1.7551785E+00
   2.7683507E-04   1.8858964E+05   -1.7546027E+00
   2.7811353E-04   1.8707142E+05   -1.7540268E+00
   2.7939788E-04   1.8556592E+05   -1.7534510E+00
   2.8068817E-04   1.8407302E+05   -1.7528751E+00
   2.8198442E-04   1.8259262E+05   -1.7522991E+00
   2.8328665E-04   1.8112460E+05   -1.7517231E+00
   2.8459490E-04   1.7966886E+05   -1.7511472E+00
   2.8590919E-04   1.7822530E+05   -1.7505712E+00
   2.8722955E-04   1.7679380E+05   -1.7499952E+00
   2.8855600E-04   1.7537426E+05   -1.7494191E+00
   2.8988859E-04   1.7396659E+05   -1.7488431E+00
   2.9122732E-04   1.7257067E+05   -1.7482672E+00
   2.9257224E-04   1.7118641E+05   -1.7476912E+00
   2.9392337E-04   1.6981370E+05   -1.7471152E+00
   2.9528074E-04   1.6845245E+05   -1.7465393E+00
   2.9664438E-04   1.6710255E+05   -1.7459634E+00
   2.9801431E-04   1.6576391E+05   -1.7453876E+00
   2.9939057E-04   1.6443643E+05   -1.7448118E+00
   3.0077319E-04   1.6312001E+05   -1.7442361E+00
   3.0216219E-04   1.6181456E+05   -1.7436604E+00
   3.0355761E-04   1.6051999E+05   -1.7430848E+00
   3.0495947E-04   1.5923619E+05   -1.7425092E+00
   3.0636780E-04   1.5796308E+05   -1.7419338E+00
   3.0778264E-04   1.5670056E+05   -1.7413584E+00
   3.0920401E-04   1.5544855E+05   -1.7407831E+00
   3.1063195E-04   1.5420695E+05   -1.7402079E+00
   3.1206648E-04   1.5297567E+05   -1.7396329E+00
   3.1350764E-04   1.5175462E+05   -1.7390579E+00
   3.1495545E-04   1.5054372E+05   -1.7384830E+00
   3.1640994E-04   1.4934288E+05   -1.7379083E+00
   3.1787116E-04   1.4815200E+05   -1.7373337E+00
   3.1933912E-04   1.4697102E+05   -1.7367592E+00
   3.2081386E-04   1.4579983E+05   -1.7361849E+00
   3.2229541E-04   1.4463836E+05   -1.7356107E+00
   3.2378381E-04   1.4348652E+05   -1.7350367E+00
   3.2527908E-04   1.4234423E+05   -1.7344628E+00
   3.2678125E-04   1.4121141E+05   -1.7338891E+00
   3.2829036E-04   1.4008797E+05   -1.7333155E+00
   3.2980644E-04   1.3897384E+05   -1.7327421E+00
   3.3132952E-04   1.3786893E+05   -1.7321690E+00
   3.3285963E-04   1.3677317E+05   -1.7315960E+00
   3.3439681E-04   1.3568647E+05   -1.7310232E+00
   3.3594109E-04   1.3460877E+05   -1.7304505E+00
   3.3749250E-04   1.3353998E+05   -1.7298781E+00
   3.3905108E-04   1.3248002E+05   -1.7293060E+00
   3.4061685E-04   1.3142882E+05   -1.7287340E+00
   3.4218986E-04   1.3038631E+05   -1.7281622E+00
   3.4377013E-04   1.2935240E+05   -1.7275907E+00
   3.4535769E-04   1.2832704E+05   -1.7270194E+00
   3.4695259E-04   1.2731013E+05   -1.7264484E+00
   3.4855485E-04   1.2630162E+05   -1.7258776E+00
   3.5016452E-04   1.2530142E+05   -1.7253070E+00
   3.5178161E-04   1.2430948E+05   -1.7247368E+00
   3.5340618E-04   1.2332570E+05   -1.7241667E+00
   3.5503824E-04   1.2235004E+05   -1.7235970E+00
   3.5667785E-04   1.2138241E+05   -1.7230275E+00
   3.5832502E-04   1.2042276E+05   -1.7224583E+00
   3.5997981E-04   1.1947100E+05   -1.7218894E+00
   3.6164223E-04   1.1852707E+05   -1.7213208E+00
   3.6331233E-04   1.1759091E+05   -1.7207525E+00
   3.6499015E-04   1.1666245E+05   -1.7201845E+00
   3.6667571E-04   1.1574163E+05   -1.7196168E+00
   3.6836906E-04   1.1482837E+05   -1.7190494E+00
   3.7007022E-04   1.1392262E+05   -1.7184824E+00
   3.7177925E-04   1.1302430E+05   -1.7179157E+00
   3.7349616E-04   1.1213336E+05   -1.7173493E+00
   3.7522101E-04   1.1124974E+05   -1.7167832E+00
   3.7695382E-04   1.1037336E+05   -1.7162175E+00
   3.7869463E-04   1.0950418E+05   -1.7156522E+00
   3.8044348E-04   1.0864212E+05   -1.7150872E+00
   3.8220041E-04   1.0778713E+05   -1.7145226E+00
   3.8396545E-04   1.0693915E+05   -1.7139583E+00
   3.8573864E-04   1.0609811E+05   -1.7133944E+00
   3.8752002E-04   1.0526396E+05   -1.7128309E+00
   3.8930963E-04   1.0443664E+05   -1.7122678E+00
   3.9110750E-04   1.0361609E+05   -1.7117050E+00
   3.9291368E-04   1.0280226E+05   -1.7111427E+00
   3.9472820E-04   1.0199508E+05   -1.7105808E+00
   3.9655109E-04   1.0119450E+05   -1.7100192E+00
   3.9838241E-04   1.0040046E+05   -1.7094581E+00
   4.0022218E-04   9.9612915E+04   -1.7088974E+00
   4.0207045E-04   9.8831800E+04   -1.7083372E+00
   4.0392725E-04   9.8057063E+04   -1.7077773E+00
   4.0579263E-04   9.7288651E+04   -1.7072179E+00
   4.0766662E-04   9.6526508E+04   -1.7066589E+00
   4.0954927E-04   9.5770583E+04   -1.7061004E+00
   4.1144061E-04   9.5020821E+04   -1.7055423E+00
   4.1334068E-04   9.4277172E+04   -1.7049847E+00
   4.1524953E-04   9.3539583E+04   -1.7044276E+00
   4.1716720E-04   9.2808003E+04   -1.7038709E+00
   4.1909372E-04   9.2082380E+04   -1.7033147E+00
   4.2102914E-04   9.1362665E+04   -1.7027589E+00
   4.2297350E-04   9.0648807E+04   -1.7022037E+00
   4.2492683E-04   8.9940756E+04   -1.7016489E+00
   4.2688919E-04   8.9238465E+04   -1.7010946E+00
   4.2886061E-04   8.8541883E+04   -1.7005408E+00
   4.3084113E-04   8.7850963E+04   -1.6999876E+00
   4.3283080E-04   8.7165656E+04   -1.6994348E+00
   4.3482966E-04   8.6485915E+04   -1.6988826E+00
   4.3683775E-04   8.5811694E+04   -1.6983308E+00
   4.3885511E-04   8.5142944E+04   -1.6977796E+00
   4.4088179E-04   8.4479621E+04   -1.6972290E+00
   4.4291783E-04   8.3821678E+04   -1.6966788E+00
   4.4496327E-04   8.3169070E+04   -1.6961292E+00
   4.4701816E-04   8.2521752E+04   -1.6955802E+00
   4.4908253E-04   8.1879679E+04   -1.6950316E+00
   4.5115644E-04   8.1242807E+04   -1.6944837E+00
   4.5323993E-04   8.0611092E+04   -1.6939363E+00
   4.5533304E-04   7.9984491E+04   -1.6933895E+00
   4.5743582E-04   7.9362960E+04   -1.6928432E+00
   4.5954830E-04   7.8746458E+04   -1.6922975E+00
   4.6167054E-04   7.8134940E+04   -1.6917524E+00
   4.6380259E-04   7.7528366E+04   -1.6912079E+00
   4.6594448E-04   7.6926694E+04   -1.6906640E+00
   4.6809626E-04   7.6329882E+04   -1.6901206E+00
   4.7025797E-04   7.5737890E+04   -1.6895779E+00
   4.7242967E-04   7.5150677E+04   -1.6890357E+00
   4.7461140E-04   7.4568203E+04   -1.6884942E+00
   4.7680321E-04   7.3990429E+04   -1.6879533E+00
   4.7900514E-04   7.3417313E+04   -1.6874130E+00
   4.8121723E-04   7.2848819E+04   -1.6868733E+00
   4.8343954E-04   7.2284906E+04   -1.6863343E+00
   4.8567212E-04   7.1725536E+04   -1.6857958E+00
   4.8791500E-04   7.1170671E+04   -1.6852580E+00
   4.9016825E-04   7.0620274E+04   -1.6847209E+00
   4.9243189E-04   7.0074307E+04   -1.6841844E+00
   4.9470600E-04   6.9532732E+04   -1.6836485E+00
   4.9699060E-04   6.8995513E+04   -1.6831133E+00
   4.9928575E-04   6.8462613E+04   -1.6825788E+00
   5.0159151E-04   6.7933996E+04   -1.6820449E+00
   5.0390791E-04   6.7409627E+04   -1.6815117E+00
   5.0623501E-04   6.6889469E+04   -1.6809792E+00
   5.0857286E-04   6.6373488E+04   -1.6804473E+00
   5.1092150E-04   6.5861648E+04   -1.6799161E+00
   5.1328099E-04   6.5353916E+04   -1.6793856E+00
   5.1565137E-04   6.4850256E+04   -1.6788558E+00
   5.1803270E-04   6.4350634E+04   -1.6783267E+00
   5.2042503E-04   6.3855018E+04   -1.6777983E+00
   5.2282841E-04   6.3363372E+04   -1.6772706E+00
   5.2524289E-04   6.2875665E+04   -1.6767436E+00
   5.2766851E-04   6.2391863E+04   -1.6762173E+00
   5.3010534E-04   6.1911933E+04   -1.6756917E+00
   5.3255342E-04   6.1435844E+04   -1.6751668E+00
   5.3501281E-04   6.0963564E+04   -1.6746427E+00
   5.3748356E-04   6.0495060E+04   -1.6741193E+00
   5.3996571E-04   6.0030301E+04   -1.6735966E+00
   5.4245933E-04   5.9569256E+04   -1.6730746E+00
   5.4496446E-04   5.9111894E+04   -1.6725534E+00
   5.4748117E-04   5.8658184E+04   -1.6720329E+00
   5.5000949E-04   5.8208096E+04   -1.6715132E+00
   5.5254949E-04   5.7761600E+04   -1.6709942E+00
   5.5510123E-04   5.7318666E+04   -1.6704760E+00
   5.5766474E-04   5.6879264E+04   -1.6699585E+00
   5.6024010E-04   5.6443365E+04   -1.6694418E+00
   5.6282734E-04   5.6010940E+04   -1.6689259E+00
   5.6542654E-04   5.5581960E+04   -1.6684107E+00
   5.6803774E-04   5.5156396E+04   -1.6678963E+00
   5.7066099E-04   5.4734220E+04   -1.6673827E+00
   5.7329637E-04   5.4315403E+04   -1.6668699E+00
   5.7594391E-04   5.3899919E+04   -1.6663578E+00
   5.7860368E-04   5.3487740E+04   -1.6658465E+00
   5.8127573E-04   5.3078837E+04   -1.6653361E+00
   5.8396012E-04   5.2673184E+04   -1.6648264E+00
   5.8665691E-04   5.2270753E+04   -1.6643175E+00
   5.8936616E-04   5.1871519E+04   -1.6638094E+00
   5.9208791E-04   5.1475455E+04   -1.6633021E+00
   5.9482223E-04   5.1082534E+04   -1.6627957E+00
   5.9756919E-04   5.0692730E+04   -1.6622900E+00
   6.0032882E-04   5.0306018E+04   -1.6617852E+00
   6.0310120E-04   4.9922372E+04   -1.6612811E+00
   6.0588639E-04   4.9541767E+04   -1.6607779E+00
   6.0868443E-04   4.9164178E+04   -1.6602756E+00
   6.1149540E-04   4.8789579E+04   -1.6597740E+00
   6.1431935E-04   4.8417946E+04   -1.6592733E+00
   6.1715634E-04   4.8049255E+04   -1.6587734E+00
   6.2000644E-04   4.7683481E+04   -1.6582744E+00
   6.2286969E-04   4.7320600E+04   -1.6577762E+00
