#        a       HoverH0(a)       dlogHdloga_of_a(a)
   1.0000000E-04   1.1607007E+06   -1.9051821E+00
   1.0046181E-04   1.1505575E+06   -1.9048276E+00
   1.0092575E-04   1.1405048E+06   -1.9044720E+00
   1.0139184E-04   1.1305418E+06   -1.9041155E+00
   1.0186008E-04   1.1206677E+06   -1.9037579E+00
   1.0233048E-04   1.1108817E+06   -1.9033993E+00
   1.0280305E-04   1.1011829E+06   -1.9030396E+00
   1.0327781E-04   1.0915706E+06   -1.9026790E+00
   1.0375475E-04   1.0820440E+06   -1.9023174E+00
   1.0423390E-04   1.0726024E+06   -1.9019547E+00
   1.0471527E-04   1.0632449E+06   -1.9015910E+00
   1.0519885E-04   1.0539708E+06   -1.9012263E+00
   1.0568467E-04   1.0447794E+06   -1.9008606E+00
   1.0617274E-04   1.0356699E+06   -1.9004939E+00
   1.0666305E-04   1.0266415E+06   -1.9001261E+00
   1.0715563E-04   1.0176936E+06   -1.8997573E+00
   1.0765049E-04   1.0088254E+06   -1.8993875E+00
   1.0814763E-04   1.0000361E+06   -1.8990167E+00
   1.0864707E-04   9.9132516E+05   -1.8986449E+00
   1.0914881E-04   9.8269176E+05   -1.8982720E+00
   1.0965287E-04   9.7413522E+05   -1.8978982E+00
   1.1015926E-04   9.6565485E+05   -1.8975233E+00
   1.1066799E-04   9.5724996E+05   -1.8971473E+00
   1.1117906E-04   9.4891987E+05   -1.8967704E+00
   1.1169250E-04   9.4066390E+05   -1.8963924E+00
   1.1220831E-04   9.3248139E+05   -1.8960135E+00
   1.1272650E-04   9.2437168E+05   -1.8956335E+00
   1.1324708E-04   9.1633410E+05   -1.8952524E+00
   1.1377007E-04   9.0836801E+05   -1.8948704E+00
   1.1429547E-04   9.0047275E+05   -1.8944873E+00
   1.1482330E-04   8.9264770E+05   -1.8941032E+00
   1.1535356E-04   8.8489222E+05   -1.8937181E+00
   1.1588628E-04   8.7720567E+05   -1.8933320E+00
   1.1642145E-04   8.6958744E+05   -1.8929449E+00
   1.1695910E-04   8.6203692E+05   -1.8925567E+00
   1.1749923E-04   8.5455348E+05   -1.8921675E+00
   1.1804185E-04   8.4713653E+05   -1.8917773E+00
   1.1858698E-04   8.3978546E+05   -1.8913860E+00
   1.1913463E-04   8.3249969E+05   -1.8909938E+00
   1.1968481E-04   8.2527862E+05   -1.8906005E+00
   1.2023752E-04   8.1812167E+05   -1.8902062E+00
   1.2079279E-04   8.1102826E+05   -1.8898109E+00
   1.2135063E-04   8.0399782E+05   -1.8894145E+00
   1.2191104E-04   7.9702978E+05   -1.8890172E+00
   1.2247403E-04   7.9012358E+05   -1.8886188E+00
   1.2303963E-04   7.8327866E+05   -1.8882194E+00
   1.2360784E-04   7.7649447E+05   -1.8878190E+00
   1.2417868E-04   7.6977047E+05   -1.8874176E+00
   1.2475215E-04   7.6310610E+05   -1.8870151E+00
   1.2532826E-04   7.5650083E+05   -1.8866116E+00
   1.2590704E-04   7.4995413E+05   -1.8862071E+00
   1.2648850E-04   7.4346547E+05   -1.8858016E+00
   1.2707263E-04   7.3703434E+05   -1.8853951E+00
   1.2765947E-04   7.3066020E+05   -1.8849876E+00
   1.2824901E-04   7.2434255E+05   -1.8845790E+00
   1.2884128E-04   7.1808089E+05   -1.8841695E+00
   1.2943628E-04   7.1187469E+05   -1.8837589E+00
   1.3003403E-04   7.0572348E+05   -1.8833473E+00
   1.3063454E-04   6.9962674E+05   -1.8829347E+00
   1.3123783E-04   6.9358399E+05   -1.8825210E+00
   1.3184390E-04   6.8759474E+05   -1.8821064E+00
   1.3245277E-04   6.8165852E+05   -1.8816908E+00
   1.3306445E-04   6.7577484E+05   -1.8812741E+00
   1.3367895E-04   6.6994324E+05   -1.8808565E+00
   1.3429630E-04   6.6416323E+05   -1.8804378E+00
   1.3491649E-04   6.5843437E+05   -1.8800181E+00
   1.3553955E-04   6.5275619E+05   -1.8795974E+00
   1.3616548E-04   6.4712823E+05   -1.8791757E+00
   1.3679431E-04   6.4155004E+05   -1.8787530E+00
   1.3742604E-04   6.3602117E+05   -1.8783293E+00
   1.3806069E-04   6.3054119E+05   -1.8779046E+00
   1.3869827E-04   6.2510964E+05   -1.8774789E+00
   1.3933879E-04   6.1972610E+05   -1.8770522E+00
   1.3998227E-04   6.1439014E+05   -1.8766245E+00
   1.4062872E-04   6.0910131E+05   -1.8761958E+00
   1.4127816E-04   6.0385921E+05   -1.8757661E+00
   1.4193060E-04   5.9866342E+05   -1.8753354E+00
   1.4258605E-04   5.9351350E+05   -1.8749037E+00
   1.4324453E-04   5.8840906E+05   -1.8744710E+00
   1.4390605E-04   5.8334969E+05   -1.8740373E+00
   1.4457062E-04   5.7833497E+05   -1.8736026E+00
   1.4523826E-04   5.7336451E+05   -1.8731669E+00
   1.4590899E-04   5.6843792E+05   -1.8727302E+00
   1.4658281E-04   5.6355479E+05   -1.8722926E+00
   1.4725974E-04   5.5871473E+05   -1.8718539E+00
   1.4793981E-04   5.5391737E+05   -1.8714143E+00
   1.4862301E-04   5.4916231E+05   -1.8709737E+00
   1.4930936E-04   5.4444918E+05   -1.8705321E+00
   1.4999889E-04   5.3977759E+05   -1.8700895E+00
   1.5069160E-04   5.3514719E+05   -1.8696460E+00
   1.5138751E-04   5.3055758E+05   -1.8692014E+00
   1.5208663E-04   5.2600842E+05   -1.8687559E+00
   1.5278899E-04   5.2149934E+05   -1.8683094E+00
   1.5349458E-04   5.1702998E+05   -1.8678619E+00
   1.5420343E-04   5.1259998E+05   -1.8674135E+00
   1.5491556E-04   5.0820898E+05   -1.8669641E+00
   1.5563098E-04   5.0385665E+05   -1.8665137E+00
   1.5634970E-04   4.9954262E+05   -1.8660623E+00
   1.5707174E-04   4.9526656E+05   -1.8656100E+00
   1.5779711E-04   4.9102813E+05   -1.8651567E+00
   1.5852584E-04   4.8682699E+05   -1.8647025E+00
   1.5925792E-04   4.8266281E+05   -1.8642473E+00
   1.5999339E-04   4.7853525E+05   -1.8637911E+00
   1.6073226E-04   4.7444398E+05   -1.8633340E+00
   1.6147454E-04   4.7038868E+05   -1.8628759E+00
   1.6222024E-04   4.6636904E+05   -1.8624169E+00
   1.6296939E-04   4.6238472E+05   -1.8619569E+00
   1.6372200E-04   4.5843541E+05   -1.8614959E+00
   1.6447809E-04   4.5452080E+05   -1.8610340E+00
   1.6523767E-04   4.5064058E+05   -1.8605712E+00
   1.6600075E-04   4.4679444E+05   -1.8601074E+00
   1.6676736E-04   4.4298207E+05   -1.8596427E+00
   1.6753751E-04   4.3920317E+05   -1.8591770E+00
   1.6831122E-04   4.3545745E+05   -1.8587104E+00
   1.6908849E-04   4.3174459E+05   -1.8582429E+00
   1.6986936E-04   4.2806432E+05   -1.8577744E+00
   1.7065384E-04   4.2441634E+05   -1.8573050E+00
   1.7144193E-04   4.2080035E+05   -1.8568347E+00
   1.7223367E-04   4.1721608E+05   -1.8563634E+00
   1.7302906E-04   4.1366324E+05   -1.8558913E+00
   1.7382813E-04   4.1014154E+05   -1.8554182E+00
   1.7463089E-04   4.0665072E+05   -1.8549441E+00
   1.7543735E-04   4.0319048E+05   -1.8544692E+00
   1.7624754E-04   3.9976057E+05   -1.8539933E+00
   1.7706147E-04   3.9636070E+05   -1.8535165E+00
   1.7787916E-04   3.9299062E+05   -1.8530389E+00
   1.7870062E-04   3.8965004E+05   -1.8525603E+00
   1.7952588E-04   3.8633872E+05   -1.8520808E+00
   1.8035495E-04   3.8305638E+05   -1.8516004E+00
   1.8118785E-04   3.7980277E+05   -1.8511191E+00
   1.8202459E-04   3.7657763E+05   -1.8506369E+00
   1.8286520E-04   3.7338071E+05   -1.8501538E+00
   1.8370969E-04   3.7021175E+05   -1.8496698E+00
   1.8455808E-04   3.6707051E+05   -1.8491849E+00
   1.8541039E-04   3.6395674E+05   -1.8486991E+00
   1.8626663E-04   3.6087019E+05   -1.8482125E+00
   1.8712683E-04   3.5781061E+05   -1.8477249E+00
   1.8799100E-04   3.5477778E+05   -1.8472365E+00
   1.8885917E-04   3.5177144E+05   -1.8467472E+00
   1.8973134E-04   3.4879137E+05   -1.8462571E+00
   1.9060754E-04   3.4583732E+05   -1.8457660E+00
   1.9148778E-04   3.4290907E+05   -1.8452741E+00
   1.9237209E-04   3.4000638E+05   -1.8447814E+00
   1.9326049E-04   3.3712903E+05   -1.8442878E+00
   1.9415299E-04   3.3427679E+05   -1.8437933E+00
   1.9504960E-04   3.3144944E+05   -1.8432979E+00
   1.9595036E-04   3.2864675E+05   -1.8428017E+00
   1.9685528E-04   3.2586851E+05   -1.8423047E+00
   1.9776438E-04   3.2311450E+05   -1.8418068E+00
   1.9867768E-04   3.2038449E+05   -1.8413081E+00
   1.9959519E-04   3.1767828E+05   -1.8408085E+00
   2.0051694E-04   3.1499566E+05   -1.8403081E+00
   2.0144295E-04   3.1233641E+05   -1.8398068E+00
   2.0237324E-04   3.0970032E+05   -1.8393047E+00
   2.0330782E-04   3.0708720E+05   -1.8388018E+00
   2.0424671E-04   3.0449683E+05   -1.8382981E+00
   2.0518995E-04   3.0192901E+05   -1.8377936E+00
   2.0613754E-04   2.9938354E+05   -1.8372882E+00
   2.0708950E-04   2.9686023E+05   -1.8367820E+00
   2.0804586E-04   2.9435886E+05   -1.8362750E+00
   2.0900664E-04   2.9187926E+05   -1.8357672E+00
   2.0997185E-04   2.8942123E+05   -1.8352586E+00
   2.1094152E-04   2.8698456E+05   -1.8347492E+00
   2.1191567E-04   2.8456908E+05   -1.8342390E+00
   2.1289432E-04   2.8217459E+05   -1.8337280E+00
   2.1387749E-04   2.7980091E+05   -1.8332162E+00
   2.1486520E-04   2.7744786E+05   -1.8327037E+00
   2.1585747E-04   2.7511524E+05   -1.8321903E+00
   2.1685432E-04   2.7280288E+05   -1.8316762E+00
   2.1785578E-04   2.7051059E+05   -1.8311613E+00
   2.1886186E-04   2.6823821E+05   -1.8306456E+00
   2.1987259E-04   2.6598554E+05   -1.8301292E+00
   2.2088798E-04   2.6375243E+05   -1.8296120E+00
   2.2190807E-04   2.6153868E+05   -1.8290940E+00
   2.2293286E-04   2.5934413E+05   -1.8285753E+00
   2.2396239E-04   2.5716862E+05   -1.8280558E+00
   2.2499667E-04   2.5501196E+05   -1.8275356E+00
   2.2603573E-04   2.5287399E+05   -1.8270146E+00
   2.2707958E-04   2.5075456E+05   -1.8264929E+00
   2.2812826E-04   2.4865348E+05   -1.8259705E+00
   2.2918178E-04   2.4657060E+05   -1.8254473E+00
   2.3024017E-04   2.4450576E+05   -1.8249234E+00
   2.3130344E-04   2.4245880E+05   -1.8243987E+00
   2.3237162E-04   2.4042956E+05   -1.8238734E+00
   2.3344474E-04   2.3841787E+05   -1.8233473E+00
   2.3452281E-04   2.3642360E+05   -1.8228205E+00
   2.3560586E-04   2.3444657E+05   -1.8222931E+00
   2.3669392E-04   2.3248664E+05   -1.8217649E+00
   2.3778699E-04   2.3054366E+05   -1.8212360E+00
   2.3888512E-04   2.2861747E+05   -1.8207064E+00
   2.3998831E-04   2.2670793E+05   -1.8201761E+00
   2.4109661E-04   2.2481489E+05   -1.8196452E+00
   2.4221001E-04   2.2293820E+05   -1.8191135E+00
   2.4332857E-04   2.2107772E+05   -1.8185812E+00
   2.4445228E-04   2.1923330E+05   -1.8180482E+00
   2.4558119E-04   2.1740481E+05   -1.8175145E+00
   2.4671531E-04   2.1559209E+05   -1.8169802E+00
   2.4785467E-04   2.1379502E+05   -1.8164452E+00
   2.4899928E-04   2.1201345E+05   -1.8159096E+00
   2.5014919E-04   2.1024725E+05   -1.8153733E+00
   2.5130440E-04   2.0849627E+05   -1.8148363E+00
   2.5246495E-04   2.0676039E+05   -1.8142987E+00
   2.5363086E-04   2.0503947E+05   -1.8137605E+00
   2.5480216E-04   2.0333338E+05   -1.8132216E+00
   2.5597886E-04   2.0164198E+05   -1.8126821E+00
   2.5716100E-04   1.9996515E+05   -1.8121420E+00
   2.5834859E-04   1.9830276E+05   -1.8116013E+00
   2.5954168E-04   1.9665468E+05   -1.8110600E+00
   2.6074027E-04   1.9502078E+05   -1.8105180E+00
   2.6194439E-04   1.9340094E+05   -1.8099754E+00
   2.6315408E-04   1.9179504E+05   -1.8094323E+00
   2.6436935E-04   1.9020295E+05   -1.8088885E+00
   2.6559024E-04   1.8862454E+05   -1.8083442E+00
   2.6681676E-04   1.8705971E+05   -1.8077992E+00
   2.6804895E-04   1.8550832E+05   -1.8072537E+00
   2.6928683E-04   1.8397026E+05   -1.8067076E+00
   2.7053042E-04   1.8244541E+05   -1.8061609E+00
   2.7177976E-04   1.8093366E+05   -1.8056137E+00
   2.7303487E-04   1.7943488E+05   -1.8050659E+00
   2.7429577E-04   1.7794897E+05   -1.8045176E+00
   2.7556250E-04   1.7647581E+05   -1.8039687E+00
   2.7683507E-04   1.7501529E+05   -1.8034192E+00
   2.7811353E-04   1.7356730E+05   -1.8028692E+00
   2.7939788E-04   1.7213172E+05   -1.8023187E+00
   2.8068817E-04   1.7070845E+05   -1.8017676E+00
   2.8198442E-04   1.6929738E+05   -1.8012160E+00
   2.8328665E-04   1.6789840E+05   -1.8006639E+00
   2.8459490E-04   1.6651140E+05   -1.8001113E+00
   2.8590919E-04   1.6513629E+05   -1.7995582E+00
   2.8722955E-04   1.6377294E+05   -1.7990045E+00
   2.8855600E-04   1.6242127E+05   -1.7984504E+00
   2.8988859E-04   1.6108116E+05   -1.7978958E+00
   2.9122732E-04   1.5975252E+05   -1.7973406E+00
   2.9257224E-04   1.5843524E+05   -1.7967850E+00
   2.9392337E-04   1.5712923E+05   -1.7962289E+00
   2.9528074E-04   1.5583438E+05   -1.7956723E+00
   2.9664438E-04   1.5455060E+05   -1.7951153E+00
   2.9801431E-04   1.5327779E+05   -1.7945578E+00
   2.9939057E-04   1.5201585E+05   -1.7939998E+00
   3.0077319E-04   1.5076469E+05   -1.7934414E+00
   3.0216219E-04   1.4952421E+05   -1.7928826E+00
   3.0355761E-04   1.4829432E+05   -1.7923233E+00
   3.0495947E-04   1.4707493E+05   -1.7917635E+00
   3.0636780E-04   1.4586594E+05   -1.7912033E+00
   3.0778264E-04   1.4466726E+05   -1.7906427E+00
   3.0920401E-04   1.4347880E+05   -1.7900817E+00
   3.1063195E-04   1.4230047E+05   -1.7895203E+00
   3.1206648E-04   1.4113219E+05   -1.7889584E+00
   3.1350764E-04   1.3997385E+05   -1.7883962E+00
   3.1495545E-04   1.3882539E+05   -1.7878335E+00
   3.1640994E-04   1.3768671E+05   -1.7872705E+00
   3.1787116E-04   1.3655772E+05   -1.7867071E+00
   3.1933912E-04   1.3543834E+05   -1.7861433E+00
   3.2081386E-04   1.3432848E+05   -1.7855791E+00
   3.2229541E-04   1.3322807E+05   -1.7850145E+00
   3.2378381E-04   1.3213701E+05   -1.7844496E+00
   3.2527908E-04   1.3105523E+05   -1.7838843E+00
   3.2678125E-04   1.2998264E+05   -1.7833187E+00
   3.2829036E-04   1.2891917E+05   -1.7827527E+00
   3.2980644E-04   1.2786474E+05   -1.7821863E+00
   3.3132952E-04   1.2681925E+05   -1.7816197E+00
   3.3285963E-04   1.2578265E+05   -1.7810527E+00
   3.3439681E-04   1.2475485E+05   -1.7804854E+00
   3.3594109E-04   1.2373576E+05   -1.7799177E+00
   3.3749250E-04   1.2272532E+05   -1.7793498E+00
   3.3905108E-04   1.2172346E+05   -1.7787815E+00
   3.4061685E-04   1.2073008E+05   -1.7782129E+00
   3.4218986E-04   1.1974513E+05   -1.7776441E+00
   3.4377013E-04   1.1876853E+05   -1.7770749E+00
   3.4535769E-04   1.1780020E+05   -1.7765055E+00
   3.4695259E-04   1.1684007E+05   -1.7759358E+00
   3.4855485E-04   1.1588807E+05   -1.7753658E+00
   3.5016452E-04   1.1494413E+05   -1.7747955E+00
   3.5178161E-04   1.1400817E+05   -1.7742250E+00
   3.5340618E-04   1.1308014E+05   -1.7736542E+00
   3.5503824E-04   1.1215995E+05   -1.7730832E+00
   3.5667785E-04   1.1124755E+05   -1.7725119E+00
   3.5832502E-04   1.1034286E+05   -1.7719404E+00
   3.5997981E-04   1.0944581E+05   -1.7713687E+00
   3.6164223E-04   1.0855634E+05   -1.7707967E+00
   3.6331233E-04   1.0767439E+05   -1.7702245E+00
   3.6499015E-04   1.0679988E+05   -1.7696521E+00
   3.6667571E-04   1.0593275E+05   -1.7690795E+00
   3.6836906E-04   1.0507295E+05   -1.7685067E+00
   3.7007022E-04   1.0422039E+05   -1.7679337E+00
   3.7177925E-04   1.0337503E+05   -1.7673605E+00
   3.7349616E-04   1.0253679E+05   -1.7667871E+00
   3.7522101E-04   1.0170562E+05   -1.7662136E+00
   3.7695382E-04   1.0088145E+05   -1.7656399E+00
   3.7869463E-04   1.0006423E+05   -1.7650660E+00
   3.8044348E-04   9.9253890E+04   -1.7644919E+00
   3.8220041E-04   9.8450372E+04   -1.7639177E+00
   3.8396545E-04   9.7653618E+04   -1.7633433E+00
   3.8573864E-04   9.6863568E+04   -1.7627688E+00
   3.8752002E-04   9.6080164E+04   -1.7621942E+00
   3.8930963E-04   9.5303348E+04   -1.7616194E+00
   3.9110750E-04   9.4533063E+04   -1.7610445E+00
   3.9291368E-04   9.3769253E+04   -1.7604695E+00
   3.9472820E-04   9.3011860E+04   -1.7598944E+00
   3.9655109E-04   9.2260830E+04   -1.7593192E+00
   3.9838241E-04   9.1516106E+04   -1.7587438E+00
   4.0022218E-04   9.0777634E+04   -1.7581684E+00
   4.0207045E-04   9.0045361E+04   -1.7575929E+00
   4.0392725E-04   8.9319231E+04   -1.7570173E+00
   4.0579263E-04   8.8599191E+04   -1.7564416E+00
   4.0766662E-04   8.7885190E+04   -1.7558659E+00
   4.0954927E-04   8.7177173E+04   -1.7552901E+00
   4.1144061E-04   8.6475090E+04   -1.7547142E+00
   4.1334068E-04   8.5778888E+04   -1.7541383E+00
   4.1524953E-04   8.5088518E+04   -1.7535624E+00
   4.1716720E-04   8.4403927E+04   -1.7529864E+00
   4.1909372E-04   8.3725067E+04   -1.7524104E+00
   4.2102914E-04   8.3051887E+04   -1.7518343E+00
   4.2297350E-04   8.2384339E+04   -1.7512582E+00
   4.2492683E-04   8.1722373E+04   -1.7506822E+00
   4.2688919E-04   8.1065941E+04   -1.7501061E+00
   4.2886061E-04   8.0414996E+04   -1.7495300E+00
   4.3084113E-04   7.9769489E+04   -1.7489539E+00
   4.3283080E-04   7.9129374E+04   -1.7483778E+00
   4.3482966E-04   7.8494604E+04   -1.7478017E+00
   4.3683775E-04   7.7865132E+04   -1.7472257E+00
   4.3885511E-04   7.7240914E+04   -1.7466497E+00
   4.4088179E-04   7.6621903E+04   -1.7460737E+00
   4.4291783E-04   7.6008054E+04   -1.7454977E+00
   4.4496327E-04   7.5399323E+04   -1.7449218E+00
   4.4701816E-04   7.4795666E+04   -1.7443460E+00
   4.4908253E-04   7.4197039E+04   -1.7437702E+00
   4.5115644E-04   7.3603398E+04   -1.7431945E+00
   4.5323993E-04   7.3014700E+04   -1.7426188E+00
   4.5533304E-04   7.2430903E+04   -1.7420433E+00
   4.5743582E-04   7.1851965E+04   -1.7414678E+00
   4.5954830E-04   7.1277843E+04   -1.7408924E+00
   4.6167054E-04   7.0708495E+04   -1.7403171E+00
   4.6380259E-04   7.0143882E+04   -1.7397419E+00
   4.6594448E-04   6.9583961E+04   -1.7391668E+00
   4.6809626E-04   6.9028693E+04   -1.7385918E+00
   4.7025797E-04   6.8478037E+04   -1.7380169E+00
   4.7242967E-04   6.7931953E+04   -1.7374422E+00
   4.7461140E-04   6.7390403E+04   -1.7368676E+00
   4.7680321E-04   6.6853347E+04   -1.7362931E+00
   4.7900514E-04   6.6320747E+04   -1.7357188E+00
   4.8121723E-04   6.5792563E+04   -1.7351446E+00
   4.8343954E-04   6.5268759E+04   -1.7345706E+00
   4.8567212E-04   6.4749297E+04   -1.7339968E+00
   4.8791500E-04   6.4234138E+04   -1.7334231E+00
   4.9016825E-04   6.3723247E+04   -1.7328496E+00
   4.9243189E-04   6.3216586E+04   -1.7322762E+00
   4.9470600E-04   6.2714119E+04   -1.7317031E+00
   4.9699060E-04   6.2215810E+04   -1.7311301E+00
   4.9928575E-04   6.1721623E+04   -1.7305574E+00
   5.0159151E-04   6.1231523E+04   -1.7299848E+00
   5.0390791E-04   6.0745476E+04   -1.7294125E+00
   5.0623501E-04   6.0263445E+04   -1.7288404E+00
   5.0857286E-04   5.9785397E+04   -1.7282685E+00
   5.1092150E-04   5.9311297E+04   -1.7276968E+00
   5.1328099E-04   5.8841112E+04   -1.7271253E+00
   5.1565137E-04   5.8374808E+04   -1.7265541E+00
   5.1803270E-04   5.7912352E+04   -1.7259832E+00
   5.2042503E-04   5.7453710E+04   -1.7254125E+00
   5.2282841E-04   5.6998851E+04   -1.7248420E+00
   5.2524289E-04   5.6547741E+04   -1.7242718E+00
   5.2766851E-04   5.6100349E+04   -1.7237019E+00
   5.3010534E-04   5.5656642E+04   -1.7231323E+00
   5.3255342E-04   5.5216590E+04   -1.7225629E+00
   5.3501281E-04   5.4780161E+04   -1.7219938E+00
   5.3748356E-04   5.4347324E+04   -1.7214250E+00
   5.3996571E-04   5.3918048E+04   -1.7208565E+00
   5.4245933E-04   5.3492302E+04   -1.7202884E+00
   5.4496446E-04   5.3070058E+04   -1.7197205E+00
   5.4748117E-04   5.2651284E+04   -1.7191529E+00
   5.5000949E-04   5.2235952E+04   -1.7185857E+00
   5.5254949E-04   5.1824031E+04   -1.7180188E+00
   5.5510123E-04   5.1415492E+04   -1.7174522E+00
   5.5766474E-04   5.1010308E+04   -1.7168860E+00
   5.6024010E-04   5.0608448E+04   -1.7163201E+00
   5.6282734E-04   5.0209885E+04   -1.7157545E+00
   5.6542654E-04   4.9814591E+04   -1.7151893E+00
   5.6803774E-04   4.9422537E+04   -1.7146245E+00
   5.7066099E-04   4.9033697E+04   -1.7140600E+00
   5.7329637E-04   4.8648042E+04   -1.7134959E+00
   5.7594391E-04   4.8265546E+04   -1.7129322E+00
   5.7860368E-04   4.7886182E+04   -1.7123689E+00
   5.8127573E-04   4.7509923E+04   -1.7118059E+00
   5.8396012E-04   4.7136742E+04   -1.7112434E+00
   5.8665691E-04   4.6766614E+04   -1.7106812E+00
   5.8936616E-04   4.6399512E+04   -1.7101195E+00
   5.9208791E-04   4.6035411E+04   -1.7095582E+00
   5.9482223E-04   4.5674285E+04   -1.7089973E+00
   5.9756919E-04   4.5316109E+04   -1.7084368E+00
   6.0032882E-04   4.4960858E+04   -1.7078767E+00
   6.0310120E-04   4.4608507E+04   -1.7073171E+00
   6.0588639E-04   4.4259032E+04   -1.7067579E+00
   6.0868443E-04   4.3912407E+04   -1.7061991E+00
   6.1149540E-04   4.3568609E+04   -1.7056408E+00
   6.1431935E-04   4.3227614E+04   -1.7050830E+00
   6.1715634E-04   4.2889398E+04   -1.7045256E+00
   6.2000644E-04   4.2553938E+04   -1.7039687E+00
   6.2286969E-04   4.2221210E+04   -1.7034122E+00
