#        a       HoverH0(a)       dlogHdloga_of_a(a)
   1.0000000E-04   1.0813357E+06   -1.8519267E+00
   1.0046181E-04   1.0721494E+06   -1.8514460E+00
   1.0092575E-04   1.0630435E+06   -1.8509644E+00
   1.0139184E-04   1.0540173E+06   -1.8504820E+00
   1.0186008E-04   1.0450701E+06   -1.8499986E+00
   1.0233048E-04   1.0362011E+06   -1.8495144E+00
   1.0280305E-04   1.0274097E+06   -1.8490292E+00
   1.0327781E-04   1.0186952E+06   -1.8485432E+00
   1.0375475E-04   1.0100568E+06   -1.8480563E+00
   1.0423390E-04   1.0014939E+06   -1.8475685E+00
   1.0471527E-04   9.9300588E+05   -1.8470799E+00
   1.0519885E-04   9.8459200E+05   -1.8465903E+00
   1.0568467E-04   9.7625161E+05   -1.8460999E+00
   1.0617274E-04   9.6798406E+05   -1.8456086E+00
   1.0666305E-04   9.5978870E+05   -1.8451165E+00
   1.0715563E-04   9.5166489E+05   -1.8446235E+00
   1.0765049E-04   9.4361199E+05   -1.8441296E+00
   1.0814763E-04   9.3562936E+05   -1.8436349E+00
   1.0864707E-04   9.2771638E+05   -1.8431393E+00
   1.0914881E-04   9.1987242E+05   -1.8426429E+00
   1.0965287E-04   9.1209687E+05   -1.8421456E+00
   1.1015926E-04   9.0438912E+05   -1.8416474E+00
   1.1066799E-04   8.9674857E+05   -1.8411485E+00
   1.1117906E-04   8.8917461E+05   -1.8406487E+00
   1.1169250E-04   8.8166665E+05   -1.8401480E+00
   1.1220831E-04   8.7422411E+05   -1.8396465E+00
   1.1272650E-04   8.6684639E+05   -1.8391442E+00
   1.1324708E-04   8.5953293E+05   -1.8386411E+00
   1.1377007E-04   8.5228315E+05   -1.8381371E+00
   1.1429547E-04   8.4509649E+05   -1.8376324E+00
   1.1482330E-04   8.3797237E+05   -1.8371268E+00
   1.1535356E-04   8.3091025E+05   -1.8366204E+00
   1.1588628E-04   8.2390956E+05   -1.8361131E+00
   1.1642145E-04   8.1696978E+05   -1.8356051E+00
   1.1695910E-04   8.1009034E+05   -1.8350963E+00
   1.1749923E-04   8.0327071E+05   -1.8345867E+00
   1.1804185E-04   7.9651037E+05   -1.8340763E+00
   1.1858698E-04   7.8980878E+05   -1.8335651E+00
   1.1913463E-04   7.8316542E+05   -1.8330531E+00
   1.1968481E-04   7.7657978E+05   -1.8325403E+00
   1.2023752E-04   7.7005133E+05   -1.8320267E+00
   1.2079279E-04   7.6357958E+05   -1.8315124E+00
   1.2135063E-04   7.5716401E+05   -1.8309973E+00
   1.2191104E-04   7.5080413E+05   -1.8304814E+00
   1.2247403E-04   7.4449944E+05   -1.8299647E+00
   1.2303963E-04   7.3824945E+05   -1.8294473E+00
   1.2360784E-04   7.3205368E+05   -1.8289292E+00
   1.2417868E-04   7.2591164E+05   -1.8284103E+00
   1.2475215E-04   7.1982285E+05   -1.8278906E+00
   1.2532826E-04   7.1378684E+05   -1.8273702E+00
   1.2590704E-04   7.0780315E+05   -1.8268490E+00
   1.2648850E-04   7.0187131E+05   -1.8263271E+00
   1.2707263E-04   6.9599085E+05   -1.8258045E+00
   1.2765947E-04   6.9016132E+05   -1.8252811E+00
   1.2824901E-04   6.8438227E+05   -1.8247570E+00
   1.2884128E-04   6.7865326E+05   -1.8242322E+00
   1.2943628E-04   6.7297383E+05   -1.8237067E+00
   1.3003403E-04   6.6734354E+05   -1.8231804E+00
   1.3063454E-04   6.6176197E+05   -1.8226534E+00
   1.3123783E-04   6.5622868E+05   -1.8221258E+00
   1.3184390E-04   6.5074323E+05   -1.8215974E+00
   1.3245277E-04   6.4530521E+05   -1.8210684E+00
   1.3306445E-04   6.3991419E+05   -1.8205386E+00
   1.3367895E-04   6.3456976E+05   -1.8200081E+00
   1.3429630E-04   6.2927150E+05   -1.8194770E+00
   1.3491649E-04   6.2401901E+05   -1.8189452E+00
   1.3553955E-04   6.1881188E+05   -1.8184127E+00
   1.3616548E-04   6.1364971E+05   -1.8178795E+00
   1.3679431E-04   6.0853210E+05   -1.8173457E+00
   1.3742604E-04   6.0345865E+05   -1.8168112E+00
   1.3806069E-04   5.9842897E+05   -1.8162761E+00
   1.3869827E-04   5.9344268E+05   -1.8157403E+00
   1.3933879E-04   5.8849939E+05   -1.8152038E+00
   1.3998227E-04   5.8359872E+05   -1.8146667E+00
   1.4062872E-04   5.7874029E+05   -1.8141290E+00
   1.4127816E-04   5.7392374E+05   -1.8135906E+00
   1.4193060E-04   5.6914868E+05   -1.8130516E+00
   1.4258605E-04   5.6441475E+05   -1.8125119E+00
   1.4324453E-04   5.5972158E+05   -1.8119717E+00
   1.4390605E-04   5.5506883E+05   -1.8114308E+00
   1.4457062E-04   5.5045612E+05   -1.8108893E+00
   1.4523826E-04   5.4588311E+05   -1.8103472E+00
   1.4590899E-04   5.4134945E+05   -1.8098045E+00
   1.4658281E-04   5.3685478E+05   -1.8092612E+00
   1.4725974E-04   5.3239876E+05   -1.8087173E+00
   1.4793981E-04   5.2798105E+05   -1.8081729E+00
   1.4862301E-04   5.2360131E+05   -1.8076278E+00
   1.4930936E-04   5.1925921E+05   -1.8070821E+00
   1.4999889E-04   5.1495441E+05   -1.8065359E+00
   1.5069160E-04   5.1068658E+05   -1.8059891E+00
   1.5138751E-04   5.0645540E+05   -1.8054418E+00
   1.5208663E-04   5.0226055E+05   -1.8048939E+00
   1.5278899E-04   4.9810170E+05   -1.8043454E+00
   1.5349458E-04   4.9397853E+05   -1.8037964E+00
   1.5420343E-04   4.8989074E+05   -1.8032468E+00
   1.5491556E-04   4.8583800E+05   -1.8026967E+00
   1.5563098E-04   4.8182001E+05   -1.8021461E+00
   1.5634970E-04   4.7783647E+05   -1.8015949E+00
   1.5707174E-04   4.7388706E+05   -1.8010432E+00
   1.5779711E-04   4.6997149E+05   -1.8004910E+00
   1.5852584E-04   4.6608946E+05   -1.7999383E+00
   1.5925792E-04   4.6224068E+05   -1.7993851E+00
   1.5999339E-04   4.5842484E+05   -1.7988313E+00
   1.6073226E-04   4.5464167E+05   -1.7982771E+00
   1.6147454E-04   4.5089087E+05   -1.7977223E+00
   1.6222024E-04   4.4717215E+05   -1.7971671E+00
   1.6296939E-04   4.4348524E+05   -1.7966114E+00
   1.6372200E-04   4.3982986E+05   -1.7960552E+00
   1.6447809E-04   4.3620572E+05   -1.7954986E+00
   1.6523767E-04   4.3261256E+05   -1.7949415E+00
   1.6600075E-04   4.2905010E+05   -1.7943839E+00
   1.6676736E-04   4.2551806E+05   -1.7938259E+00
   1.6753751E-04   4.2201619E+05   -1.7932674E+00
   1.6831122E-04   4.1854421E+05   -1.7927084E+00
   1.6908849E-04   4.1510187E+05   -1.7921491E+00
   1.6986936E-04   4.1168890E+05   -1.7915892E+00
   1.7065384E-04   4.0830505E+05   -1.7910290E+00
   1.7144193E-04   4.0495005E+05   -1.7904683E+00
   1.7223367E-04   4.0162366E+05   -1.7899073E+00
   1.7302906E-04   3.9832563E+05   -1.7893458E+00
   1.7382813E-04   3.9505570E+05   -1.7887839E+00
   1.7463089E-04   3.9181362E+05   -1.7882216E+00
   1.7543735E-04   3.8859917E+05   -1.7876589E+00
   1.7624754E-04   3.8541208E+05   -1.7870958E+00
   1.7706147E-04   3.8225212E+05   -1.7865323E+00
   1.7787916E-04   3.7911906E+05   -1.7859684E+00
   1.7870062E-04   3.7601265E+05   -1.7854042E+00
   1.7952588E-04   3.7293267E+05   -1.7848396E+00
   1.8035495E-04   3.6987888E+05   -1.7842746E+00
   1.8118785E-04   3.6685105E+05   -1.7837093E+00
   1.8202459E-04   3.6384895E+05   -1.7831436E+00
   1.8286520E-04   3.6087236E+05   -1.7825776E+00
   1.8370969E-04   3.5792105E+05   -1.7820113E+00
   1.8455808E-04   3.5499481E+05   -1.7814446E+00
   1.8541039E-04   3.5209342E+05   -1.7808776E+00
   1.8626663E-04   3.4921664E+05   -1.7803102E+00
   1.8712683E-04   3.4636428E+05   -1.7797425E+00
   1.8799100E-04   3.4353612E+05   -1.7791746E+00
   1.8885917E-04   3.4073194E+05   -1.7786063E+00
   1.8973134E-04   3.3795153E+05   -1.7780377E+00
   1.9060754E-04   3.3519469E+05   -1.7774688E+00
   1.9148778E-04   3.3246122E+05   -1.7768997E+00
   1.9237209E-04   3.2975089E+05   -1.7763302E+00
   1.9326049E-04   3.2706352E+05   -1.7757605E+00
   1.9415299E-04   3.2439891E+05   -1.7751905E+00
   1.9504960E-04   3.2175685E+05   -1.7746203E+00
   1.9595036E-04   3.1913714E+05   -1.7740498E+00
   1.9685528E-04   3.1653960E+05   -1.7734790E+00
   1.9776438E-04   3.1396403E+05   -1.7729080E+00
   1.9867768E-04   3.1141023E+05   -1.7723367E+00
   1.9959519E-04   3.0887801E+05   -1.7717652E+00
   2.0051694E-04   3.0636720E+05   -1.7711935E+00
   2.0144295E-04   3.0387759E+05   -1.7706216E+00
   2.0237324E-04   3.0140901E+05   -1.7700494E+00
   2.0330782E-04   2.9896128E+05   -1.7694770E+00
   2.0424671E-04   2.9653420E+05   -1.7689044E+00
   2.0518995E-04   2.9412760E+05   -1.7683317E+00
   2.0613754E-04   2.9174130E+05   -1.7677587E+00
   2.0708950E-04   2.8937513E+05   -1.7671855E+00
   2.0804586E-04   2.8702891E+05   -1.7666122E+00
   2.0900664E-04   2.8470246E+05   -1.7660387E+00
   2.0997185E-04   2.8239562E+05   -1.7654650E+00
   2.1094152E-04   2.8010821E+05   -1.7648911E+00
   2.1191567E-04   2.7784006E+05   -1.7643171E+00
   2.1289432E-04   2.7559100E+05   -1.7637429E+00
   2.1387749E-04   2.7336088E+05   -1.7631686E+00
   2.1486520E-04   2.7114952E+05   -1.7625942E+00
   2.1585747E-04   2.6895676E+05   -1.7620196E+00
   2.1685432E-04   2.6678243E+05   -1.7614449E+00
   2.1785578E-04   2.6462639E+05   -1.7608701E+00
   2.1886186E-04   2.6248847E+05   -1.7602951E+00
   2.1987259E-04   2.6036850E+05   -1.7597201E+00
   2.2088798E-04   2.5826635E+05   -1.7591449E+00
   2.2190807E-04   2.5618185E+05   -1.7585697E+00
   2.2293286E-04   2.5411484E+05   -1.7579943E+00
   2.2396239E-04   2.5206518E+05   -1.7574189E+00
   2.2499667E-04   2.5003271E+05   -1.7568434E+00
   2.2603573E-04   2.4801730E+05   -1.7562678E+00
   2.2707958E-04   2.4601877E+05   -1.7556921E+00
   2.2812826E-04   2.4403700E+05   -1.7551164E+00
   2.2918178E-04   2.4207184E+05   -1.7545406E+00
   2.3024017E-04   2.4012314E+05   -1.7539648E+00
   2.3130344E-04   2.3819076E+05   -1.7533890E+00
   2.3237162E-04   2.3627455E+05   -1.7528131E+00
   2.3344474E-04   2.3437438E+05   -1.7522371E+00
   2.3452281E-04   2.3249011E+05   -1.7516612E+00
   2.3560586E-04   2.3062161E+05   -1.7510852E+00
   2.3669392E-04   2.2876872E+05   -1.7505093E+00
   2.3778699E-04   2.2693133E+05   -1.7499333E+00
   2.3888512E-04   2.2510929E+05   -1.7493573E+00
   2.3998831E-04   2.2330247E+05   -1.7487813E+00
   2.4109661E-04   2.2151074E+05   -1.7482053E+00
   2.4221001E-04   2.1973397E+05   -1.7476294E+00
   2.4332857E-04   2.1797203E+05   -1.7470535E+00
   2.4445228E-04   2.1622480E+05   -1.7464776E+00
   2.4558119E-04   2.1449213E+05   -1.7459017E+00
   2.4671531E-04   2.1277392E+05   -1.7453259E+00
   2.4785467E-04   2.1107003E+05   -1.7447502E+00
   2.4899928E-04   2.0938034E+05   -1.7441745E+00
   2.5014919E-04   2.0770473E+05   -1.7435988E+00
   2.5130440E-04   2.0604307E+05   -1.7430232E+00
   2.5246495E-04   2.0439525E+05   -1.7424477E+00
   2.5363086E-04   2.0276115E+05   -1.7418723E+00
   2.5480216E-04   2.0114064E+05   -1.7412970E+00
   2.5597886E-04   1.9953361E+05   -1.7407217E+00
   2.5716100E-04   1.9793995E+05   -1.7401466E+00
   2.5834859E-04   1.9635954E+05   -1.7395715E+00
   2.5954168E-04   1.9479226E+05   -1.7389966E+00
   2.6074027E-04   1.9323800E+05   -1.7384218E+00
   2.6194439E-04   1.9169665E+05   -1.7378471E+00
   2.6315408E-04   1.9016810E+05   -1.7372725E+00
   2.6436935E-04   1.8865224E+05   -1.7366981E+00
   2.6559024E-04   1.8714895E+05   -1.7361238E+00
   2.6681676E-04   1.8565814E+05   -1.7355497E+00
   2.6804895E-04   1.8417969E+05   -1.7349757E+00
   2.6928683E-04   1.8271349E+05   -1.7344018E+00
   2.7053042E-04   1.8125945E+05   -1.7338282E+00
   2.7177976E-04   1.7981745E+05   -1.7332547E+00
   2.7303487E-04   1.7838740E+05   -1.7326813E+00
   2.7429577E-04   1.7696918E+05   -1.7321082E+00
   2.7556250E-04   1.7556271E+05   -1.7315352E+00
   2.7683507E-04   1.7416787E+05   -1.7309625E+00
   2.7811353E-04   1.7278457E+05   -1.7303899E+00
   2.7939788E-04   1.7141271E+05   -1.7298176E+00
   2.8068817E-04   1.7005219E+05   -1.7292454E+00
   2.8198442E-04   1.6870291E+05   -1.7286735E+00
   2.8328665E-04   1.6736478E+05   -1.7281018E+00
   2.8459490E-04   1.6603770E+05   -1.7275304E+00
   2.8590919E-04   1.6472158E+05   -1.7269591E+00
   2.8722955E-04   1.6341632E+05   -1.7263881E+00
   2.8855600E-04   1.6212183E+05   -1.7258174E+00
   2.8988859E-04   1.6083801E+05   -1.7252469E+00
   2.9122732E-04   1.5956478E+05   -1.7246767E+00
   2.9257224E-04   1.5830205E+05   -1.7241067E+00
   2.9392337E-04   1.5704972E+05   -1.7235370E+00
   2.9528074E-04   1.5580771E+05   -1.7229676E+00
   2.9664438E-04   1.5457592E+05   -1.7223985E+00
   2.9801431E-04   1.5335428E+05   -1.7218297E+00
   2.9939057E-04   1.5214269E+05   -1.7212611E+00
   3.0077319E-04   1.5094106E+05   -1.7206929E+00
   3.0216219E-04   1.4974932E+05   -1.7201249E+00
   3.0355761E-04   1.4856738E+05   -1.7195573E+00
   3.0495947E-04   1.4739515E+05   -1.7189900E+00
   3.0636780E-04   1.4623255E+05   -1.7184230E+00
   3.0778264E-04   1.4507951E+05   -1.7178564E+00
   3.0920401E-04   1.4393593E+05   -1.7172901E+00
   3.1063195E-04   1.4280173E+05   -1.7167241E+00
   3.1206648E-04   1.4167684E+05   -1.7161585E+00
   3.1350764E-04   1.4056118E+05   -1.7155932E+00
   3.1495545E-04   1.3945467E+05   -1.7150283E+00
   3.1640994E-04   1.3835723E+05   -1.7144637E+00
   3.1787116E-04   1.3726878E+05   -1.7138995E+00
   3.1933912E-04   1.3618925E+05   -1.7133357E+00
   3.2081386E-04   1.3511856E+05   -1.7127723E+00
   3.2229541E-04   1.3405664E+05   -1.7122092E+00
   3.2378381E-04   1.3300340E+05   -1.7116466E+00
   3.2527908E-04   1.3195878E+05   -1.7110843E+00
   3.2678125E-04   1.3092271E+05   -1.7105224E+00
   3.2829036E-04   1.2989511E+05   -1.7099610E+00
   3.2980644E-04   1.2887590E+05   -1.7094000E+00
   3.3132952E-04   1.2786503E+05   -1.7088393E+00
   3.3285963E-04   1.2686241E+05   -1.7082791E+00
   3.3439681E-04   1.2586797E+05   -1.7077194E+00
   3.3594109E-04   1.2488166E+05   -1.7071601E+00
   3.3749250E-04   1.2390339E+05   -1.7066012E+00
   3.3905108E-04   1.2293310E+05   -1.7060427E+00
   3.4061685E-04   1.2197072E+05   -1.7054847E+00
   3.4218986E-04   1.2101619E+05   -1.7049272E+00
   3.4377013E-04   1.2006944E+05   -1.7043702E+00
   3.4535769E-04   1.1913040E+05   -1.7038136E+00
   3.4695259E-04   1.1819900E+05   -1.7032574E+00
   3.4855485E-04   1.1727519E+05   -1.7027018E+00
   3.5016452E-04   1.1635890E+05   -1.7021466E+00
   3.5178161E-04   1.1545006E+05   -1.7015919E+00
   3.5340618E-04   1.1454861E+05   -1.7010378E+00
   3.5503824E-04   1.1365449E+05   -1.7004841E+00
   3.5667785E-04   1.1276764E+05   -1.6999309E+00
   3.5832502E-04   1.1188799E+05   -1.6993782E+00
   3.5997981E-04   1.1101549E+05   -1.6988261E+00
   3.6164223E-04   1.1015007E+05   -1.6982744E+00
   3.6331233E-04   1.0929167E+05   -1.6977233E+00
   3.6499015E-04   1.0844024E+05   -1.6971727E+00
   3.6667571E-04   1.0759572E+05   -1.6966227E+00
   3.6836906E-04   1.0675804E+05   -1.6960732E+00
   3.7007022E-04   1.0592715E+05   -1.6955242E+00
   3.7177925E-04   1.0510300E+05   -1.6949758E+00
   3.7349616E-04   1.0428552E+05   -1.6944280E+00
   3.7522101E-04   1.0347466E+05   -1.6938807E+00
   3.7695382E-04   1.0267036E+05   -1.6933340E+00
   3.7869463E-04   1.0187257E+05   -1.6927878E+00
   3.8044348E-04   1.0108124E+05   -1.6922422E+00
   3.8220041E-04   1.0029630E+05   -1.6916972E+00
   3.8396545E-04   9.9517711E+04   -1.6911528E+00
   3.8573864E-04   9.8745412E+04   -1.6906090E+00
   3.8752002E-04   9.7979351E+04   -1.6900657E+00
   3.8930963E-04   9.7219477E+04   -1.6895231E+00
   3.9110750E-04   9.6465737E+04   -1.6889811E+00
   3.9291368E-04   9.5718080E+04   -1.6884397E+00
   3.9472820E-04   9.4976454E+04   -1.6878988E+00
   3.9655109E-04   9.4240808E+04   -1.6873587E+00
   3.9838241E-04   9.3511094E+04   -1.6868191E+00
   4.0022218E-04   9.2787260E+04   -1.6862801E+00
   4.0207045E-04   9.2069257E+04   -1.6857418E+00
   4.0392725E-04   9.1357038E+04   -1.6852042E+00
   4.0579263E-04   9.0650552E+04   -1.6846671E+00
   4.0766662E-04   8.9949752E+04   -1.6841307E+00
   4.0954927E-04   8.9254590E+04   -1.6835950E+00
   4.1144061E-04   8.8565019E+04   -1.6830599E+00
   4.1334068E-04   8.7880992E+04   -1.6825255E+00
   4.1524953E-04   8.7202463E+04   -1.6819917E+00
   4.1716720E-04   8.6529385E+04   -1.6814587E+00
   4.1909372E-04   8.5861714E+04   -1.6809262E+00
   4.2102914E-04   8.5199403E+04   -1.6803945E+00
   4.2297350E-04   8.4542407E+04   -1.6798634E+00
   4.2492683E-04   8.3890684E+04   -1.6793331E+00
   4.2688919E-04   8.3244187E+04   -1.6788034E+00
   4.2886061E-04   8.2602875E+04   -1.6782744E+00
   4.3084113E-04   8.1966702E+04   -1.6777461E+00
   4.3283080E-04   8.1335627E+04   -1.6772185E+00
   4.3482966E-04   8.0709607E+04   -1.6766916E+00
   4.3683775E-04   8.0088599E+04   -1.6761654E+00
   4.3885511E-04   7.9472563E+04   -1.6756400E+00
   4.4088179E-04   7.8861455E+04   -1.6751152E+00
   4.4291783E-04   7.8255236E+04   -1.6745912E+00
   4.4496327E-04   7.7653864E+04   -1.6740679E+00
   4.4701816E-04   7.7057299E+04   -1.6735453E+00
   4.4908253E-04   7.6465501E+04   -1.6730235E+00
   4.5115644E-04   7.5878430E+04   -1.6725024E+00
   4.5323993E-04   7.5296048E+04   -1.6719821E+00
   4.5533304E-04   7.4718314E+04   -1.6714625E+00
   4.5743582E-04   7.4145191E+04   -1.6709437E+00
   4.5954830E-04   7.3576639E+04   -1.6704256E+00
   4.6167054E-04   7.3012621E+04   -1.6699082E+00
   4.6380259E-04   7.2453100E+04   -1.6693917E+00
   4.6594448E-04   7.1898037E+04   -1.6688759E+00
   4.6809626E-04   7.1347396E+04   -1.6683608E+00
   4.7025797E-04   7.0801140E+04   -1.6678466E+00
   4.7242967E-04   7.0259233E+04   -1.6673331E+00
   4.7461140E-04   6.9721638E+04   -1.6668204E+00
   4.7680321E-04   6.9188320E+04   -1.6663084E+00
   4.7900514E-04   6.8659243E+04   -1.6657973E+00
   4.8121723E-04   6.8134373E+04   -1.6652870E+00
   4.8343954E-04   6.7613674E+04   -1.6647774E+00
   4.8567212E-04   6.7097111E+04   -1.6642687E+00
   4.8791500E-04   6.6584651E+04   -1.6637607E+00
   4.9016825E-04   6.6076260E+04   -1.6632536E+00
   4.9243189E-04   6.5571903E+04   -1.6627473E+00
   4.9470600E-04   6.5071547E+04   -1.6622418E+00
   4.9699060E-04   6.4575160E+04   -1.6617371E+00
   4.9928575E-04   6.4082709E+04   -1.6612332E+00
   5.0159151E-04   6.3594160E+04   -1.6607301E+00
   5.0390791E-04   6.3109482E+04   -1.6602279E+00
   5.0623501E-04   6.2628643E+04   -1.6597265E+00
   5.0857286E-04   6.2151610E+04   -1.6592259E+00
   5.1092150E-04   6.1678354E+04   -1.6587262E+00
   5.1328099E-04   6.1208842E+04   -1.6582273E+00
   5.1565137E-04   6.0743043E+04   -1.6577293E+00
   5.1803270E-04   6.0280928E+04   -1.6572321E+00
   5.2042503E-04   5.9822465E+04   -1.6567357E+00
   5.2282841E-04   5.9367624E+04   -1.6562402E+00
   5.2524289E-04   5.8916376E+04   -1.6557455E+00
   5.2766851E-04   5.8468692E+04   -1.6552518E+00
   5.3010534E-04   5.8024540E+04   -1.6547588E+00
   5.3255342E-04   5.7583894E+04   -1.6542667E+00
   5.3501281E-04   5.7146723E+04   -1.6537755E+00
   5.3748356E-04   5.6712999E+04   -1.6532852E+00
   5.3996571E-04   5.6282694E+04   -1.6527958E+00
   5.4245933E-04   5.5855780E+04   -1.6523072E+00
   5.4496446E-04   5.5432229E+04   -1.6518195E+00
   5.4748117E-04   5.5012013E+04   -1.6513326E+00
   5.5000949E-04   5.4595106E+04   -1.6508467E+00
   5.5254949E-04   5.4181478E+04   -1.6503616E+00
   5.5510123E-04   5.3771105E+04   -1.6498775E+00
   5.5766474E-04   5.3363959E+04   -1.6493942E+00
   5.6024010E-04   5.2960013E+04   -1.6489118E+00
   5.6282734E-04   5.2559242E+04   -1.6484303E+00
   5.6542654E-04   5.2161619E+04   -1.6479497E+00
   5.6803774E-04   5.1767119E+04   -1.6474700E+00
   5.7066099E-04   5.1375716E+04   -1.6469913E+00
   5.7329637E-04   5.0987384E+04   -1.6465134E+00
   5.7594391E-04   5.0602099E+04   -1.6460364E+00
   5.7860368E-04   5.0219836E+04   -1.6455604E+00
   5.8127573E-04   4.9840570E+04   -1.6450852E+00
   5.8396012E-04   4.9464276E+04   -1.6446110E+00
   5.8665691E-04   4.9090931E+04   -1.6441377E+00
   5.8936616E-04   4.8720509E+04   -1.6436653E+00
   5.9208791E-04   4.8352988E+04   -1.6431939E+00
   5.9482223E-04   4.7988343E+04   -1.6427234E+00
   5.9756919E-04   4.7626551E+04   -1.6422538E+00
   6.0032882E-04   4.7267589E+04   -1.6417851E+00
   6.0310120E-04   4.6911434E+04   -1.6413173E+00
   6.0588639E-04   4.6558062E+04   -1.6408505E+00
   6.0868443E-04   4.6207452E+04   -1.6403847E+00
   6.1149540E-04   4.5859580E+04   -1.6399198E+00
   6.1431935E-04   4.5514425E+04   -1.6394558E+00
   6.1715634E-04   4.5171964E+04   -1.6389927E+00
   6.2000644E-04   4.4832175E+04   -1.6385306E+00
   6.2286969E-04   4.4495037E+04   -1.6380695E+00
