#        a       HoverH0(a)       dlogHdloga_of_a(a)
   1.0000000E-04   1.0896967E+06   -1.8798408E+00
   1.0046181E-04   1.0803002E+06   -1.8794197E+00
   1.0092575E-04   1.0709870E+06   -1.8789976E+00
   1.0139184E-04   1.0617560E+06   -1.8785745E+00
   1.0186008E-04   1.0526067E+06   -1.8781504E+00
   1.0233048E-04   1.0435382E+06   -1.8777253E+00
   1.0280305E-04   1.0345500E+06   -1.8772992E+00
   1.0327781E-04   1.0256411E+06   -1.8768721E+00
   1.0375475E-04   1.0168110E+06   -1.8764439E+00
   1.0423390E-04   1.0080589E+06   -1.8760148E+00
   1.0471527E-04   9.9938404E+05   -1.8755847E+00
   1.0519885E-04   9.9078585E+05   -1.8751536E+00
   1.0568467E-04   9.8226359E+05   -1.8747215E+00
   1.0617274E-04   9.7381657E+05   -1.8742884E+00
   1.0666305E-04   9.6544412E+05   -1.8738543E+00
   1.0715563E-04   9.5714557E+05   -1.8734192E+00
   1.0765049E-04   9.4892025E+05   -1.8729831E+00
   1.0814763E-04   9.4076752E+05   -1.8725460E+00
   1.0864707E-04   9.3268671E+05   -1.8721080E+00
   1.0914881E-04   9.2467718E+05   -1.8716689E+00
   1.0965287E-04   9.1673828E+05   -1.8712289E+00
   1.1015926E-04   9.0886939E+05   -1.8707879E+00
   1.1066799E-04   9.0106988E+05   -1.8703459E+00
   1.1117906E-04   8.9333912E+05   -1.8699029E+00
   1.1169250E-04   8.8567650E+05   -1.8694590E+00
   1.1220831E-04   8.7808140E+05   -1.8690140E+00
   1.1272650E-04   8.7055321E+05   -1.8685681E+00
   1.1324708E-04   8.6309135E+05   -1.8681212E+00
   1.1377007E-04   8.5569521E+05   -1.8676733E+00
   1.1429547E-04   8.4836420E+05   -1.8672245E+00
   1.1482330E-04   8.4109775E+05   -1.8667747E+00
   1.1535356E-04   8.3389526E+05   -1.8663239E+00
   1.1588628E-04   8.2675616E+05   -1.8658722E+00
   1.1642145E-04   8.1967989E+05   -1.8654195E+00
   1.1695910E-04   8.1266589E+05   -1.8649658E+00
   1.1749923E-04   8.0571359E+05   -1.8645111E+00
   1.1804185E-04   7.9882244E+05   -1.8640555E+00
   1.1858698E-04   7.9199189E+05   -1.8635990E+00
   1.1913463E-04   7.8522141E+05   -1.8631415E+00
   1.1968481E-04   7.7851044E+05   -1.8626830E+00
   1.2023752E-04   7.7185846E+05   -1.8622236E+00
   1.2079279E-04   7.6526495E+05   -1.8617632E+00
   1.2135063E-04   7.5872937E+05   -1.8613019E+00
   1.2191104E-04   7.5225120E+05   -1.8608396E+00
   1.2247403E-04   7.4582994E+05   -1.8603764E+00
   1.2303963E-04   7.3946507E+05   -1.8599122E+00
   1.2360784E-04   7.3315609E+05   -1.8594471E+00
   1.2417868E-04   7.2690249E+05   -1.8589811E+00
   1.2475215E-04   7.2070378E+05   -1.8585141E+00
   1.2532826E-04   7.1455947E+05   -1.8580462E+00
   1.2590704E-04   7.0846908E+05   -1.8575774E+00
   1.2648850E-04   7.0243211E+05   -1.8571076E+00
   1.2707263E-04   6.9644809E+05   -1.8566369E+00
   1.2765947E-04   6.9051655E+05   -1.8561652E+00
   1.2824901E-04   6.8463702E+05   -1.8556927E+00
   1.2884128E-04   6.7880903E+05   -1.8552192E+00
   1.2943628E-04   6.7303212E+05   -1.8547448E+00
   1.3003403E-04   6.6730583E+05   -1.8542695E+00
   1.3063454E-04   6.6162972E+05   -1.8537933E+00
   1.3123783E-04   6.5600332E+05   -1.8533161E+00
   1.3184390E-04   6.5042621E+05   -1.8528381E+00
   1.3245277E-04   6.4489793E+05   -1.8523591E+00
   1.3306445E-04   6.3941804E+05   -1.8518793E+00
   1.3367895E-04   6.3398613E+05   -1.8513985E+00
   1.3429630E-04   6.2860175E+05   -1.8509169E+00
   1.3491649E-04   6.2326449E+05   -1.8504343E+00
   1.3553955E-04   6.1797392E+05   -1.8499509E+00
   1.3616548E-04   6.1272963E+05   -1.8494665E+00
   1.3679431E-04   6.0753120E+05   -1.8489813E+00
   1.3742604E-04   6.0237822E+05   -1.8484952E+00
   1.3806069E-04   5.9727028E+05   -1.8480082E+00
   1.3869827E-04   5.9220699E+05   -1.8475203E+00
   1.3933879E-04   5.8718794E+05   -1.8470315E+00
   1.3998227E-04   5.8221274E+05   -1.8465419E+00
   1.4062872E-04   5.7728100E+05   -1.8460514E+00
   1.4127816E-04   5.7239233E+05   -1.8455600E+00
   1.4193060E-04   5.6754635E+05   -1.8450677E+00
   1.4258605E-04   5.6274267E+05   -1.8445746E+00
   1.4324453E-04   5.5798091E+05   -1.8440807E+00
   1.4390605E-04   5.5326071E+05   -1.8435858E+00
   1.4457062E-04   5.4858170E+05   -1.8430902E+00
   1.4523826E-04   5.4394349E+05   -1.8425936E+00
   1.4590899E-04   5.3934574E+05   -1.8420963E+00
   1.4658281E-04   5.3478808E+05   -1.8415980E+00
   1.4725974E-04   5.3027015E+05   -1.8410990E+00
   1.4793981E-04   5.2579159E+05   -1.8405991E+00
   1.4862301E-04   5.2135207E+05   -1.8400983E+00
   1.4930936E-04   5.1695122E+05   -1.8395967E+00
   1.4999889E-04   5.1258870E+05   -1.8390943E+00
   1.5069160E-04   5.0826418E+05   -1.8385911E+00
   1.5138751E-04   5.0397731E+05   -1.8380871E+00
   1.5208663E-04   4.9972776E+05   -1.8375822E+00
   1.5278899E-04   4.9551520E+05   -1.8370765E+00
   1.5349458E-04   4.9133929E+05   -1.8365700E+00
   1.5420343E-04   4.8719972E+05   -1.8360627E+00
   1.5491556E-04   4.8309615E+05   -1.8355546E+00
   1.5563098E-04   4.7902826E+05   -1.8350457E+00
   1.5634970E-04   4.7499575E+05   -1.8345360E+00
   1.5707174E-04   4.7099828E+05   -1.8340255E+00
   1.5779711E-04   4.6703556E+05   -1.8335142E+00
   1.5852584E-04   4.6310727E+05   -1.8330021E+00
   1.5925792E-04   4.5921311E+05   -1.8324892E+00
   1.5999339E-04   4.5535276E+05   -1.8319756E+00
   1.6073226E-04   4.5152594E+05   -1.8314611E+00
   1.6147454E-04   4.4773234E+05   -1.8309459E+00
   1.6222024E-04   4.4397167E+05   -1.8304300E+00
   1.6296939E-04   4.4024363E+05   -1.8299132E+00
   1.6372200E-04   4.3654794E+05   -1.8293957E+00
   1.6447809E-04   4.3288431E+05   -1.8288775E+00
   1.6523767E-04   4.2925244E+05   -1.8283585E+00
   1.6600075E-04   4.2565207E+05   -1.8278387E+00
   1.6676736E-04   4.2208291E+05   -1.8273182E+00
   1.6753751E-04   4.1854468E+05   -1.8267969E+00
   1.6831122E-04   4.1503710E+05   -1.8262749E+00
   1.6908849E-04   4.1155992E+05   -1.8257522E+00
   1.6986936E-04   4.0811284E+05   -1.8252288E+00
   1.7065384E-04   4.0469562E+05   -1.8247046E+00
   1.7144193E-04   4.0130798E+05   -1.8241797E+00
   1.7223367E-04   3.9794965E+05   -1.8236541E+00
   1.7302906E-04   3.9462039E+05   -1.8231277E+00
   1.7382813E-04   3.9131994E+05   -1.8226007E+00
   1.7463089E-04   3.8804803E+05   -1.8220729E+00
   1.7543735E-04   3.8480441E+05   -1.8215445E+00
   1.7624754E-04   3.8158883E+05   -1.8210153E+00
   1.7706147E-04   3.7840105E+05   -1.8204855E+00
   1.7787916E-04   3.7524082E+05   -1.8199550E+00
   1.7870062E-04   3.7210789E+05   -1.8194237E+00
   1.7952588E-04   3.6900201E+05   -1.8188918E+00
   1.8035495E-04   3.6592296E+05   -1.8183593E+00
   1.8118785E-04   3.6287050E+05   -1.8178260E+00
   1.8202459E-04   3.5984438E+05   -1.8172921E+00
   1.8286520E-04   3.5684438E+05   -1.8167575E+00
   1.8370969E-04   3.5387025E+05   -1.8162223E+00
   1.8455808E-04   3.5092179E+05   -1.8156864E+00
   1.8541039E-04   3.4799875E+05   -1.8151499E+00
   1.8626663E-04   3.4510091E+05   -1.8146127E+00
   1.8712683E-04   3.4222805E+05   -1.8140749E+00
   1.8799100E-04   3.3937995E+05   -1.8135364E+00
   1.8885917E-04   3.3655638E+05   -1.8129973E+00
   1.8973134E-04   3.3375713E+05   -1.8124576E+00
   1.9060754E-04   3.3098200E+05   -1.8119173E+00
   1.9148778E-04   3.2823075E+05   -1.8113763E+00
   1.9237209E-04   3.2550318E+05   -1.8108348E+00
   1.9326049E-04   3.2279909E+05   -1.8102926E+00
   1.9415299E-04   3.2011826E+05   -1.8097498E+00
   1.9504960E-04   3.1746049E+05   -1.8092064E+00
   1.9595036E-04   3.1482557E+05   -1.8086624E+00
   1.9685528E-04   3.1221331E+05   -1.8081179E+00
   1.9776438E-04   3.0962350E+05   -1.8075727E+00
   1.9867768E-04   3.0705594E+05   -1.8070270E+00
   1.9959519E-04   3.0451044E+05   -1.8064807E+00
   2.0051694E-04   3.0198681E+05   -1.8059339E+00
   2.0144295E-04   2.9948484E+05   -1.8053864E+00
   2.0237324E-04   2.9700435E+05   -1.8048384E+00
   2.0330782E-04   2.9454515E+05   -1.8042899E+00
   2.0424671E-04   2.9210705E+05   -1.8037408E+00
   2.0518995E-04   2.8968987E+05   -1.8031912E+00
   2.0613754E-04   2.8729341E+05   -1.8026410E+00
   2.0708950E-04   2.8491751E+05   -1.8020903E+00
   2.0804586E-04   2.8256196E+05   -1.8015390E+00
   2.0900664E-04   2.8022661E+05   -1.8009873E+00
   2.0997185E-04   2.7791126E+05   -1.8004350E+00
   2.1094152E-04   2.7561575E+05   -1.7998822E+00
   2.1191567E-04   2.7333989E+05   -1.7993289E+00
   2.1289432E-04   2.7108352E+05   -1.7987751E+00
   2.1387749E-04   2.6884646E+05   -1.7982208E+00
   2.1486520E-04   2.6662854E+05   -1.7976660E+00
   2.1585747E-04   2.6442960E+05   -1.7971107E+00
   2.1685432E-04   2.6224946E+05   -1.7965549E+00
   2.1785578E-04   2.6008796E+05   -1.7959987E+00
   2.1886186E-04   2.5794494E+05   -1.7954419E+00
   2.1987259E-04   2.5582023E+05   -1.7948847E+00
   2.2088798E-04   2.5371368E+05   -1.7943271E+00
   2.2190807E-04   2.5162512E+05   -1.7937690E+00
   2.2293286E-04   2.4955439E+05   -1.7932104E+00
   2.2396239E-04   2.4750134E+05   -1.7926514E+00
   2.2499667E-04   2.4546582E+05   -1.7920920E+00
   2.2603573E-04   2.4344766E+05   -1.7915321E+00
   2.2707958E-04   2.4144672E+05   -1.7909718E+00
   2.2812826E-04   2.3946284E+05   -1.7904111E+00
   2.2918178E-04   2.3749588E+05   -1.7898499E+00
   2.3024017E-04   2.3554569E+05   -1.7892884E+00
   2.3130344E-04   2.3361211E+05   -1.7887264E+00
   2.3237162E-04   2.3169500E+05   -1.7881640E+00
   2.3344474E-04   2.2979423E+05   -1.7876013E+00
   2.3452281E-04   2.2790964E+05   -1.7870381E+00
   2.3560586E-04   2.2604109E+05   -1.7864746E+00
   2.3669392E-04   2.2418844E+05   -1.7859106E+00
   2.3778699E-04   2.2235156E+05   -1.7853463E+00
   2.3888512E-04   2.2053030E+05   -1.7847817E+00
   2.3998831E-04   2.1872452E+05   -1.7842167E+00
   2.4109661E-04   2.1693410E+05   -1.7836513E+00
   2.4221001E-04   2.1515889E+05   -1.7830855E+00
   2.4332857E-04   2.1339877E+05   -1.7825195E+00
   2.4445228E-04   2.1165360E+05   -1.7819530E+00
   2.4558119E-04   2.0992325E+05   -1.7813863E+00
   2.4671531E-04   2.0820758E+05   -1.7808192E+00
   2.4785467E-04   2.0650648E+05   -1.7802518E+00
   2.4899928E-04   2.0481982E+05   -1.7796841E+00
   2.5014919E-04   2.0314746E+05   -1.7791161E+00
   2.5130440E-04   2.0148928E+05   -1.7785477E+00
   2.5246495E-04   1.9984517E+05   -1.7779791E+00
   2.5363086E-04   1.9821498E+05   -1.7774101E+00
   2.5480216E-04   1.9659861E+05   -1.7768409E+00
   2.5597886E-04   1.9499594E+05   -1.7762714E+00
   2.5716100E-04   1.9340683E+05   -1.7757017E+00
   2.5834859E-04   1.9183118E+05   -1.7751316E+00
   2.5954168E-04   1.9026887E+05   -1.7745613E+00
   2.6074027E-04   1.8871977E+05   -1.7739907E+00
   2.6194439E-04   1.8718378E+05   -1.7734199E+00
   2.6315408E-04   1.8566078E+05   -1.7728488E+00
   2.6436935E-04   1.8415066E+05   -1.7722775E+00
   2.6559024E-04   1.8265330E+05   -1.7717060E+00
   2.6681676E-04   1.8116859E+05   -1.7711342E+00
   2.6804895E-04   1.7969643E+05   -1.7705622E+00
   2.6928683E-04   1.7823669E+05   -1.7699900E+00
   2.7053042E-04   1.7678929E+05   -1.7694176E+00
   2.7177976E-04   1.7535409E+05   -1.7688449E+00
   2.7303487E-04   1.7393101E+05   -1.7682721E+00
   2.7429577E-04   1.7251993E+05   -1.7676991E+00
   2.7556250E-04   1.7112075E+05   -1.7671259E+00
   2.7683507E-04   1.6973337E+05   -1.7665525E+00
   2.7811353E-04   1.6835768E+05   -1.7659789E+00
   2.7939788E-04   1.6699359E+05   -1.7654052E+00
   2.8068817E-04   1.6564098E+05   -1.7648313E+00
   2.8198442E-04   1.6429976E+05   -1.7642572E+00
   2.8328665E-04   1.6296984E+05   -1.7636830E+00
   2.8459490E-04   1.6165110E+05   -1.7631086E+00
   2.8590919E-04   1.6034347E+05   -1.7625341E+00
   2.8722955E-04   1.5904683E+05   -1.7619595E+00
   2.8855600E-04   1.5776109E+05   -1.7613847E+00
   2.8988859E-04   1.5648617E+05   -1.7608099E+00
   2.9122732E-04   1.5522195E+05   -1.7602349E+00
   2.9257224E-04   1.5396836E+05   -1.7596598E+00
   2.9392337E-04   1.5272530E+05   -1.7590846E+00
   2.9528074E-04   1.5149267E+05   -1.7585093E+00
   2.9664438E-04   1.5027039E+05   -1.7579339E+00
   2.9801431E-04   1.4905837E+05   -1.7573584E+00
   2.9939057E-04   1.4785652E+05   -1.7567828E+00
   3.0077319E-04   1.4666474E+05   -1.7562072E+00
   3.0216219E-04   1.4548296E+05   -1.7556315E+00
   3.0355761E-04   1.4431108E+05   -1.7550558E+00
   3.0495947E-04   1.4314903E+05   -1.7544800E+00
   3.0636780E-04   1.4199670E+05   -1.7539041E+00
   3.0778264E-04   1.4085403E+05   -1.7533282E+00
   3.0920401E-04   1.3972092E+05   -1.7527523E+00
   3.1063195E-04   1.3859730E+05   -1.7521763E+00
   3.1206648E-04   1.3748307E+05   -1.7516003E+00
   3.1350764E-04   1.3637817E+05   -1.7510243E+00
   3.1495545E-04   1.3528250E+05   -1.7504483E+00
   3.1640994E-04   1.3419600E+05   -1.7498723E+00
   3.1787116E-04   1.3311857E+05   -1.7492962E+00
   3.1933912E-04   1.3205014E+05   -1.7487202E+00
   3.2081386E-04   1.3099064E+05   -1.7481442E+00
   3.2229541E-04   1.2993998E+05   -1.7475682E+00
   3.2378381E-04   1.2889809E+05   -1.7469923E+00
   3.2527908E-04   1.2786490E+05   -1.7464164E+00
   3.2678125E-04   1.2684032E+05   -1.7458405E+00
   3.2829036E-04   1.2582429E+05   -1.7452646E+00
   3.2980644E-04   1.2481672E+05   -1.7446888E+00
   3.3132952E-04   1.2381756E+05   -1.7441131E+00
   3.3285963E-04   1.2282671E+05   -1.7435374E+00
   3.3439681E-04   1.2184412E+05   -1.7429618E+00
   3.3594109E-04   1.2086972E+05   -1.7423863E+00
   3.3749250E-04   1.1990342E+05   -1.7418108E+00
   3.3905108E-04   1.1894516E+05   -1.7412354E+00
   3.4061685E-04   1.1799487E+05   -1.7406601E+00
   3.4218986E-04   1.1705249E+05   -1.7400850E+00
   3.4377013E-04   1.1611794E+05   -1.7395099E+00
   3.4535769E-04   1.1519115E+05   -1.7389349E+00
   3.4695259E-04   1.1427207E+05   -1.7383601E+00
   3.4855485E-04   1.1336062E+05   -1.7377854E+00
   3.5016452E-04   1.1245674E+05   -1.7372108E+00
   3.5178161E-04   1.1156036E+05   -1.7366363E+00
   3.5340618E-04   1.1067141E+05   -1.7360620E+00
   3.5503824E-04   1.0978984E+05   -1.7354878E+00
   3.5667785E-04   1.0891559E+05   -1.7349138E+00
   3.5832502E-04   1.0804857E+05   -1.7343399E+00
   3.5997981E-04   1.0718875E+05   -1.7337662E+00
   3.6164223E-04   1.0633605E+05   -1.7331927E+00
   3.6331233E-04   1.0549041E+05   -1.7326193E+00
   3.6499015E-04   1.0465177E+05   -1.7320462E+00
   3.6667571E-04   1.0382007E+05   -1.7314732E+00
   3.6836906E-04   1.0299525E+05   -1.7309004E+00
   3.7007022E-04   1.0217726E+05   -1.7303278E+00
   3.7177925E-04   1.0136603E+05   -1.7297554E+00
   3.7349616E-04   1.0056150E+05   -1.7291833E+00
   3.7522101E-04   9.9763629E+04   -1.7286113E+00
   3.7695382E-04   9.8972344E+04   -1.7280396E+00
   3.7869463E-04   9.8187595E+04   -1.7274681E+00
   3.8044348E-04   9.7409324E+04   -1.7268969E+00
   3.8220041E-04   9.6637476E+04   -1.7263259E+00
   3.8396545E-04   9.5871997E+04   -1.7257551E+00
   3.8573864E-04   9.5112831E+04   -1.7251846E+00
   3.8752002E-04   9.4359924E+04   -1.7246143E+00
   3.8930963E-04   9.3613223E+04   -1.7240444E+00
   3.9110750E-04   9.2872675E+04   -1.7234746E+00
   3.9291368E-04   9.2138227E+04   -1.7229052E+00
   3.9472820E-04   9.1409827E+04   -1.7223361E+00
   3.9655109E-04   9.0687423E+04   -1.7217672E+00
   3.9838241E-04   8.9970963E+04   -1.7211986E+00
   4.0022218E-04   8.9260398E+04   -1.7206304E+00
   4.0207045E-04   8.8555677E+04   -1.7200624E+00
   4.0392725E-04   8.7856749E+04   -1.7194948E+00
   4.0579263E-04   8.7163565E+04   -1.7189274E+00
   4.0766662E-04   8.6476077E+04   -1.7183604E+00
   4.0954927E-04   8.5794235E+04   -1.7177938E+00
   4.1144061E-04   8.5117992E+04   -1.7172274E+00
   4.1334068E-04   8.4447299E+04   -1.7166614E+00
   4.1524953E-04   8.3782109E+04   -1.7160958E+00
   4.1716720E-04   8.3122375E+04   -1.7155305E+00
   4.1909372E-04   8.2468051E+04   -1.7149655E+00
   4.2102914E-04   8.1819091E+04   -1.7144010E+00
   4.2297350E-04   8.1175448E+04   -1.7138368E+00
   4.2492683E-04   8.0537078E+04   -1.7132729E+00
   4.2688919E-04   7.9903937E+04   -1.7127095E+00
   4.2886061E-04   7.9275978E+04   -1.7121464E+00
   4.3084113E-04   7.8653158E+04   -1.7115837E+00
   4.3283080E-04   7.8035434E+04   -1.7110215E+00
   4.3482966E-04   7.7422761E+04   -1.7104596E+00
   4.3683775E-04   7.6815098E+04   -1.7098981E+00
   4.3885511E-04   7.6212401E+04   -1.7093371E+00
   4.4088179E-04   7.5614628E+04   -1.7087764E+00
   4.4291783E-04   7.5021737E+04   -1.7082162E+00
   4.4496327E-04   7.4433687E+04   -1.7076565E+00
   4.4701816E-04   7.3850438E+04   -1.7070971E+00
   4.4908253E-04   7.3271947E+04   -1.7065382E+00
   4.5115644E-04   7.2698174E+04   -1.7059798E+00
   4.5323993E-04   7.2129081E+04   -1.7054218E+00
   4.5533304E-04   7.1564626E+04   -1.7048642E+00
   4.5743582E-04   7.1004771E+04   -1.7043071E+00
   4.5954830E-04   7.0449476E+04   -1.7037505E+00
   4.6167054E-04   6.9898703E+04   -1.7031944E+00
   4.6380259E-04   6.9352414E+04   -1.7026387E+00
   4.6594448E-04   6.8810570E+04   -1.7020836E+00
   4.6809626E-04   6.8273134E+04   -1.7015289E+00
   4.7025797E-04   6.7740069E+04   -1.7009747E+00
   4.7242967E-04   6.7211337E+04   -1.7004210E+00
   4.7461140E-04   6.6686903E+04   -1.6998678E+00
   4.7680321E-04   6.6166729E+04   -1.6993151E+00
   4.7900514E-04   6.5650779E+04   -1.6987629E+00
   4.8121723E-04   6.5139019E+04   -1.6982113E+00
   4.8343954E-04   6.4631412E+04   -1.6976602E+00
   4.8567212E-04   6.4127923E+04   -1.6971096E+00
   4.8791500E-04   6.3628518E+04   -1.6965595E+00
   4.9016825E-04   6.3133162E+04   -1.6960100E+00
   4.9243189E-04   6.2641821E+04   -1.6954611E+00
   4.9470600E-04   6.2154461E+04   -1.6949126E+00
   4.9699060E-04   6.1671049E+04   -1.6943648E+00
   4.9928575E-04   6.1191550E+04   -1.6938175E+00
   5.0159151E-04   6.0715933E+04   -1.6932707E+00
   5.0390791E-04   6.0244164E+04   -1.6927246E+00
   5.0623501E-04   5.9776211E+04   -1.6921790E+00
   5.0857286E-04   5.9312043E+04   -1.6916340E+00
   5.1092150E-04   5.8851626E+04   -1.6910895E+00
   5.1328099E-04   5.8394930E+04   -1.6905457E+00
   5.1565137E-04   5.7941922E+04   -1.6900025E+00
   5.1803270E-04   5.7492573E+04   -1.6894598E+00
   5.2042503E-04   5.7046852E+04   -1.6889178E+00
   5.2282841E-04   5.6604727E+04   -1.6883764E+00
   5.2524289E-04   5.6166168E+04   -1.6878355E+00
   5.2766851E-04   5.5731147E+04   -1.6872953E+00
   5.3010534E-04   5.5299632E+04   -1.6867558E+00
   5.3255342E-04   5.4871594E+04   -1.6862168E+00
   5.3501281E-04   5.4447005E+04   -1.6856785E+00
   5.3748356E-04   5.4025835E+04   -1.6851408E+00
   5.3996571E-04   5.3608056E+04   -1.6846038E+00
   5.4245933E-04   5.3193639E+04   -1.6840674E+00
   5.4496446E-04   5.2782556E+04   -1.6835316E+00
   5.4748117E-04   5.2374780E+04   -1.6829966E+00
   5.5000949E-04   5.1970281E+04   -1.6824621E+00
   5.5254949E-04   5.1569034E+04   -1.6819284E+00
   5.5510123E-04   5.1171010E+04   -1.6813953E+00
   5.5766474E-04   5.0776183E+04   -1.6808628E+00
   5.6024010E-04   5.0384526E+04   -1.6803311E+00
   5.6282734E-04   4.9996012E+04   -1.6798000E+00
   5.6542654E-04   4.9610615E+04   -1.6792696E+00
   5.6803774E-04   4.9228309E+04   -1.6787399E+00
   5.7066099E-04   4.8849069E+04   -1.6782109E+00
   5.7329637E-04   4.8472868E+04   -1.6776826E+00
   5.7594391E-04   4.8099682E+04   -1.6771550E+00
   5.7860368E-04   4.7729484E+04   -1.6766282E+00
   5.8127573E-04   4.7362251E+04   -1.6761020E+00
   5.8396012E-04   4.6997957E+04   -1.6755765E+00
   5.8665691E-04   4.6636578E+04   -1.6750518E+00
   5.8936616E-04   4.6278090E+04   -1.6745277E+00
   5.9208791E-04   4.5922467E+04   -1.6740044E+00
   5.9482223E-04   4.5569688E+04   -1.6734819E+00
   5.9756919E-04   4.5219727E+04   -1.6729600E+00
   6.0032882E-04   4.4872562E+04   -1.6724390E+00
   6.0310120E-04   4.4528169E+04   -1.6719186E+00
   6.0588639E-04   4.4186525E+04   -1.6713990E+00
   6.0868443E-04   4.3847607E+04   -1.6708802E+00
   6.1149540E-04   4.3511392E+04   -1.6703621E+00
   6.1431935E-04   4.3177859E+04   -1.6698447E+00
   6.1715634E-04   4.2846984E+04   -1.6693281E+00
   6.2000644E-04   4.2518746E+04   -1.6688123E+00
   6.2286969E-04   4.2193123E+04   -1.6682973E+00
