#        a       HoverH0(a)       dlogHdloga_of_a(a)
   1.0000000E-04   1.0603276E+06   -1.8643211E+00
   1.0046181E-04   1.0512597E+06   -1.8638652E+00
   1.0092575E-04   1.0422716E+06   -1.8634082E+00
   1.0139184E-04   1.0333624E+06   -1.8629503E+00
   1.0186008E-04   1.0245316E+06   -1.8624914E+00
   1.0233048E-04   1.0157784E+06   -1.8620316E+00
   1.0280305E-04   1.0071021E+06   -1.8615708E+00
   1.0327781E-04   9.9850208E+05   -1.8611091E+00
   1.0375475E-04   9.8997758E+05   -1.8606465E+00
   1.0423390E-04   9.8152794E+05   -1.8601829E+00
   1.0471527E-04   9.7315250E+05   -1.8597183E+00
   1.0519885E-04   9.6485060E+05   -1.8592528E+00
   1.0568467E-04   9.5662158E+05   -1.8587864E+00
   1.0617274E-04   9.4846478E+05   -1.8583190E+00
   1.0666305E-04   9.4037955E+05   -1.8578507E+00
   1.0715563E-04   9.3236527E+05   -1.8573815E+00
   1.0765049E-04   9.2442129E+05   -1.8569114E+00
   1.0814763E-04   9.1654697E+05   -1.8564403E+00
   1.0864707E-04   9.0874171E+05   -1.8559683E+00
   1.0914881E-04   9.0100488E+05   -1.8554953E+00
   1.0965287E-04   8.9333586E+05   -1.8550215E+00
   1.1015926E-04   8.8573406E+05   -1.8545467E+00
   1.1066799E-04   8.7819887E+05   -1.8540710E+00
   1.1117906E-04   8.7072969E+05   -1.8535944E+00
   1.1169250E-04   8.6332593E+05   -1.8531169E+00
   1.1220831E-04   8.5598701E+05   -1.8526385E+00
   1.1272650E-04   8.4871235E+05   -1.8521592E+00
   1.1324708E-04   8.4150138E+05   -1.8516789E+00
   1.1377007E-04   8.3435352E+05   -1.8511978E+00
   1.1429547E-04   8.2726822E+05   -1.8507158E+00
   1.1482330E-04   8.2024490E+05   -1.8502328E+00
   1.1535356E-04   8.1328302E+05   -1.8497490E+00
   1.1588628E-04   8.0638203E+05   -1.8492643E+00
   1.1642145E-04   7.9954139E+05   -1.8487787E+00
   1.1695910E-04   7.9276055E+05   -1.8482922E+00
   1.1749923E-04   7.8603898E+05   -1.8478049E+00
   1.1804185E-04   7.7937615E+05   -1.8473166E+00
   1.1858698E-04   7.7277154E+05   -1.8468275E+00
   1.1913463E-04   7.6622463E+05   -1.8463375E+00
   1.1968481E-04   7.5973490E+05   -1.8458467E+00
   1.2023752E-04   7.5330184E+05   -1.8453549E+00
   1.2079279E-04   7.4692495E+05   -1.8448623E+00
   1.2135063E-04   7.4060372E+05   -1.8443689E+00
   1.2191104E-04   7.3433766E+05   -1.8438746E+00
   1.2247403E-04   7.2812627E+05   -1.8433794E+00
   1.2303963E-04   7.2196907E+05   -1.8428834E+00
   1.2360784E-04   7.1586558E+05   -1.8423865E+00
   1.2417868E-04   7.0981531E+05   -1.8418888E+00
   1.2475215E-04   7.0381779E+05   -1.8413902E+00
   1.2532826E-04   6.9787255E+05   -1.8408908E+00
   1.2590704E-04   6.9197913E+05   -1.8403905E+00
   1.2648850E-04   6.8613705E+05   -1.8398894E+00
   1.2707263E-04   6.8034587E+05   -1.8393875E+00
   1.2765947E-04   6.7460513E+05   -1.8388848E+00
   1.2824901E-04   6.6891439E+05   -1.8383812E+00
   1.2884128E-04   6.6327319E+05   -1.8378769E+00
   1.2943628E-04   6.5768109E+05   -1.8373717E+00
   1.3003403E-04   6.5213766E+05   -1.8368656E+00
   1.3063454E-04   6.4664246E+05   -1.8363588E+00
   1.3123783E-04   6.4119506E+05   -1.8358512E+00
   1.3184390E-04   6.3579505E+05   -1.8353427E+00
   1.3245277E-04   6.3044198E+05   -1.8348335E+00
   1.3306445E-04   6.2513546E+05   -1.8343235E+00
   1.3367895E-04   6.1987506E+05   -1.8338126E+00
   1.3429630E-04   6.1466037E+05   -1.8333010E+00
   1.3491649E-04   6.0949099E+05   -1.8327886E+00
   1.3553955E-04   6.0436651E+05   -1.8322754E+00
   1.3616548E-04   5.9928654E+05   -1.8317615E+00
   1.3679431E-04   5.9425067E+05   -1.8312467E+00
   1.3742604E-04   5.8925852E+05   -1.8307312E+00
   1.3806069E-04   5.8430970E+05   -1.8302149E+00
   1.3869827E-04   5.7940382E+05   -1.8296979E+00
   1.3933879E-04   5.7454050E+05   -1.8291801E+00
   1.3998227E-04   5.6971935E+05   -1.8286615E+00
   1.4062872E-04   5.6494002E+05   -1.8281422E+00
   1.4127816E-04   5.6020212E+05   -1.8276221E+00
   1.4193060E-04   5.5550528E+05   -1.8271013E+00
   1.4258605E-04   5.5084915E+05   -1.8265798E+00
   1.4324453E-04   5.4623336E+05   -1.8260575E+00
   1.4390605E-04   5.4165755E+05   -1.8255345E+00
   1.4457062E-04   5.3712137E+05   -1.8250107E+00
   1.4523826E-04   5.3262446E+05   -1.8244862E+00
   1.4590899E-04   5.2816648E+05   -1.8239611E+00
   1.4658281E-04   5.2374708E+05   -1.8234351E+00
   1.4725974E-04   5.1936592E+05   -1.8229085E+00
   1.4793981E-04   5.1502266E+05   -1.8223812E+00
   1.4862301E-04   5.1071696E+05   -1.8218532E+00
   1.4930936E-04   5.0644849E+05   -1.8213244E+00
   1.4999889E-04   5.0221691E+05   -1.8207950E+00
   1.5069160E-04   4.9802191E+05   -1.8202649E+00
   1.5138751E-04   4.9386316E+05   -1.8197341E+00
   1.5208663E-04   4.8974034E+05   -1.8192026E+00
   1.5278899E-04   4.8565312E+05   -1.8186704E+00
   1.5349458E-04   4.8160119E+05   -1.8181376E+00
   1.5420343E-04   4.7758425E+05   -1.8176041E+00
   1.5491556E-04   4.7360197E+05   -1.8170699E+00
   1.5563098E-04   4.6965406E+05   -1.8165350E+00
   1.5634970E-04   4.6574020E+05   -1.8159995E+00
   1.5707174E-04   4.6186010E+05   -1.8154634E+00
   1.5779711E-04   4.5801346E+05   -1.8149266E+00
   1.5852584E-04   4.5419998E+05   -1.8143892E+00
   1.5925792E-04   4.5041937E+05   -1.8138511E+00
   1.5999339E-04   4.4667133E+05   -1.8133124E+00
   1.6073226E-04   4.4295558E+05   -1.8127730E+00
   1.6147454E-04   4.3927183E+05   -1.8122331E+00
   1.6222024E-04   4.3561981E+05   -1.8116925E+00
   1.6296939E-04   4.3199922E+05   -1.8111513E+00
   1.6372200E-04   4.2840979E+05   -1.8106095E+00
   1.6447809E-04   4.2485125E+05   -1.8100671E+00
   1.6523767E-04   4.2132332E+05   -1.8095240E+00
   1.6600075E-04   4.1782574E+05   -1.8089804E+00
   1.6676736E-04   4.1435822E+05   -1.8084362E+00
   1.6753751E-04   4.1092052E+05   -1.8078914E+00
   1.6831122E-04   4.0751235E+05   -1.8073461E+00
   1.6908849E-04   4.0413347E+05   -1.8068001E+00
   1.6986936E-04   4.0078362E+05   -1.8062536E+00
   1.7065384E-04   3.9746253E+05   -1.8057065E+00
   1.7144193E-04   3.9416996E+05   -1.8051589E+00
   1.7223367E-04   3.9090565E+05   -1.8046107E+00
   1.7302906E-04   3.8766935E+05   -1.8040619E+00
   1.7382813E-04   3.8446082E+05   -1.8035126E+00
   1.7463089E-04   3.8127981E+05   -1.8029627E+00
   1.7543735E-04   3.7812608E+05   -1.8024123E+00
   1.7624754E-04   3.7499939E+05   -1.8018614E+00
   1.7706147E-04   3.7189949E+05   -1.8013100E+00
   1.7787916E-04   3.6882616E+05   -1.8007580E+00
   1.7870062E-04   3.6577915E+05   -1.8002055E+00
   1.7952588E-04   3.6275824E+05   -1.7996525E+00
   1.8035495E-04   3.5976320E+05   -1.7990990E+00
   1.8118785E-04   3.5679380E+05   -1.7985450E+00
   1.8202459E-04   3.5384980E+05   -1.7979905E+00
   1.8286520E-04   3.5093100E+05   -1.7974355E+00
   1.8370969E-04   3.4803716E+05   -1.7968801E+00
   1.8455808E-04   3.4516807E+05   -1.7963241E+00
   1.8541039E-04   3.4232351E+05   -1.7957677E+00
   1.8626663E-04   3.3950327E+05   -1.7952108E+00
   1.8712683E-04   3.3670712E+05   -1.7946534E+00
   1.8799100E-04   3.3393486E+05   -1.7940956E+00
   1.8885917E-04   3.3118627E+05   -1.7935373E+00
   1.8973134E-04   3.2846115E+05   -1.7929786E+00
   1.9060754E-04   3.2575930E+05   -1.7924194E+00
   1.9148778E-04   3.2308050E+05   -1.7918598E+00
   1.9237209E-04   3.2042456E+05   -1.7912997E+00
   1.9326049E-04   3.1779127E+05   -1.7907393E+00
   1.9415299E-04   3.1518044E+05   -1.7901784E+00
   1.9504960E-04   3.1259186E+05   -1.7896171E+00
   1.9595036E-04   3.1002535E+05   -1.7890554E+00
   1.9685528E-04   3.0748071E+05   -1.7884932E+00
   1.9776438E-04   3.0495774E+05   -1.7879307E+00
   1.9867768E-04   3.0245626E+05   -1.7873678E+00
   1.9959519E-04   2.9997607E+05   -1.7868045E+00
   2.0051694E-04   2.9751699E+05   -1.7862408E+00
   2.0144295E-04   2.9507884E+05   -1.7856768E+00
   2.0237324E-04   2.9266144E+05   -1.7851123E+00
   2.0330782E-04   2.9026459E+05   -1.7845475E+00
   2.0424671E-04   2.8788812E+05   -1.7839824E+00
   2.0518995E-04   2.8553185E+05   -1.7834169E+00
   2.0613754E-04   2.8319560E+05   -1.7828510E+00
   2.0708950E-04   2.8087920E+05   -1.7822848E+00
   2.0804586E-04   2.7858248E+05   -1.7817183E+00
   2.0900664E-04   2.7630525E+05   -1.7811514E+00
   2.0997185E-04   2.7404736E+05   -1.7805842E+00
   2.1094152E-04   2.7180863E+05   -1.7800167E+00
   2.1191567E-04   2.6958890E+05   -1.7794488E+00
   2.1289432E-04   2.6738799E+05   -1.7788807E+00
   2.1387749E-04   2.6520574E+05   -1.7783123E+00
   2.1486520E-04   2.6304199E+05   -1.7777435E+00
   2.1585747E-04   2.6089658E+05   -1.7771745E+00
   2.1685432E-04   2.5876935E+05   -1.7766052E+00
   2.1785578E-04   2.5666013E+05   -1.7760356E+00
   2.1886186E-04   2.5456877E+05   -1.7754657E+00
   2.1987259E-04   2.5249512E+05   -1.7748956E+00
   2.2088798E-04   2.5043902E+05   -1.7743252E+00
   2.2190807E-04   2.4840032E+05   -1.7737545E+00
   2.2293286E-04   2.4637885E+05   -1.7731836E+00
   2.2396239E-04   2.4437449E+05   -1.7726124E+00
   2.2499667E-04   2.4238706E+05   -1.7720411E+00
   2.2603573E-04   2.4041643E+05   -1.7714694E+00
   2.2707958E-04   2.3846246E+05   -1.7708976E+00
   2.2812826E-04   2.3652498E+05   -1.7703255E+00
   2.2918178E-04   2.3460387E+05   -1.7697532E+00
   2.3024017E-04   2.3269897E+05   -1.7691807E+00
   2.3130344E-04   2.3081015E+05   -1.7686080E+00
   2.3237162E-04   2.2893727E+05   -1.7680352E+00
   2.3344474E-04   2.2708018E+05   -1.7674621E+00
   2.3452281E-04   2.2523875E+05   -1.7668888E+00
   2.3560586E-04   2.2341284E+05   -1.7663154E+00
   2.3669392E-04   2.2160233E+05   -1.7657417E+00
   2.3778699E-04   2.1980706E+05   -1.7651679E+00
   2.3888512E-04   2.1802692E+05   -1.7645940E+00
   2.3998831E-04   2.1626176E+05   -1.7640199E+00
   2.4109661E-04   2.1451146E+05   -1.7634456E+00
   2.4221001E-04   2.1277589E+05   -1.7628713E+00
   2.4332857E-04   2.1105492E+05   -1.7622967E+00
   2.4445228E-04   2.0934843E+05   -1.7617221E+00
   2.4558119E-04   2.0765628E+05   -1.7611473E+00
   2.4671531E-04   2.0597836E+05   -1.7605724E+00
   2.4785467E-04   2.0431453E+05   -1.7599974E+00
   2.4899928E-04   2.0266469E+05   -1.7594222E+00
   2.5014919E-04   2.0102869E+05   -1.7588470E+00
   2.5130440E-04   1.9940644E+05   -1.7582717E+00
   2.5246495E-04   1.9779780E+05   -1.7576963E+00
   2.5363086E-04   1.9620265E+05   -1.7571208E+00
   2.5480216E-04   1.9462089E+05   -1.7565452E+00
   2.5597886E-04   1.9305239E+05   -1.7559696E+00
   2.5716100E-04   1.9149704E+05   -1.7553939E+00
   2.5834859E-04   1.8995472E+05   -1.7548182E+00
   2.5954168E-04   1.8842533E+05   -1.7542423E+00
   2.6074027E-04   1.8690874E+05   -1.7536665E+00
   2.6194439E-04   1.8540485E+05   -1.7530906E+00
   2.6315408E-04   1.8391355E+05   -1.7525147E+00
   2.6436935E-04   1.8243474E+05   -1.7519387E+00
   2.6559024E-04   1.8096829E+05   -1.7513628E+00
   2.6681676E-04   1.7951411E+05   -1.7507868E+00
   2.6804895E-04   1.7807208E+05   -1.7502108E+00
   2.6928683E-04   1.7664211E+05   -1.7496348E+00
   2.7053042E-04   1.7522408E+05   -1.7490588E+00
   2.7177976E-04   1.7381790E+05   -1.7484828E+00
   2.7303487E-04   1.7242346E+05   -1.7479068E+00
   2.7429577E-04   1.7104066E+05   -1.7473309E+00
   2.7556250E-04   1.6966941E+05   -1.7467550E+00
   2.7683507E-04   1.6830959E+05   -1.7461791E+00
   2.7811353E-04   1.6696111E+05   -1.7456032E+00
   2.7939788E-04   1.6562388E+05   -1.7450274E+00
   2.8068817E-04   1.6429779E+05   -1.7444517E+00
   2.8198442E-04   1.6298276E+05   -1.7438760E+00
   2.8328665E-04   1.6167867E+05   -1.7433004E+00
   2.8459490E-04   1.6038545E+05   -1.7427248E+00
   2.8590919E-04   1.5910299E+05   -1.7421493E+00
   2.8722955E-04   1.5783121E+05   -1.7415739E+00
   2.8855600E-04   1.5657001E+05   -1.7409986E+00
   2.8988859E-04   1.5531929E+05   -1.7404234E+00
   2.9122732E-04   1.5407898E+05   -1.7398483E+00
   2.9257224E-04   1.5284897E+05   -1.7392733E+00
   2.9392337E-04   1.5162919E+05   -1.7386984E+00
   2.9528074E-04   1.5041954E+05   -1.7381236E+00
   2.9664438E-04   1.4921993E+05   -1.7375490E+00
   2.9801431E-04   1.4803029E+05   -1.7369745E+00
   2.9939057E-04   1.4685051E+05   -1.7364001E+00
   3.0077319E-04   1.4568053E+05   -1.7358259E+00
   3.0216219E-04   1.4452025E+05   -1.7352518E+00
   3.0355761E-04   1.4336959E+05   -1.7346779E+00
   3.0495947E-04   1.4222846E+05   -1.7341041E+00
   3.0636780E-04   1.4109679E+05   -1.7335305E+00
   3.0778264E-04   1.3997450E+05   -1.7329571E+00
   3.0920401E-04   1.3886150E+05   -1.7323838E+00
   3.1063195E-04   1.3775771E+05   -1.7318108E+00
   3.1206648E-04   1.3666306E+05   -1.7312379E+00
   3.1350764E-04   1.3557746E+05   -1.7306652E+00
   3.1495545E-04   1.3450085E+05   -1.7300928E+00
   3.1640994E-04   1.3343313E+05   -1.7295205E+00
   3.1787116E-04   1.3237424E+05   -1.7289485E+00
   3.1933912E-04   1.3132410E+05   -1.7283766E+00
   3.2081386E-04   1.3028263E+05   -1.7278050E+00
   3.2229541E-04   1.2924976E+05   -1.7272337E+00
   3.2378381E-04   1.2822542E+05   -1.7266626E+00
   3.2527908E-04   1.2720953E+05   -1.7260917E+00
   3.2678125E-04   1.2620202E+05   -1.7255210E+00
   3.2829036E-04   1.2520282E+05   -1.7249507E+00
   3.2980644E-04   1.2421185E+05   -1.7243806E+00
   3.3132952E-04   1.2322906E+05   -1.7238107E+00
   3.3285963E-04   1.2225436E+05   -1.7232412E+00
   3.3439681E-04   1.2128769E+05   -1.7226719E+00
   3.3594109E-04   1.2032897E+05   -1.7221029E+00
   3.3749250E-04   1.1937815E+05   -1.7215342E+00
   3.3905108E-04   1.1843516E+05   -1.7209658E+00
   3.4061685E-04   1.1749991E+05   -1.7203977E+00
   3.4218986E-04   1.1657236E+05   -1.7198299E+00
   3.4377013E-04   1.1565244E+05   -1.7192624E+00
   3.4535769E-04   1.1474007E+05   -1.7186952E+00
   3.4695259E-04   1.1383520E+05   -1.7181284E+00
   3.4855485E-04   1.1293776E+05   -1.7175619E+00
   3.5016452E-04   1.1204768E+05   -1.7169957E+00
   3.5178161E-04   1.1116491E+05   -1.7164299E+00
   3.5340618E-04   1.1028939E+05   -1.7158645E+00
   3.5503824E-04   1.0942104E+05   -1.7152993E+00
   3.5667785E-04   1.0855982E+05   -1.7147346E+00
   3.5832502E-04   1.0770565E+05   -1.7141702E+00
   3.5997981E-04   1.0685848E+05   -1.7136062E+00
   3.6164223E-04   1.0601825E+05   -1.7130425E+00
   3.6331233E-04   1.0518490E+05   -1.7124793E+00
   3.6499015E-04   1.0435837E+05   -1.7119164E+00
   3.6667571E-04   1.0353860E+05   -1.7113539E+00
   3.6836906E-04   1.0272554E+05   -1.7107919E+00
   3.7007022E-04   1.0191913E+05   -1.7102302E+00
   3.7177925E-04   1.0111931E+05   -1.7096689E+00
   3.7349616E-04   1.0032603E+05   -1.7091081E+00
   3.7522101E-04   9.9539222E+04   -1.7085477E+00
   3.7695382E-04   9.8758844E+04   -1.7079877E+00
   3.7869463E-04   9.7984837E+04   -1.7074281E+00
   3.8044348E-04   9.7217147E+04   -1.7068690E+00
   3.8220041E-04   9.6455719E+04   -1.7063103E+00
   3.8396545E-04   9.5700502E+04   -1.7057521E+00
   3.8573864E-04   9.4951442E+04   -1.7051943E+00
   3.8752002E-04   9.4208486E+04   -1.7046370E+00
   3.8930963E-04   9.3471584E+04   -1.7040802E+00
   3.9110750E-04   9.2740684E+04   -1.7035238E+00
   3.9291368E-04   9.2015735E+04   -1.7029679E+00
   3.9472820E-04   9.1296686E+04   -1.7024125E+00
   3.9655109E-04   9.0583488E+04   -1.7018575E+00
   3.9838241E-04   8.9876092E+04   -1.7013031E+00
   4.0022218E-04   8.9174447E+04   -1.7007492E+00
   4.0207045E-04   8.8478505E+04   -1.7001957E+00
   4.0392725E-04   8.7788219E+04   -1.6996428E+00
   4.0579263E-04   8.7103540E+04   -1.6990903E+00
   4.0766662E-04   8.6424421E+04   -1.6985384E+00
   4.0954927E-04   8.5750815E+04   -1.6979871E+00
   4.1144061E-04   8.5082674E+04   -1.6974362E+00
   4.1334068E-04   8.4419954E+04   -1.6968859E+00
   4.1524953E-04   8.3762609E+04   -1.6963361E+00
   4.1716720E-04   8.3110592E+04   -1.6957868E+00
   4.1909372E-04   8.2463859E+04   -1.6952381E+00
   4.2102914E-04   8.1822365E+04   -1.6946900E+00
   4.2297350E-04   8.1186066E+04   -1.6941424E+00
   4.2492683E-04   8.0554919E+04   -1.6935954E+00
   4.2688919E-04   7.9928880E+04   -1.6930489E+00
   4.2886061E-04   7.9307906E+04   -1.6925030E+00
   4.3084113E-04   7.8691954E+04   -1.6919577E+00
   4.3283080E-04   7.8080982E+04   -1.6914130E+00
   4.3482966E-04   7.7474948E+04   -1.6908689E+00
   4.3683775E-04   7.6873811E+04   -1.6903253E+00
   4.3885511E-04   7.6277528E+04   -1.6897824E+00
   4.4088179E-04   7.5686060E+04   -1.6892400E+00
   4.4291783E-04   7.5099366E+04   -1.6886983E+00
   4.4496327E-04   7.4517406E+04   -1.6881571E+00
   4.4701816E-04   7.3940139E+04   -1.6876166E+00
   4.4908253E-04   7.3367527E+04   -1.6870767E+00
   4.5115644E-04   7.2799531E+04   -1.6865375E+00
   4.5323993E-04   7.2236111E+04   -1.6859988E+00
   4.5533304E-04   7.1677229E+04   -1.6854608E+00
   4.5743582E-04   7.1122848E+04   -1.6849234E+00
   4.5954830E-04   7.0572929E+04   -1.6843867E+00
   4.6167054E-04   7.0027436E+04   -1.6838506E+00
   4.6380259E-04   6.9486330E+04   -1.6833152E+00
   4.6594448E-04   6.8949575E+04   -1.6827805E+00
   4.6809626E-04   6.8417135E+04   -1.6822463E+00
   4.7025797E-04   6.7888973E+04   -1.6817129E+00
   4.7242967E-04   6.7365055E+04   -1.6811801E+00
   4.7461140E-04   6.6845343E+04   -1.6806480E+00
   4.7680321E-04   6.6329803E+04   -1.6801166E+00
   4.7900514E-04   6.5818401E+04   -1.6795859E+00
   4.8121723E-04   6.5311101E+04   -1.6790558E+00
   4.8343954E-04   6.4807869E+04   -1.6785265E+00
   4.8567212E-04   6.4308672E+04   -1.6779978E+00
   4.8791500E-04   6.3813475E+04   -1.6774699E+00
   4.9016825E-04   6.3322245E+04   -1.6769426E+00
   4.9243189E-04   6.2834949E+04   -1.6764161E+00
   4.9470600E-04   6.2351555E+04   -1.6758902E+00
   4.9699060E-04   6.1872029E+04   -1.6753651E+00
   4.9928575E-04   6.1396339E+04   -1.6748407E+00
   5.0159151E-04   6.0924453E+04   -1.6743170E+00
   5.0390791E-04   6.0456340E+04   -1.6737941E+00
   5.0623501E-04   5.9991969E+04   -1.6732719E+00
   5.0857286E-04   5.9531307E+04   -1.6727504E+00
   5.1092150E-04   5.9074324E+04   -1.6722297E+00
   5.1328099E-04   5.8620990E+04   -1.6717097E+00
   5.1565137E-04   5.8171275E+04   -1.6711904E+00
   5.1803270E-04   5.7725147E+04   -1.6706720E+00
   5.2042503E-04   5.7282577E+04   -1.6701542E+00
   5.2282841E-04   5.6843536E+04   -1.6696373E+00
   5.2524289E-04   5.6407995E+04   -1.6691211E+00
   5.2766851E-04   5.5975923E+04   -1.6686056E+00
   5.3010534E-04   5.5547293E+04   -1.6680910E+00
   5.3255342E-04   5.5122075E+04   -1.6675771E+00
   5.3501281E-04   5.4700242E+04   -1.6670640E+00
   5.3748356E-04   5.4281766E+04   -1.6665516E+00
   5.3996571E-04   5.3866618E+04   -1.6660401E+00
   5.4245933E-04   5.3454771E+04   -1.6655293E+00
   5.4496446E-04   5.3046198E+04   -1.6650194E+00
   5.4748117E-04   5.2640871E+04   -1.6645102E+00
   5.5000949E-04   5.2238763E+04   -1.6640018E+00
   5.5254949E-04   5.1839849E+04   -1.6634943E+00
   5.5510123E-04   5.1444101E+04   -1.6629875E+00
   5.5766474E-04   5.1051493E+04   -1.6624816E+00
   5.6024010E-04   5.0662000E+04   -1.6619765E+00
   5.6282734E-04   5.0275595E+04   -1.6614722E+00
   5.6542654E-04   4.9892253E+04   -1.6609687E+00
   5.6803774E-04   4.9511948E+04   -1.6604660E+00
   5.7066099E-04   4.9134657E+04   -1.6599642E+00
   5.7329637E-04   4.8760353E+04   -1.6594632E+00
   5.7594391E-04   4.8389012E+04   -1.6589630E+00
   5.7860368E-04   4.8020609E+04   -1.6584637E+00
   5.8127573E-04   4.7655121E+04   -1.6579652E+00
   5.8396012E-04   4.7292523E+04   -1.6574675E+00
   5.8665691E-04   4.6932792E+04   -1.6569707E+00
   5.8936616E-04   4.6575904E+04   -1.6564748E+00
   5.9208791E-04   4.6221835E+04   -1.6559797E+00
   5.9482223E-04   4.5870562E+04   -1.6554855E+00
   5.9756919E-04   4.5522062E+04   -1.6549921E+00
   6.0032882E-04   4.5176312E+04   -1.6544995E+00
   6.0310120E-04   4.4833290E+04   -1.6540079E+00
   6.0588639E-04   4.4492974E+04   -1.6535171E+00
   6.0868443E-04   4.4155340E+04   -1.6530272E+00
   6.1149540E-04   4.3820368E+04   -1.6525381E+00
   6.1431935E-04   4.3488034E+04   -1.6520500E+00
   6.1715634E-04   4.3158318E+04   -1.6515627E+00
   6.2000644E-04   4.2831198E+04   -1.6510763E+00
   6.2286969E-04   4.2506652E+04   -1.6505908E+00
