#        a       HoverH0(a)       dlogHdloga_of_a(a)
   1.0000000E-04   1.1800600E+06   -1.8863569E+00
   1.0046181E-04   1.1698492E+06   -1.8859518E+00
   1.0092575E-04   1.1597289E+06   -1.8855456E+00
   1.0139184E-04   1.1496984E+06   -1.8851385E+00
   1.0186008E-04   1.1397567E+06   -1.8847303E+00
   1.0233048E-04   1.1299032E+06   -1.8843211E+00
   1.0280305E-04   1.1201369E+06   -1.8839109E+00
   1.0327781E-04   1.1104572E+06   -1.8834997E+00
   1.0375475E-04   1.1008632E+06   -1.8830875E+00
   1.0423390E-04   1.0913542E+06   -1.8826743E+00
   1.0471527E-04   1.0819293E+06   -1.8822600E+00
   1.0519885E-04   1.0725879E+06   -1.8818448E+00
   1.0568467E-04   1.0633292E+06   -1.8814285E+00
   1.0617274E-04   1.0541524E+06   -1.8810112E+00
   1.0666305E-04   1.0450569E+06   -1.8805929E+00
   1.0715563E-04   1.0360418E+06   -1.8801736E+00
   1.0765049E-04   1.0271065E+06   -1.8797533E+00
   1.0814763E-04   1.0182502E+06   -1.8793320E+00
   1.0864707E-04   1.0094723E+06   -1.8789097E+00
   1.0914881E-04   1.0007719E+06   -1.8784864E+00
   1.0965287E-04   9.9214852E+05   -1.8780620E+00
   1.1015926E-04   9.8360134E+05   -1.8776367E+00
   1.1066799E-04   9.7512970E+05   -1.8772104E+00
   1.1117906E-04   9.6673293E+05   -1.8767830E+00
   1.1169250E-04   9.5841036E+05   -1.8763547E+00
   1.1220831E-04   9.5016130E+05   -1.8759254E+00
   1.1272650E-04   9.4198512E+05   -1.8754951E+00
   1.1324708E-04   9.3388114E+05   -1.8750637E+00
   1.1377007E-04   9.2584873E+05   -1.8746314E+00
   1.1429547E-04   9.1788724E+05   -1.8741981E+00
   1.1482330E-04   9.0999603E+05   -1.8737638E+00
   1.1535356E-04   9.0217446E+05   -1.8733285E+00
   1.1588628E-04   8.9442192E+05   -1.8728922E+00
   1.1642145E-04   8.8673778E+05   -1.8724549E+00
   1.1695910E-04   8.7912143E+05   -1.8720167E+00
   1.1749923E-04   8.7157226E+05   -1.8715774E+00
   1.1804185E-04   8.6408967E+05   -1.8711372E+00
   1.1858698E-04   8.5667306E+05   -1.8706960E+00
   1.1913463E-04   8.4932183E+05   -1.8702538E+00
   1.1968481E-04   8.4203540E+05   -1.8698106E+00
   1.2023752E-04   8.3481319E+05   -1.8693664E+00
   1.2079279E-04   8.2765462E+05   -1.8689213E+00
   1.2135063E-04   8.2055913E+05   -1.8684751E+00
   1.2191104E-04   8.1352613E+05   -1.8680280E+00
   1.2247403E-04   8.0655508E+05   -1.8675800E+00
   1.2303963E-04   7.9964542E+05   -1.8671309E+00
   1.2360784E-04   7.9279659E+05   -1.8666809E+00
   1.2417868E-04   7.8600805E+05   -1.8662299E+00
   1.2475215E-04   7.7927926E+05   -1.8657780E+00
   1.2532826E-04   7.7260969E+05   -1.8653251E+00
   1.2590704E-04   7.6599880E+05   -1.8648712E+00
   1.2648850E-04   7.5944606E+05   -1.8644163E+00
   1.2707263E-04   7.5295096E+05   -1.8639605E+00
   1.2765947E-04   7.4651298E+05   -1.8635038E+00
   1.2824901E-04   7.4013160E+05   -1.8630461E+00
   1.2884128E-04   7.3380633E+05   -1.8625874E+00
   1.2943628E-04   7.2753664E+05   -1.8621278E+00
   1.3003403E-04   7.2132206E+05   -1.8616672E+00
   1.3063454E-04   7.1516208E+05   -1.8612057E+00
   1.3123783E-04   7.0905622E+05   -1.8607432E+00
   1.3184390E-04   7.0300398E+05   -1.8602798E+00
   1.3245277E-04   6.9700490E+05   -1.8598154E+00
   1.3306445E-04   6.9105848E+05   -1.8593501E+00
   1.3367895E-04   6.8516427E+05   -1.8588839E+00
   1.3429630E-04   6.7932179E+05   -1.8584167E+00
   1.3491649E-04   6.7353058E+05   -1.8579486E+00
   1.3553955E-04   6.6779019E+05   -1.8574796E+00
   1.3616548E-04   6.6210015E+05   -1.8570096E+00
   1.3679431E-04   6.5646002E+05   -1.8565387E+00
   1.3742604E-04   6.5086935E+05   -1.8560669E+00
   1.3806069E-04   6.4532769E+05   -1.8555941E+00
   1.3869827E-04   6.3983462E+05   -1.8551204E+00
   1.3933879E-04   6.3438968E+05   -1.8546458E+00
   1.3998227E-04   6.2899246E+05   -1.8541703E+00
   1.4062872E-04   6.2364252E+05   -1.8536939E+00
   1.4127816E-04   6.1833945E+05   -1.8532166E+00
   1.4193060E-04   6.1308282E+05   -1.8527383E+00
   1.4258605E-04   6.0787221E+05   -1.8522592E+00
   1.4324453E-04   6.0270723E+05   -1.8517791E+00
   1.4390605E-04   5.9758745E+05   -1.8512982E+00
   1.4457062E-04   5.9251248E+05   -1.8508163E+00
   1.4523826E-04   5.8748192E+05   -1.8503336E+00
   1.4590899E-04   5.8249536E+05   -1.8498499E+00
   1.4658281E-04   5.7755241E+05   -1.8493654E+00
   1.4725974E-04   5.7265269E+05   -1.8488800E+00
   1.4793981E-04   5.6779581E+05   -1.8483937E+00
   1.4862301E-04   5.6298139E+05   -1.8479065E+00
   1.4930936E-04   5.5820904E+05   -1.8474184E+00
   1.4999889E-04   5.5347839E+05   -1.8469295E+00
   1.5069160E-04   5.4878906E+05   -1.8464397E+00
   1.5138751E-04   5.4414070E+05   -1.8459490E+00
   1.5208663E-04   5.3953293E+05   -1.8454574E+00
   1.5278899E-04   5.3496539E+05   -1.8449650E+00
   1.5349458E-04   5.3043773E+05   -1.8444717E+00
   1.5420343E-04   5.2594958E+05   -1.8439775E+00
   1.5491556E-04   5.2150060E+05   -1.8434825E+00
   1.5563098E-04   5.1709043E+05   -1.8429867E+00
   1.5634970E-04   5.1271872E+05   -1.8424900E+00
   1.5707174E-04   5.0838514E+05   -1.8419924E+00
   1.5779711E-04   5.0408935E+05   -1.8414940E+00
   1.5852584E-04   4.9983100E+05   -1.8409947E+00
   1.5925792E-04   4.9560977E+05   -1.8404947E+00
   1.5999339E-04   4.9142532E+05   -1.8399937E+00
   1.6073226E-04   4.8727732E+05   -1.8394920E+00
   1.6147454E-04   4.8316546E+05   -1.8389894E+00
   1.6222024E-04   4.7908940E+05   -1.8384860E+00
   1.6296939E-04   4.7504884E+05   -1.8379818E+00
   1.6372200E-04   4.7104344E+05   -1.8374767E+00
   1.6447809E-04   4.6707291E+05   -1.8369709E+00
   1.6523767E-04   4.6313692E+05   -1.8364642E+00
   1.6600075E-04   4.5923518E+05   -1.8359567E+00
   1.6676736E-04   4.5536737E+05   -1.8354484E+00
   1.6753751E-04   4.5153319E+05   -1.8349394E+00
   1.6831122E-04   4.4773235E+05   -1.8344295E+00
   1.6908849E-04   4.4396455E+05   -1.8339188E+00
   1.6986936E-04   4.4022949E+05   -1.8334073E+00
   1.7065384E-04   4.3652688E+05   -1.8328951E+00
   1.7144193E-04   4.3285644E+05   -1.8323820E+00
   1.7223367E-04   4.2921787E+05   -1.8318682E+00
   1.7302906E-04   4.2561090E+05   -1.8313536E+00
   1.7382813E-04   4.2203524E+05   -1.8308383E+00
   1.7463089E-04   4.1849062E+05   -1.8303221E+00
   1.7543735E-04   4.1497676E+05   -1.8298052E+00
   1.7624754E-04   4.1149338E+05   -1.8292876E+00
   1.7706147E-04   4.0804021E+05   -1.8287691E+00
   1.7787916E-04   4.0461699E+05   -1.8282500E+00
   1.7870062E-04   4.0122345E+05   -1.8277300E+00
   1.7952588E-04   3.9785932E+05   -1.8272094E+00
   1.8035495E-04   3.9452435E+05   -1.8266880E+00
   1.8118785E-04   3.9121827E+05   -1.8261658E+00
   1.8202459E-04   3.8794083E+05   -1.8256429E+00
   1.8286520E-04   3.8469178E+05   -1.8251193E+00
   1.8370969E-04   3.8147086E+05   -1.8245950E+00
   1.8455808E-04   3.7827782E+05   -1.8240699E+00
   1.8541039E-04   3.7511241E+05   -1.8235442E+00
   1.8626663E-04   3.7197440E+05   -1.8230177E+00
   1.8712683E-04   3.6886353E+05   -1.8224905E+00
   1.8799100E-04   3.6577957E+05   -1.8219626E+00
   1.8885917E-04   3.6272227E+05   -1.8214340E+00
   1.8973134E-04   3.5969141E+05   -1.8209047E+00
   1.9060754E-04   3.5668674E+05   -1.8203747E+00
   1.9148778E-04   3.5370803E+05   -1.8198440E+00
   1.9237209E-04   3.5075506E+05   -1.8193126E+00
   1.9326049E-04   3.4782759E+05   -1.8187806E+00
   1.9415299E-04   3.4492540E+05   -1.8182479E+00
   1.9504960E-04   3.4204827E+05   -1.8177145E+00
   1.9595036E-04   3.3919597E+05   -1.8171804E+00
   1.9685528E-04   3.3636829E+05   -1.8166457E+00
   1.9776438E-04   3.3356500E+05   -1.8161103E+00
   1.9867768E-04   3.3078589E+05   -1.8155743E+00
   1.9959519E-04   3.2803074E+05   -1.8150376E+00
   2.0051694E-04   3.2529934E+05   -1.8145003E+00
   2.0144295E-04   3.2259149E+05   -1.8139623E+00
   2.0237324E-04   3.1990698E+05   -1.8134237E+00
   2.0330782E-04   3.1724558E+05   -1.8128845E+00
   2.0424671E-04   3.1460712E+05   -1.8123446E+00
   2.0518995E-04   3.1199137E+05   -1.8118042E+00
   2.0613754E-04   3.0939814E+05   -1.8112631E+00
   2.0708950E-04   3.0682723E+05   -1.8107214E+00
   2.0804586E-04   3.0427845E+05   -1.8101791E+00
   2.0900664E-04   3.0175159E+05   -1.8096362E+00
   2.0997185E-04   2.9924647E+05   -1.8090927E+00
   2.1094152E-04   2.9676288E+05   -1.8085486E+00
   2.1191567E-04   2.9430065E+05   -1.8080039E+00
   2.1289432E-04   2.9185958E+05   -1.8074586E+00
   2.1387749E-04   2.8943948E+05   -1.8069127E+00
   2.1486520E-04   2.8704017E+05   -1.8063663E+00
   2.1585747E-04   2.8466147E+05   -1.8058193E+00
   2.1685432E-04   2.8230319E+05   -1.8052718E+00
   2.1785578E-04   2.7996516E+05   -1.8047237E+00
   2.1886186E-04   2.7764719E+05   -1.8041750E+00
   2.1987259E-04   2.7534911E+05   -1.8036258E+00
   2.2088798E-04   2.7307074E+05   -1.8030760E+00
   2.2190807E-04   2.7081191E+05   -1.8025257E+00
   2.2293286E-04   2.6857245E+05   -1.8019749E+00
   2.2396239E-04   2.6635218E+05   -1.8014235E+00
   2.2499667E-04   2.6415094E+05   -1.8008717E+00
   2.2603573E-04   2.6196856E+05   -1.8003193E+00
   2.2707958E-04   2.5980487E+05   -1.7997663E+00
   2.2812826E-04   2.5765971E+05   -1.7992129E+00
   2.2918178E-04   2.5553291E+05   -1.7986590E+00
   2.3024017E-04   2.5342431E+05   -1.7981046E+00
   2.3130344E-04   2.5133375E+05   -1.7975497E+00
   2.3237162E-04   2.4926108E+05   -1.7969943E+00
   2.3344474E-04   2.4720613E+05   -1.7964384E+00
   2.3452281E-04   2.4516876E+05   -1.7958820E+00
   2.3560586E-04   2.4314880E+05   -1.7953252E+00
   2.3669392E-04   2.4114610E+05   -1.7947679E+00
   2.3778699E-04   2.3916051E+05   -1.7942102E+00
   2.3888512E-04   2.3719187E+05   -1.7936519E+00
   2.3998831E-04   2.3524005E+05   -1.7930933E+00
   2.4109661E-04   2.3330489E+05   -1.7925342E+00
   2.4221001E-04   2.3138625E+05   -1.7919746E+00
   2.4332857E-04   2.2948397E+05   -1.7914147E+00
   2.4445228E-04   2.2759793E+05   -1.7908543E+00
   2.4558119E-04   2.2572796E+05   -1.7902934E+00
   2.4671531E-04   2.2387394E+05   -1.7897322E+00
   2.4785467E-04   2.2203572E+05   -1.7891705E+00
   2.4899928E-04   2.2021317E+05   -1.7886085E+00
   2.5014919E-04   2.1840614E+05   -1.7880460E+00
   2.5130440E-04   2.1661450E+05   -1.7874831E+00
   2.5246495E-04   2.1483811E+05   -1.7869199E+00
   2.5363086E-04   2.1307685E+05   -1.7863563E+00
   2.5480216E-04   2.1133057E+05   -1.7857923E+00
   2.5597886E-04   2.0959915E+05   -1.7852279E+00
   2.5716100E-04   2.0788246E+05   -1.7846631E+00
   2.5834859E-04   2.0618036E+05   -1.7840980E+00
   2.5954168E-04   2.0449274E+05   -1.7835326E+00
   2.6074027E-04   2.0281945E+05   -1.7829667E+00
   2.6194439E-04   2.0116038E+05   -1.7824006E+00
   2.6315408E-04   1.9951540E+05   -1.7818341E+00
   2.6436935E-04   1.9788440E+05   -1.7812673E+00
   2.6559024E-04   1.9626723E+05   -1.7807001E+00
   2.6681676E-04   1.9466380E+05   -1.7801326E+00
   2.6804895E-04   1.9307396E+05   -1.7795648E+00
   2.6928683E-04   1.9149761E+05   -1.7789967E+00
   2.7053042E-04   1.8993463E+05   -1.7784283E+00
   2.7177976E-04   1.8838490E+05   -1.7778596E+00
   2.7303487E-04   1.8684831E+05   -1.7772906E+00
   2.7429577E-04   1.8532473E+05   -1.7767213E+00
   2.7556250E-04   1.8381406E+05   -1.7761517E+00
   2.7683507E-04   1.8231618E+05   -1.7755819E+00
   2.7811353E-04   1.8083098E+05   -1.7750118E+00
   2.7939788E-04   1.7935836E+05   -1.7744414E+00
   2.8068817E-04   1.7789819E+05   -1.7738708E+00
   2.8198442E-04   1.7645037E+05   -1.7732999E+00
   2.8328665E-04   1.7501480E+05   -1.7727288E+00
   2.8459490E-04   1.7359137E+05   -1.7721574E+00
   2.8590919E-04   1.7217996E+05   -1.7715858E+00
   2.8722955E-04   1.7078048E+05   -1.7710139E+00
   2.8855600E-04   1.6939282E+05   -1.7704419E+00
   2.8988859E-04   1.6801688E+05   -1.7698696E+00
   2.9122732E-04   1.6665256E+05   -1.7692971E+00
   2.9257224E-04   1.6529975E+05   -1.7687245E+00
   2.9392337E-04   1.6395835E+05   -1.7681516E+00
   2.9528074E-04   1.6262827E+05   -1.7675785E+00
   2.9664438E-04   1.6130941E+05   -1.7670052E+00
   2.9801431E-04   1.6000166E+05   -1.7664318E+00
   2.9939057E-04   1.5870494E+05   -1.7658582E+00
   3.0077319E-04   1.5741914E+05   -1.7652844E+00
   3.0216219E-04   1.5614417E+05   -1.7647104E+00
   3.0355761E-04   1.5487994E+05   -1.7641363E+00
   3.0495947E-04   1.5362634E+05   -1.7635621E+00
   3.0636780E-04   1.5238330E+05   -1.7629877E+00
   3.0778264E-04   1.5115072E+05   -1.7624131E+00
   3.0920401E-04   1.4992850E+05   -1.7618385E+00
   3.1063195E-04   1.4871656E+05   -1.7612637E+00
   3.1206648E-04   1.4751481E+05   -1.7606888E+00
   3.1350764E-04   1.4632316E+05   -1.7601137E+00
   3.1495545E-04   1.4514151E+05   -1.7595386E+00
   3.1640994E-04   1.4396979E+05   -1.7589634E+00
   3.1787116E-04   1.4280791E+05   -1.7583880E+00
   3.1933912E-04   1.4165578E+05   -1.7578126E+00
   3.2081386E-04   1.4051332E+05   -1.7572371E+00
   3.2229541E-04   1.3938045E+05   -1.7566615E+00
   3.2378381E-04   1.3825707E+05   -1.7560859E+00
   3.2527908E-04   1.3714311E+05   -1.7555101E+00
   3.2678125E-04   1.3603849E+05   -1.7549344E+00
   3.2829036E-04   1.3494312E+05   -1.7543585E+00
   3.2980644E-04   1.3385693E+05   -1.7537826E+00
   3.3132952E-04   1.3277983E+05   -1.7532067E+00
   3.3285963E-04   1.3171175E+05   -1.7526308E+00
   3.3439681E-04   1.3065260E+05   -1.7520548E+00
   3.3594109E-04   1.2960232E+05   -1.7514788E+00
   3.3749250E-04   1.2856083E+05   -1.7509028E+00
   3.3905108E-04   1.2752804E+05   -1.7503267E+00
   3.4061685E-04   1.2650388E+05   -1.7497507E+00
   3.4218986E-04   1.2548828E+05   -1.7491746E+00
   3.4377013E-04   1.2448117E+05   -1.7485986E+00
   3.4535769E-04   1.2348246E+05   -1.7480226E+00
   3.4695259E-04   1.2249209E+05   -1.7474466E+00
   3.4855485E-04   1.2150999E+05   -1.7468706E+00
   3.5016452E-04   1.2053608E+05   -1.7462947E+00
   3.5178161E-04   1.1957030E+05   -1.7457188E+00
   3.5340618E-04   1.1861257E+05   -1.7451430E+00
   3.5503824E-04   1.1766282E+05   -1.7445672E+00
   3.5667785E-04   1.1672099E+05   -1.7439914E+00
   3.5832502E-04   1.1578700E+05   -1.7434157E+00
   3.5997981E-04   1.1486079E+05   -1.7428401E+00
   3.6164223E-04   1.1394229E+05   -1.7422646E+00
   3.6331233E-04   1.1303144E+05   -1.7416891E+00
   3.6499015E-04   1.1212816E+05   -1.7411138E+00
   3.6667571E-04   1.1123240E+05   -1.7405385E+00
   3.6836906E-04   1.1034409E+05   -1.7399633E+00
   3.7007022E-04   1.0946316E+05   -1.7393883E+00
   3.7177925E-04   1.0858955E+05   -1.7388133E+00
   3.7349616E-04   1.0772320E+05   -1.7382385E+00
   3.7522101E-04   1.0686404E+05   -1.7376637E+00
   3.7695382E-04   1.0601202E+05   -1.7370892E+00
   3.7869463E-04   1.0516707E+05   -1.7365147E+00
   3.8044348E-04   1.0432913E+05   -1.7359404E+00
   3.8220041E-04   1.0349814E+05   -1.7353662E+00
   3.8396545E-04   1.0267404E+05   -1.7347922E+00
   3.8573864E-04   1.0185677E+05   -1.7342184E+00
   3.8752002E-04   1.0104627E+05   -1.7336447E+00
   3.8930963E-04   1.0024249E+05   -1.7330712E+00
   3.9110750E-04   9.9445366E+04   -1.7324979E+00
   3.9291368E-04   9.8654840E+04   -1.7319247E+00
   3.9472820E-04   9.7870856E+04   -1.7313518E+00
   3.9655109E-04   9.7093358E+04   -1.7307790E+00
   3.9838241E-04   9.6322291E+04   -1.7302065E+00
   4.0022218E-04   9.5557600E+04   -1.7296341E+00
   4.0207045E-04   9.4799230E+04   -1.7290620E+00
   4.0392725E-04   9.4047126E+04   -1.7284901E+00
   4.0579263E-04   9.3301234E+04   -1.7279184E+00
   4.0766662E-04   9.2561503E+04   -1.7273469E+00
   4.0954927E-04   9.1827878E+04   -1.7267757E+00
   4.1144061E-04   9.1100307E+04   -1.7262047E+00
   4.1334068E-04   9.0378738E+04   -1.7256340E+00
   4.1524953E-04   8.9663121E+04   -1.7250635E+00
   4.1716720E-04   8.8953403E+04   -1.7244933E+00
   4.1909372E-04   8.8249535E+04   -1.7239233E+00
   4.2102914E-04   8.7551466E+04   -1.7233537E+00
   4.2297350E-04   8.6859147E+04   -1.7227843E+00
   4.2492683E-04   8.6172529E+04   -1.7222152E+00
   4.2688919E-04   8.5491562E+04   -1.7216464E+00
   4.2886061E-04   8.4816199E+04   -1.7210778E+00
   4.3084113E-04   8.4146392E+04   -1.7205096E+00
   4.3283080E-04   8.3482093E+04   -1.7199417E+00
   4.3482966E-04   8.2823254E+04   -1.7193741E+00
   4.3683775E-04   8.2169830E+04   -1.7188068E+00
   4.3885511E-04   8.1521775E+04   -1.7182399E+00
   4.4088179E-04   8.0879041E+04   -1.7176733E+00
   4.4291783E-04   8.0241584E+04   -1.7171070E+00
   4.4496327E-04   7.9609359E+04   -1.7165410E+00
   4.4701816E-04   7.8982321E+04   -1.7159754E+00
   4.4908253E-04   7.8360427E+04   -1.7154102E+00
   4.5115644E-04   7.7743631E+04   -1.7148453E+00
   4.5323993E-04   7.7131891E+04   -1.7142808E+00
   4.5533304E-04   7.6525164E+04   -1.7137166E+00
   4.5743582E-04   7.5923406E+04   -1.7131529E+00
   4.5954830E-04   7.5326576E+04   -1.7125895E+00
   4.6167054E-04   7.4734632E+04   -1.7120265E+00
   4.6380259E-04   7.4147532E+04   -1.7114639E+00
   4.6594448E-04   7.3565234E+04   -1.7109016E+00
   4.6809626E-04   7.2987698E+04   -1.7103398E+00
   4.7025797E-04   7.2414884E+04   -1.7097784E+00
   4.7242967E-04   7.1846751E+04   -1.7092175E+00
   4.7461140E-04   7.1283259E+04   -1.7086569E+00
   4.7680321E-04   7.0724369E+04   -1.7080968E+00
   4.7900514E-04   7.0170043E+04   -1.7075370E+00
   4.8121723E-04   6.9620240E+04   -1.7069778E+00
   4.8343954E-04   6.9074924E+04   -1.7064189E+00
   4.8567212E-04   6.8534055E+04   -1.7058606E+00
   4.8791500E-04   6.7997596E+04   -1.7053026E+00
   4.9016825E-04   6.7465510E+04   -1.7047452E+00
   4.9243189E-04   6.6937759E+04   -1.7041882E+00
   4.9470600E-04   6.6414307E+04   -1.7036316E+00
   4.9699060E-04   6.5895117E+04   -1.7030756E+00
   4.9928575E-04   6.5380153E+04   -1.7025200E+00
   5.0159151E-04   6.4869380E+04   -1.7019649E+00
   5.0390791E-04   6.4362761E+04   -1.7014103E+00
   5.0623501E-04   6.3860262E+04   -1.7008562E+00
   5.0857286E-04   6.3361848E+04   -1.7003026E+00
   5.1092150E-04   6.2867485E+04   -1.6997495E+00
   5.1328099E-04   6.2377137E+04   -1.6991969E+00
   5.1565137E-04   6.1890772E+04   -1.6986448E+00
   5.1803270E-04   6.1408355E+04   -1.6980932E+00
   5.2042503E-04   6.0929853E+04   -1.6975422E+00
   5.2282841E-04   6.0455233E+04   -1.6969917E+00
   5.2524289E-04   5.9984462E+04   -1.6964417E+00
   5.2766851E-04   5.9517507E+04   -1.6958923E+00
   5.3010534E-04   5.9054338E+04   -1.6953434E+00
   5.3255342E-04   5.8594920E+04   -1.6947951E+00
   5.3501281E-04   5.8139224E+04   -1.6942473E+00
   5.3748356E-04   5.7687217E+04   -1.6937001E+00
   5.3996571E-04   5.7238868E+04   -1.6931535E+00
   5.4245933E-04   5.6794147E+04   -1.6926074E+00
   5.4496446E-04   5.6353024E+04   -1.6920619E+00
   5.4748117E-04   5.5915466E+04   -1.6915170E+00
   5.5000949E-04   5.5481446E+04   -1.6909727E+00
   5.5254949E-04   5.5050932E+04   -1.6904289E+00
   5.5510123E-04   5.4623896E+04   -1.6898858E+00
   5.5766474E-04   5.4200308E+04   -1.6893433E+00
   5.6024010E-04   5.3780139E+04   -1.6888013E+00
   5.6282734E-04   5.3363360E+04   -1.6882600E+00
   5.6542654E-04   5.2949943E+04   -1.6877193E+00
   5.6803774E-04   5.2539860E+04   -1.6871792E+00
   5.7066099E-04   5.2133083E+04   -1.6866397E+00
   5.7329637E-04   5.1729583E+04   -1.6861009E+00
   5.7594391E-04   5.1329334E+04   -1.6855627E+00
   5.7860368E-04   5.0932308E+04   -1.6850251E+00
   5.8127573E-04   5.0538478E+04   -1.6844882E+00
   5.8396012E-04   5.0147817E+04   -1.6839519E+00
   5.8665691E-04   4.9760299E+04   -1.6834163E+00
   5.8936616E-04   4.9375897E+04   -1.6828813E+00
   5.9208791E-04   4.8994585E+04   -1.6823470E+00
   5.9482223E-04   4.8616338E+04   -1.6818133E+00
   5.9756919E-04   4.8241129E+04   -1.6812803E+00
   6.0032882E-04   4.7868934E+04   -1.6807480E+00
   6.0310120E-04   4.7499727E+04   -1.6802164E+00
   6.0588639E-04   4.7133482E+04   -1.6796854E+00
   6.0868443E-04   4.6770176E+04   -1.6791552E+00
   6.1149540E-04   4.6409784E+04   -1.6786256E+00
   6.1431935E-04   4.6052281E+04   -1.6780967E+00
   6.1715634E-04   4.5697643E+04   -1.6775685E+00
   6.2000644E-04   4.5345847E+04   -1.6770410E+00
   6.2286969E-04   4.4996868E+04   -1.6765143E+00
