#        a       HoverH0(a)       dlogHdloga_of_a(a)
   1.0000000E-04   1.1871030E+06   -1.8879233E+00
   1.0046181E-04   1.1768228E+06   -1.8875222E+00
   1.0092575E-04   1.1666337E+06   -1.8871200E+00
   1.0139184E-04   1.1565351E+06   -1.8867168E+00
   1.0186008E-04   1.1465260E+06   -1.8863126E+00
   1.0233048E-04   1.1366056E+06   -1.8859073E+00
   1.0280305E-04   1.1267731E+06   -1.8855011E+00
   1.0327781E-04   1.1170279E+06   -1.8850938E+00
   1.0375475E-04   1.1073689E+06   -1.8846856E+00
   1.0423390E-04   1.0977956E+06   -1.8842763E+00
   1.0471527E-04   1.0883071E+06   -1.8838659E+00
   1.0519885E-04   1.0789027E+06   -1.8834546E+00
   1.0568467E-04   1.0695815E+06   -1.8830423E+00
   1.0617274E-04   1.0603429E+06   -1.8826289E+00
   1.0666305E-04   1.0511861E+06   -1.8822146E+00
   1.0715563E-04   1.0421103E+06   -1.8817992E+00
   1.0765049E-04   1.0331149E+06   -1.8813828E+00
   1.0814763E-04   1.0241991E+06   -1.8809654E+00
   1.0864707E-04   1.0153622E+06   -1.8805470E+00
   1.0914881E-04   1.0066035E+06   -1.8801276E+00
   1.0965287E-04   9.9792233E+05   -1.8797072E+00
   1.1015926E-04   9.8931790E+05   -1.8792858E+00
   1.1066799E-04   9.8078957E+05   -1.8788634E+00
   1.1117906E-04   9.7233665E+05   -1.8784399E+00
   1.1169250E-04   9.6395846E+05   -1.8780155E+00
   1.1220831E-04   9.5565433E+05   -1.8775901E+00
   1.1272650E-04   9.4742360E+05   -1.8771636E+00
   1.1324708E-04   9.3926561E+05   -1.8767362E+00
   1.1377007E-04   9.3117971E+05   -1.8763077E+00
   1.1429547E-04   9.2316523E+05   -1.8758783E+00
   1.1482330E-04   9.1522155E+05   -1.8754479E+00
   1.1535356E-04   9.0734802E+05   -1.8750164E+00
   1.1588628E-04   8.9954402E+05   -1.8745840E+00
   1.1642145E-04   8.9180892E+05   -1.8741506E+00
   1.1695910E-04   8.8414210E+05   -1.8737162E+00
   1.1749923E-04   8.7654294E+05   -1.8732807E+00
   1.1804185E-04   8.6901085E+05   -1.8728444E+00
   1.1858698E-04   8.6154521E+05   -1.8724070E+00
   1.1913463E-04   8.5414543E+05   -1.8719686E+00
   1.1968481E-04   8.4681092E+05   -1.8715292E+00
   1.2023752E-04   8.3954110E+05   -1.8710889E+00
   1.2079279E-04   8.3233538E+05   -1.8706475E+00
   1.2135063E-04   8.2519318E+05   -1.8702052E+00
   1.2191104E-04   8.1811394E+05   -1.8697619E+00
   1.2247403E-04   8.1109709E+05   -1.8693177E+00
   1.2303963E-04   8.0414207E+05   -1.8688724E+00
   1.2360784E-04   7.9724832E+05   -1.8684262E+00
   1.2417868E-04   7.9041530E+05   -1.8679790E+00
   1.2475215E-04   7.8364246E+05   -1.8675308E+00
   1.2532826E-04   7.7692926E+05   -1.8670817E+00
   1.2590704E-04   7.7027517E+05   -1.8666315E+00
   1.2648850E-04   7.6367965E+05   -1.8661804E+00
   1.2707263E-04   7.5714218E+05   -1.8657284E+00
   1.2765947E-04   7.5066224E+05   -1.8652754E+00
   1.2824901E-04   7.4423932E+05   -1.8648214E+00
   1.2884128E-04   7.3787289E+05   -1.8643664E+00
   1.2943628E-04   7.3156247E+05   -1.8639105E+00
   1.3003403E-04   7.2530753E+05   -1.8634537E+00
   1.3063454E-04   7.1910759E+05   -1.8629958E+00
   1.3123783E-04   7.1296215E+05   -1.8625371E+00
   1.3184390E-04   7.0687073E+05   -1.8620773E+00
   1.3245277E-04   7.0083284E+05   -1.8616167E+00
   1.3306445E-04   6.9484799E+05   -1.8611550E+00
   1.3367895E-04   6.8891572E+05   -1.8606924E+00
   1.3429630E-04   6.8303556E+05   -1.8602289E+00
   1.3491649E-04   6.7720703E+05   -1.8597645E+00
   1.3553955E-04   6.7142968E+05   -1.8592991E+00
   1.3616548E-04   6.6570305E+05   -1.8588327E+00
   1.3679431E-04   6.6002667E+05   -1.8583654E+00
   1.3742604E-04   6.5440011E+05   -1.8578972E+00
   1.3806069E-04   6.4882292E+05   -1.8574281E+00
   1.3869827E-04   6.4329465E+05   -1.8569580E+00
   1.3933879E-04   6.3781486E+05   -1.8564870E+00
   1.3998227E-04   6.3238313E+05   -1.8560151E+00
   1.4062872E-04   6.2699902E+05   -1.8555422E+00
   1.4127816E-04   6.2166210E+05   -1.8550684E+00
   1.4193060E-04   6.1637196E+05   -1.8545938E+00
   1.4258605E-04   6.1112818E+05   -1.8541181E+00
   1.4324453E-04   6.0593033E+05   -1.8536416E+00
   1.4390605E-04   6.0077801E+05   -1.8531642E+00
   1.4457062E-04   5.9567082E+05   -1.8526859E+00
   1.4523826E-04   5.9060835E+05   -1.8522066E+00
   1.4590899E-04   5.8559020E+05   -1.8517265E+00
   1.4658281E-04   5.8061597E+05   -1.8512454E+00
   1.4725974E-04   5.7568526E+05   -1.8507634E+00
   1.4793981E-04   5.7079770E+05   -1.8502806E+00
   1.4862301E-04   5.6595290E+05   -1.8497969E+00
   1.4930936E-04   5.6115047E+05   -1.8493122E+00
   1.4999889E-04   5.5639003E+05   -1.8488267E+00
   1.5069160E-04   5.5167121E+05   -1.8483403E+00
   1.5138751E-04   5.4699364E+05   -1.8478530E+00
   1.5208663E-04   5.4235695E+05   -1.8473648E+00
   1.5278899E-04   5.3776078E+05   -1.8468758E+00
   1.5349458E-04   5.3320476E+05   -1.8463859E+00
   1.5420343E-04   5.2868853E+05   -1.8458951E+00
   1.5491556E-04   5.2421174E+05   -1.8454034E+00
   1.5563098E-04   5.1977404E+05   -1.8449109E+00
   1.5634970E-04   5.1537507E+05   -1.8444175E+00
   1.5707174E-04   5.1101450E+05   -1.8439233E+00
   1.5779711E-04   5.0669198E+05   -1.8434282E+00
   1.5852584E-04   5.0240716E+05   -1.8429322E+00
   1.5925792E-04   4.9815972E+05   -1.8424354E+00
   1.5999339E-04   4.9394932E+05   -1.8419378E+00
   1.6073226E-04   4.8977563E+05   -1.8414393E+00
   1.6147454E-04   4.8563832E+05   -1.8409399E+00
   1.6222024E-04   4.8153707E+05   -1.8404398E+00
   1.6296939E-04   4.7747156E+05   -1.8399387E+00
   1.6372200E-04   4.7344147E+05   -1.8394369E+00
   1.6447809E-04   4.6944648E+05   -1.8389342E+00
   1.6523767E-04   4.6548627E+05   -1.8384307E+00
   1.6600075E-04   4.6156055E+05   -1.8379264E+00
   1.6676736E-04   4.5766900E+05   -1.8374213E+00
   1.6753751E-04   4.5381132E+05   -1.8369153E+00
   1.6831122E-04   4.4998720E+05   -1.8364086E+00
   1.6908849E-04   4.4619635E+05   -1.8359010E+00
   1.6986936E-04   4.4243847E+05   -1.8353926E+00
   1.7065384E-04   4.3871327E+05   -1.8348835E+00
   1.7144193E-04   4.3502045E+05   -1.8343735E+00
   1.7223367E-04   4.3135974E+05   -1.8338627E+00
   1.7302906E-04   4.2773083E+05   -1.8333512E+00
   1.7382813E-04   4.2413346E+05   -1.8328388E+00
   1.7463089E-04   4.2056733E+05   -1.8323257E+00
   1.7543735E-04   4.1703218E+05   -1.8318118E+00
   1.7624754E-04   4.1352772E+05   -1.8312971E+00
   1.7706147E-04   4.1005368E+05   -1.8307817E+00
   1.7787916E-04   4.0660979E+05   -1.8302654E+00
   1.7870062E-04   4.0319579E+05   -1.8297484E+00
   1.7952588E-04   3.9981141E+05   -1.8292307E+00
   1.8035495E-04   3.9645638E+05   -1.8287122E+00
   1.8118785E-04   3.9313044E+05   -1.8281929E+00
   1.8202459E-04   3.8983334E+05   -1.8276729E+00
   1.8286520E-04   3.8656482E+05   -1.8271522E+00
   1.8370969E-04   3.8332462E+05   -1.8266307E+00
   1.8455808E-04   3.8011250E+05   -1.8261085E+00
   1.8541039E-04   3.7692820E+05   -1.8255855E+00
   1.8626663E-04   3.7377147E+05   -1.8250618E+00
   1.8712683E-04   3.7064208E+05   -1.8245374E+00
   1.8799100E-04   3.6753978E+05   -1.8240123E+00
   1.8885917E-04   3.6446433E+05   -1.8234864E+00
   1.8973134E-04   3.6141549E+05   -1.8229598E+00
   1.9060754E-04   3.5839302E+05   -1.8224325E+00
   1.9148778E-04   3.5539669E+05   -1.8219046E+00
   1.9237209E-04   3.5242628E+05   -1.8213759E+00
   1.9326049E-04   3.4948154E+05   -1.8208465E+00
   1.9415299E-04   3.4656225E+05   -1.8203164E+00
   1.9504960E-04   3.4366818E+05   -1.8197857E+00
   1.9595036E-04   3.4079912E+05   -1.8192542E+00
   1.9685528E-04   3.3795484E+05   -1.8187221E+00
   1.9776438E-04   3.3513512E+05   -1.8181893E+00
   1.9867768E-04   3.3233974E+05   -1.8176559E+00
   1.9959519E-04   3.2956849E+05   -1.8171217E+00
   2.0051694E-04   3.2682115E+05   -1.8165869E+00
   2.0144295E-04   3.2409751E+05   -1.8160515E+00
   2.0237324E-04   3.2139737E+05   -1.8155154E+00
   2.0330782E-04   3.1872051E+05   -1.8149786E+00
   2.0424671E-04   3.1606672E+05   -1.8144412E+00
   2.0518995E-04   3.1343581E+05   -1.8139032E+00
   2.0613754E-04   3.1082756E+05   -1.8133645E+00
   2.0708950E-04   3.0824179E+05   -1.8128252E+00
   2.0804586E-04   3.0567829E+05   -1.8122853E+00
   2.0900664E-04   3.0313687E+05   -1.8117448E+00
   2.0997185E-04   3.0061732E+05   -1.8112036E+00
   2.1094152E-04   2.9811946E+05   -1.8106618E+00
   2.1191567E-04   2.9564309E+05   -1.8101195E+00
   2.1289432E-04   2.9318802E+05   -1.8095765E+00
   2.1387749E-04   2.9075407E+05   -1.8090329E+00
   2.1486520E-04   2.8834105E+05   -1.8084887E+00
   2.1585747E-04   2.8594877E+05   -1.8079440E+00
   2.1685432E-04   2.8357705E+05   -1.8073986E+00
   2.1785578E-04   2.8122571E+05   -1.8068527E+00
   2.1886186E-04   2.7889456E+05   -1.8063062E+00
   2.1987259E-04   2.7658344E+05   -1.8057592E+00
   2.2088798E-04   2.7429216E+05   -1.8052116E+00
   2.2190807E-04   2.7202055E+05   -1.8046634E+00
   2.2293286E-04   2.6976844E+05   -1.8041147E+00
   2.2396239E-04   2.6753564E+05   -1.8035654E+00
   2.2499667E-04   2.6532200E+05   -1.8030156E+00
   2.2603573E-04   2.6312734E+05   -1.8024652E+00
   2.2707958E-04   2.6095150E+05   -1.8019143E+00
   2.2812826E-04   2.5879431E+05   -1.8013629E+00
   2.2918178E-04   2.5665560E+05   -1.8008110E+00
   2.3024017E-04   2.5453521E+05   -1.8002585E+00
   2.3130344E-04   2.5243299E+05   -1.7997055E+00
   2.3237162E-04   2.5034876E+05   -1.7991521E+00
   2.3344474E-04   2.4828238E+05   -1.7985981E+00
   2.3452281E-04   2.4623368E+05   -1.7980436E+00
   2.3560586E-04   2.4420251E+05   -1.7974886E+00
   2.3669392E-04   2.4218872E+05   -1.7969332E+00
   2.3778699E-04   2.4019214E+05   -1.7963772E+00
   2.3888512E-04   2.3821264E+05   -1.7958208E+00
   2.3998831E-04   2.3625006E+05   -1.7952639E+00
   2.4109661E-04   2.3430425E+05   -1.7947066E+00
   2.4221001E-04   2.3237506E+05   -1.7941488E+00
   2.4332857E-04   2.3046234E+05   -1.7935905E+00
   2.4445228E-04   2.2856596E+05   -1.7930318E+00
   2.4558119E-04   2.2668577E+05   -1.7924727E+00
   2.4671531E-04   2.2482162E+05   -1.7919131E+00
   2.4785467E-04   2.2297338E+05   -1.7913530E+00
   2.4899928E-04   2.2114090E+05   -1.7907926E+00
   2.5014919E-04   2.1932405E+05   -1.7902317E+00
   2.5130440E-04   2.1752269E+05   -1.7896704E+00
   2.5246495E-04   2.1573669E+05   -1.7891087E+00
   2.5363086E-04   2.1396590E+05   -1.7885466E+00
   2.5480216E-04   2.1221019E+05   -1.7879841E+00
   2.5597886E-04   2.1046944E+05   -1.7874212E+00
   2.5716100E-04   2.0874351E+05   -1.7868579E+00
   2.5834859E-04   2.0703227E+05   -1.7862942E+00
   2.5954168E-04   2.0533559E+05   -1.7857302E+00
   2.6074027E-04   2.0365334E+05   -1.7851658E+00
   2.6194439E-04   2.0198541E+05   -1.7846010E+00
   2.6315408E-04   2.0033165E+05   -1.7840358E+00
   2.6436935E-04   1.9869195E+05   -1.7834703E+00
   2.6559024E-04   1.9706619E+05   -1.7829045E+00
   2.6681676E-04   1.9545424E+05   -1.7823383E+00
   2.6804895E-04   1.9385598E+05   -1.7817717E+00
   2.6928683E-04   1.9227129E+05   -1.7812049E+00
   2.7053042E-04   1.9070006E+05   -1.7806377E+00
   2.7177976E-04   1.8914215E+05   -1.7800701E+00
   2.7303487E-04   1.8759747E+05   -1.7795023E+00
   2.7429577E-04   1.8606589E+05   -1.7789342E+00
   2.7556250E-04   1.8454729E+05   -1.7783657E+00
   2.7683507E-04   1.8304157E+05   -1.7777970E+00
   2.7811353E-04   1.8154861E+05   -1.7772279E+00
   2.7939788E-04   1.8006830E+05   -1.7766586E+00
   2.8068817E-04   1.7860053E+05   -1.7760890E+00
   2.8198442E-04   1.7714519E+05   -1.7755191E+00
   2.8328665E-04   1.7570217E+05   -1.7749490E+00
   2.8459490E-04   1.7427136E+05   -1.7743786E+00
   2.8590919E-04   1.7285265E+05   -1.7738079E+00
   2.8722955E-04   1.7144595E+05   -1.7732370E+00
   2.8855600E-04   1.7005114E+05   -1.7726658E+00
   2.8988859E-04   1.6866813E+05   -1.7720944E+00
   2.9122732E-04   1.6729680E+05   -1.7715228E+00
   2.9257224E-04   1.6593706E+05   -1.7709509E+00
   2.9392337E-04   1.6458880E+05   -1.7703789E+00
   2.9528074E-04   1.6325193E+05   -1.7698066E+00
   2.9664438E-04   1.6192635E+05   -1.7692341E+00
   2.9801431E-04   1.6061195E+05   -1.7686613E+00
   2.9939057E-04   1.5930864E+05   -1.7680884E+00
   3.0077319E-04   1.5801633E+05   -1.7675153E+00
   3.0216219E-04   1.5673491E+05   -1.7669421E+00
   3.0355761E-04   1.5546429E+05   -1.7663686E+00
   3.0495947E-04   1.5420439E+05   -1.7657949E+00
   3.0636780E-04   1.5295509E+05   -1.7652211E+00
   3.0778264E-04   1.5171632E+05   -1.7646472E+00
   3.0920401E-04   1.5048798E+05   -1.7640731E+00
   3.1063195E-04   1.4926998E+05   -1.7634988E+00
   3.1206648E-04   1.4806224E+05   -1.7629244E+00
   3.1350764E-04   1.4686465E+05   -1.7623498E+00
   3.1495545E-04   1.4567713E+05   -1.7617751E+00
   3.1640994E-04   1.4449960E+05   -1.7612003E+00
   3.1787116E-04   1.4333196E+05   -1.7606254E+00
   3.1933912E-04   1.4217414E+05   -1.7600503E+00
   3.2081386E-04   1.4102605E+05   -1.7594752E+00
   3.2229541E-04   1.3988759E+05   -1.7588999E+00
   3.2378381E-04   1.3875870E+05   -1.7583246E+00
   3.2527908E-04   1.3763928E+05   -1.7577491E+00
   3.2678125E-04   1.3652925E+05   -1.7571736E+00
   3.2829036E-04   1.3542853E+05   -1.7565980E+00
   3.2980644E-04   1.3433704E+05   -1.7560224E+00
   3.3132952E-04   1.3325471E+05   -1.7554466E+00
   3.3285963E-04   1.3218144E+05   -1.7548708E+00
   3.3439681E-04   1.3111717E+05   -1.7542950E+00
   3.3594109E-04   1.3006181E+05   -1.7537191E+00
   3.3749250E-04   1.2901529E+05   -1.7531432E+00
   3.3905108E-04   1.2797753E+05   -1.7525672E+00
   3.4061685E-04   1.2694845E+05   -1.7519912E+00
   3.4218986E-04   1.2592798E+05   -1.7514152E+00
   3.4377013E-04   1.2491605E+05   -1.7508392E+00
   3.4535769E-04   1.2391258E+05   -1.7502632E+00
   3.4695259E-04   1.2291749E+05   -1.7496871E+00
   3.4855485E-04   1.2193072E+05   -1.7491111E+00
   3.5016452E-04   1.2095219E+05   -1.7485350E+00
   3.5178161E-04   1.1998183E+05   -1.7479590E+00
   3.5340618E-04   1.1901958E+05   -1.7473830E+00
   3.5503824E-04   1.1806535E+05   -1.7468071E+00
   3.5667785E-04   1.1711909E+05   -1.7462311E+00
   3.5832502E-04   1.1618072E+05   -1.7456552E+00
   3.5997981E-04   1.1525017E+05   -1.7450794E+00
   3.6164223E-04   1.1432738E+05   -1.7445036E+00
   3.6331233E-04   1.1341228E+05   -1.7439279E+00
   3.6499015E-04   1.1250480E+05   -1.7433522E+00
   3.6667571E-04   1.1160488E+05   -1.7427766E+00
   3.6836906E-04   1.1071245E+05   -1.7422010E+00
   3.7007022E-04   1.0982744E+05   -1.7416256E+00
   3.7177925E-04   1.0894981E+05   -1.7410502E+00
   3.7349616E-04   1.0807947E+05   -1.7404750E+00
   3.7522101E-04   1.0721636E+05   -1.7398998E+00
   3.7695382E-04   1.0636044E+05   -1.7393247E+00
   3.7869463E-04   1.0551162E+05   -1.7387498E+00
   3.8044348E-04   1.0466986E+05   -1.7381749E+00
   3.8220041E-04   1.0383508E+05   -1.7376002E+00
   3.8396545E-04   1.0300724E+05   -1.7370257E+00
   3.8573864E-04   1.0218627E+05   -1.7364512E+00
   3.8752002E-04   1.0137211E+05   -1.7358769E+00
   3.8930963E-04   1.0056470E+05   -1.7353028E+00
   3.9110750E-04   9.9763987E+04   -1.7347288E+00
   3.9291368E-04   9.8969910E+04   -1.7341550E+00
   3.9472820E-04   9.8182414E+04   -1.7335813E+00
   3.9655109E-04   9.7401441E+04   -1.7330078E+00
   3.9838241E-04   9.6626935E+04   -1.7324345E+00
   4.0022218E-04   9.5858841E+04   -1.7318614E+00
   4.0207045E-04   9.5097105E+04   -1.7312884E+00
   4.0392725E-04   9.4341670E+04   -1.7307157E+00
   4.0579263E-04   9.3592483E+04   -1.7301431E+00
   4.0766662E-04   9.2849491E+04   -1.7295708E+00
   4.0954927E-04   9.2112639E+04   -1.7289987E+00
   4.1144061E-04   9.1381876E+04   -1.7284268E+00
   4.1334068E-04   9.0657150E+04   -1.7278551E+00
   4.1524953E-04   8.9938407E+04   -1.7272837E+00
   4.1716720E-04   8.9225598E+04   -1.7267125E+00
   4.1909372E-04   8.8518672E+04   -1.7261415E+00
   4.2102914E-04   8.7817577E+04   -1.7255708E+00
   4.2297350E-04   8.7122263E+04   -1.7250004E+00
   4.2492683E-04   8.6432683E+04   -1.7244302E+00
   4.2688919E-04   8.5748786E+04   -1.7238603E+00
   4.2886061E-04   8.5070523E+04   -1.7232906E+00
   4.3084113E-04   8.4397847E+04   -1.7227213E+00
   4.3283080E-04   8.3730710E+04   -1.7221522E+00
   4.3482966E-04   8.3069064E+04   -1.7215834E+00
   4.3683775E-04   8.2412862E+04   -1.7210149E+00
   4.3885511E-04   8.1762057E+04   -1.7204467E+00
   4.4088179E-04   8.1116605E+04   -1.7198788E+00
   4.4291783E-04   8.0476458E+04   -1.7193113E+00
   4.4496327E-04   7.9841572E+04   -1.7187440E+00
   4.4701816E-04   7.9211901E+04   -1.7181771E+00
   4.4908253E-04   7.8587402E+04   -1.7176105E+00
   4.5115644E-04   7.7968029E+04   -1.7170442E+00
   4.5323993E-04   7.7353740E+04   -1.7164783E+00
   4.5533304E-04   7.6744491E+04   -1.7159128E+00
   4.5743582E-04   7.6140239E+04   -1.7153476E+00
   4.5954830E-04   7.5540941E+04   -1.7147827E+00
   4.6167054E-04   7.4946555E+04   -1.7142182E+00
   4.6380259E-04   7.4357039E+04   -1.7136541E+00
   4.6594448E-04   7.3772352E+04   -1.7130904E+00
   4.6809626E-04   7.3192452E+04   -1.7125270E+00
   4.7025797E-04   7.2617299E+04   -1.7119641E+00
   4.7242967E-04   7.2046853E+04   -1.7114015E+00
   4.7461140E-04   7.1481073E+04   -1.7108393E+00
   4.7680321E-04   7.0919919E+04   -1.7102775E+00
   4.7900514E-04   7.0363353E+04   -1.7097162E+00
   4.8121723E-04   6.9811336E+04   -1.7091552E+00
   4.8343954E-04   6.9263828E+04   -1.7085947E+00
   4.8567212E-04   6.8720791E+04   -1.7080346E+00
   4.8791500E-04   6.8182188E+04   -1.7074750E+00
   4.9016825E-04   6.7647980E+04   -1.7069157E+00
   4.9243189E-04   6.7118131E+04   -1.7063569E+00
   4.9470600E-04   6.6592603E+04   -1.7057986E+00
   4.9699060E-04   6.6071360E+04   -1.7052407E+00
   4.9928575E-04   6.5554365E+04   -1.7046833E+00
   5.0159151E-04   6.5041583E+04   -1.7041263E+00
   5.0390791E-04   6.4532977E+04   -1.7035698E+00
   5.0623501E-04   6.4028512E+04   -1.7030138E+00
   5.0857286E-04   6.3528154E+04   -1.7024583E+00
   5.1092150E-04   6.3031867E+04   -1.7019032E+00
   5.1328099E-04   6.2539617E+04   -1.7013487E+00
   5.1565137E-04   6.2051370E+04   -1.7007946E+00
   5.1803270E-04   6.1567091E+04   -1.7002411E+00
   5.2042503E-04   6.1086748E+04   -1.6996880E+00
   5.2282841E-04   6.0610307E+04   -1.6991355E+00
   5.2524289E-04   6.0137735E+04   -1.6985834E+00
   5.2766851E-04   5.9668999E+04   -1.6980319E+00
   5.3010534E-04   5.9204067E+04   -1.6974809E+00
   5.3255342E-04   5.8742906E+04   -1.6969305E+00
   5.3501281E-04   5.8285486E+04   -1.6963806E+00
   5.3748356E-04   5.7831774E+04   -1.6958312E+00
   5.3996571E-04   5.7381738E+04   -1.6952824E+00
   5.4245933E-04   5.6935349E+04   -1.6947341E+00
   5.4496446E-04   5.6492575E+04   -1.6941864E+00
   5.4748117E-04   5.6053386E+04   -1.6936393E+00
   5.5000949E-04   5.5617752E+04   -1.6930927E+00
   5.5254949E-04   5.5185642E+04   -1.6925467E+00
   5.5510123E-04   5.4757026E+04   -1.6920012E+00
   5.5766474E-04   5.4331876E+04   -1.6914564E+00
   5.6024010E-04   5.3910163E+04   -1.6909121E+00
   5.6282734E-04   5.3491857E+04   -1.6903684E+00
   5.6542654E-04   5.3076929E+04   -1.6898253E+00
   5.6803774E-04   5.2665352E+04   -1.6892829E+00
   5.7066099E-04   5.2257096E+04   -1.6887410E+00
   5.7329637E-04   5.1852135E+04   -1.6881997E+00
   5.7594391E-04   5.1450440E+04   -1.6876591E+00
   5.7860368E-04   5.1051985E+04   -1.6871190E+00
   5.8127573E-04   5.0656741E+04   -1.6865796E+00
   5.8396012E-04   5.0264682E+04   -1.6860408E+00
   5.8665691E-04   4.9875781E+04   -1.6855027E+00
   5.8936616E-04   4.9490012E+04   -1.6849652E+00
   5.9208791E-04   4.9107347E+04   -1.6844283E+00
   5.9482223E-04   4.8727763E+04   -1.6838921E+00
   5.9756919E-04   4.8351231E+04   -1.6833565E+00
   6.0032882E-04   4.7977728E+04   -1.6828216E+00
   6.0310120E-04   4.7607227E+04   -1.6822874E+00
   6.0588639E-04   4.7239703E+04   -1.6817538E+00
   6.0868443E-04   4.6875132E+04   -1.6812209E+00
   6.1149540E-04   4.6513488E+04   -1.6806886E+00
   6.1431935E-04   4.6154748E+04   -1.6801571E+00
   6.1715634E-04   4.5798887E+04   -1.6796262E+00
   6.2000644E-04   4.5445880E+04   -1.6790960E+00
   6.2286969E-04   4.5095705E+04   -1.6785665E+00
