#        a       HoverH0(a)       dlogHdloga_of_a(a)
   1.0000000E-04   1.1555850E+06   -1.8725357E+00
   1.0046181E-04   1.1456590E+06   -1.8720976E+00
   1.0092575E-04   1.1358206E+06   -1.8716586E+00
   1.0139184E-04   1.1260690E+06   -1.8712185E+00
   1.0186008E-04   1.1164034E+06   -1.8707775E+00
   1.0233048E-04   1.1068230E+06   -1.8703355E+00
   1.0280305E-04   1.0973270E+06   -1.8698925E+00
   1.0327781E-04   1.0879147E+06   -1.8694485E+00
   1.0375475E-04   1.0785854E+06   -1.8690035E+00
   1.0423390E-04   1.0693382E+06   -1.8685576E+00
   1.0471527E-04   1.0601726E+06   -1.8681107E+00
   1.0519885E-04   1.0510876E+06   -1.8676628E+00
   1.0568467E-04   1.0420827E+06   -1.8672139E+00
   1.0617274E-04   1.0331570E+06   -1.8667641E+00
   1.0666305E-04   1.0243099E+06   -1.8663133E+00
   1.0715563E-04   1.0155407E+06   -1.8658615E+00
   1.0765049E-04   1.0068487E+06   -1.8654088E+00
   1.0814763E-04   9.9823310E+05   -1.8649551E+00
   1.0864707E-04   9.8969334E+05   -1.8645005E+00
   1.0914881E-04   9.8122869E+05   -1.8640448E+00
   1.0965287E-04   9.7283848E+05   -1.8635883E+00
   1.1015926E-04   9.6452204E+05   -1.8631307E+00
   1.1066799E-04   9.5627871E+05   -1.8626722E+00
   1.1117906E-04   9.4810784E+05   -1.8622128E+00
   1.1169250E-04   9.4000878E+05   -1.8617524E+00
   1.1220831E-04   9.3198088E+05   -1.8612911E+00
   1.1272650E-04   9.2402351E+05   -1.8608288E+00
   1.1324708E-04   9.1613603E+05   -1.8603655E+00
   1.1377007E-04   9.0831783E+05   -1.8599014E+00
   1.1429547E-04   9.0056827E+05   -1.8594362E+00
   1.1482330E-04   8.9288674E+05   -1.8589702E+00
   1.1535356E-04   8.8527264E+05   -1.8585032E+00
   1.1588628E-04   8.7772536E+05   -1.8580353E+00
   1.1642145E-04   8.7024429E+05   -1.8575664E+00
   1.1695910E-04   8.6282886E+05   -1.8570966E+00
   1.1749923E-04   8.5547847E+05   -1.8566259E+00
   1.1804185E-04   8.4819253E+05   -1.8561542E+00
   1.1858698E-04   8.4097048E+05   -1.8556816E+00
   1.1913463E-04   8.3381174E+05   -1.8552082E+00
   1.1968481E-04   8.2671574E+05   -1.8547337E+00
   1.2023752E-04   8.1968192E+05   -1.8542584E+00
   1.2079279E-04   8.1270974E+05   -1.8537822E+00
   1.2135063E-04   8.0579862E+05   -1.8533050E+00
   1.2191104E-04   7.9894804E+05   -1.8528269E+00
   1.2247403E-04   7.9215744E+05   -1.8523480E+00
   1.2303963E-04   7.8542630E+05   -1.8518681E+00
   1.2360784E-04   7.7875407E+05   -1.8513873E+00
   1.2417868E-04   7.7214024E+05   -1.8509056E+00
   1.2475215E-04   7.6558428E+05   -1.8504231E+00
   1.2532826E-04   7.5908567E+05   -1.8499396E+00
   1.2590704E-04   7.5264390E+05   -1.8494552E+00
   1.2648850E-04   7.4625846E+05   -1.8489700E+00
   1.2707263E-04   7.3992886E+05   -1.8484838E+00
   1.2765947E-04   7.3365458E+05   -1.8479968E+00
   1.2824901E-04   7.2743515E+05   -1.8475089E+00
   1.2884128E-04   7.2127006E+05   -1.8470201E+00
   1.2943628E-04   7.1515883E+05   -1.8465305E+00
   1.3003403E-04   7.0910099E+05   -1.8460400E+00
   1.3063454E-04   7.0309604E+05   -1.8455486E+00
   1.3123783E-04   6.9714353E+05   -1.8450563E+00
   1.3184390E-04   6.9124299E+05   -1.8445632E+00
   1.3245277E-04   6.8539394E+05   -1.8440692E+00
   1.3306445E-04   6.7959593E+05   -1.8435744E+00
   1.3367895E-04   6.7384851E+05   -1.8430787E+00
   1.3429630E-04   6.6815122E+05   -1.8425821E+00
   1.3491649E-04   6.6250362E+05   -1.8420847E+00
   1.3553955E-04   6.5690526E+05   -1.8415865E+00
   1.3616548E-04   6.5135571E+05   -1.8410874E+00
   1.3679431E-04   6.4585453E+05   -1.8405875E+00
   1.3742604E-04   6.4040129E+05   -1.8400867E+00
   1.3806069E-04   6.3499555E+05   -1.8395851E+00
   1.3869827E-04   6.2963691E+05   -1.8390827E+00
   1.3933879E-04   6.2432493E+05   -1.8385795E+00
   1.3998227E-04   6.1905920E+05   -1.8380754E+00
   1.4062872E-04   6.1383931E+05   -1.8375705E+00
   1.4127816E-04   6.0866485E+05   -1.8370648E+00
   1.4193060E-04   6.0353542E+05   -1.8365583E+00
   1.4258605E-04   5.9845061E+05   -1.8360510E+00
   1.4324453E-04   5.9341003E+05   -1.8355429E+00
   1.4390605E-04   5.8841328E+05   -1.8350339E+00
   1.4457062E-04   5.8345998E+05   -1.8345242E+00
   1.4523826E-04   5.7854974E+05   -1.8340137E+00
   1.4590899E-04   5.7368217E+05   -1.8335024E+00
   1.4658281E-04   5.6885689E+05   -1.8329903E+00
   1.4725974E-04   5.6407353E+05   -1.8324774E+00
   1.4793981E-04   5.5933172E+05   -1.8319637E+00
   1.4862301E-04   5.5463108E+05   -1.8314493E+00
   1.4930936E-04   5.4997125E+05   -1.8309341E+00
   1.4999889E-04   5.4535187E+05   -1.8304181E+00
   1.5069160E-04   5.4077257E+05   -1.8299013E+00
   1.5138751E-04   5.3623300E+05   -1.8293838E+00
   1.5208663E-04   5.3173281E+05   -1.8288656E+00
   1.5278899E-04   5.2727164E+05   -1.8283465E+00
   1.5349458E-04   5.2284916E+05   -1.8278268E+00
   1.5420343E-04   5.1846501E+05   -1.8273062E+00
   1.5491556E-04   5.1411886E+05   -1.8267850E+00
   1.5563098E-04   5.0981036E+05   -1.8262630E+00
   1.5634970E-04   5.0553919E+05   -1.8257403E+00
   1.5707174E-04   5.0130501E+05   -1.8252168E+00
   1.5779711E-04   4.9710749E+05   -1.8246926E+00
   1.5852584E-04   4.9294631E+05   -1.8241677E+00
   1.5925792E-04   4.8882115E+05   -1.8236420E+00
   1.5999339E-04   4.8473168E+05   -1.8231157E+00
   1.6073226E-04   4.8067759E+05   -1.8225886E+00
   1.6147454E-04   4.7665857E+05   -1.8220609E+00
   1.6222024E-04   4.7267430E+05   -1.8215324E+00
   1.6296939E-04   4.6872447E+05   -1.8210033E+00
   1.6372200E-04   4.6480879E+05   -1.8204734E+00
   1.6447809E-04   4.6092694E+05   -1.8199429E+00
   1.6523767E-04   4.5707863E+05   -1.8194116E+00
   1.6600075E-04   4.5326356E+05   -1.8188797E+00
   1.6676736E-04   4.4948144E+05   -1.8183471E+00
   1.6753751E-04   4.4573197E+05   -1.8178139E+00
   1.6831122E-04   4.4201486E+05   -1.8172800E+00
   1.6908849E-04   4.3832983E+05   -1.8167454E+00
   1.6986936E-04   4.3467659E+05   -1.8162101E+00
   1.7065384E-04   4.3105487E+05   -1.8156742E+00
   1.7144193E-04   4.2746437E+05   -1.8151377E+00
   1.7223367E-04   4.2390483E+05   -1.8146005E+00
   1.7302906E-04   4.2037598E+05   -1.8140627E+00
   1.7382813E-04   4.1687753E+05   -1.8135242E+00
   1.7463089E-04   4.1340923E+05   -1.8129851E+00
   1.7543735E-04   4.0997080E+05   -1.8124454E+00
   1.7624754E-04   4.0656198E+05   -1.8119050E+00
   1.7706147E-04   4.0318250E+05   -1.8113641E+00
   1.7787916E-04   3.9983212E+05   -1.8108225E+00
   1.7870062E-04   3.9651057E+05   -1.8102803E+00
   1.7952588E-04   3.9321759E+05   -1.8097375E+00
   1.8035495E-04   3.8995293E+05   -1.8091941E+00
   1.8118785E-04   3.8671635E+05   -1.8086502E+00
   1.8202459E-04   3.8350760E+05   -1.8081056E+00
   1.8286520E-04   3.8032642E+05   -1.8075605E+00
   1.8370969E-04   3.7717258E+05   -1.8070147E+00
   1.8455808E-04   3.7404584E+05   -1.8064684E+00
   1.8541039E-04   3.7094594E+05   -1.8059216E+00
   1.8626663E-04   3.6787267E+05   -1.8053741E+00
   1.8712683E-04   3.6482578E+05   -1.8048261E+00
   1.8799100E-04   3.6180504E+05   -1.8042776E+00
   1.8885917E-04   3.5881022E+05   -1.8037285E+00
   1.8973134E-04   3.5584108E+05   -1.8031788E+00
   1.9060754E-04   3.5289741E+05   -1.8026286E+00
   1.9148778E-04   3.4997898E+05   -1.8020779E+00
   1.9237209E-04   3.4708557E+05   -1.8015267E+00
   1.9326049E-04   3.4421695E+05   -1.8009749E+00
   1.9415299E-04   3.4137291E+05   -1.8004226E+00
   1.9504960E-04   3.3855323E+05   -1.7998698E+00
   1.9595036E-04   3.3575770E+05   -1.7993165E+00
   1.9685528E-04   3.3298609E+05   -1.7987627E+00
   1.9776438E-04   3.3023821E+05   -1.7982084E+00
   1.9867768E-04   3.2751385E+05   -1.7976536E+00
   1.9959519E-04   3.2481279E+05   -1.7970983E+00
   2.0051694E-04   3.2213482E+05   -1.7965425E+00
   2.0144295E-04   3.1947976E+05   -1.7959863E+00
   2.0237324E-04   3.1684739E+05   -1.7954295E+00
   2.0330782E-04   3.1423752E+05   -1.7948723E+00
   2.0424671E-04   3.1164995E+05   -1.7943147E+00
   2.0518995E-04   3.0908447E+05   -1.7937566E+00
   2.0613754E-04   3.0654091E+05   -1.7931980E+00
   2.0708950E-04   3.0401906E+05   -1.7926390E+00
   2.0804586E-04   3.0151873E+05   -1.7920796E+00
   2.0900664E-04   2.9903974E+05   -1.7915197E+00
   2.0997185E-04   2.9658190E+05   -1.7909594E+00
   2.1094152E-04   2.9414501E+05   -1.7903986E+00
   2.1191567E-04   2.9172890E+05   -1.7898375E+00
   2.1289432E-04   2.8933339E+05   -1.7892759E+00
   2.1387749E-04   2.8695829E+05   -1.7887140E+00
   2.1486520E-04   2.8460342E+05   -1.7881516E+00
   2.1585747E-04   2.8226862E+05   -1.7875888E+00
   2.1685432E-04   2.7995369E+05   -1.7870257E+00
   2.1785578E-04   2.7765846E+05   -1.7864621E+00
   2.1886186E-04   2.7538277E+05   -1.7858982E+00
   2.1987259E-04   2.7312644E+05   -1.7853339E+00
   2.2088798E-04   2.7088930E+05   -1.7847693E+00
   2.2190807E-04   2.6867119E+05   -1.7842042E+00
   2.2293286E-04   2.6647193E+05   -1.7836388E+00
   2.2396239E-04   2.6429137E+05   -1.7830731E+00
   2.2499667E-04   2.6212933E+05   -1.7825070E+00
   2.2603573E-04   2.5998565E+05   -1.7819406E+00
   2.2707958E-04   2.5786018E+05   -1.7813739E+00
   2.2812826E-04   2.5575276E+05   -1.7808068E+00
   2.2918178E-04   2.5366322E+05   -1.7802394E+00
   2.3024017E-04   2.5159141E+05   -1.7796717E+00
   2.3130344E-04   2.4953717E+05   -1.7791036E+00
   2.3237162E-04   2.4750036E+05   -1.7785353E+00
   2.3344474E-04   2.4548081E+05   -1.7779667E+00
   2.3452281E-04   2.4347838E+05   -1.7773977E+00
   2.3560586E-04   2.4149292E+05   -1.7768285E+00
   2.3669392E-04   2.3952428E+05   -1.7762590E+00
   2.3778699E-04   2.3757230E+05   -1.7756893E+00
   2.3888512E-04   2.3563686E+05   -1.7751192E+00
   2.3998831E-04   2.3371780E+05   -1.7745489E+00
   2.4109661E-04   2.3181497E+05   -1.7739783E+00
   2.4221001E-04   2.2992824E+05   -1.7734075E+00
   2.4332857E-04   2.2805747E+05   -1.7728365E+00
   2.4445228E-04   2.2620251E+05   -1.7722652E+00
   2.4558119E-04   2.2436323E+05   -1.7716936E+00
   2.4671531E-04   2.2253950E+05   -1.7711218E+00
   2.4785467E-04   2.2073117E+05   -1.7705499E+00
   2.4899928E-04   2.1893811E+05   -1.7699776E+00
   2.5014919E-04   2.1716019E+05   -1.7694052E+00
   2.5130440E-04   2.1539727E+05   -1.7688326E+00
   2.5246495E-04   2.1364923E+05   -1.7682598E+00
   2.5363086E-04   2.1191594E+05   -1.7676867E+00
   2.5480216E-04   2.1019726E+05   -1.7671135E+00
   2.5597886E-04   2.0849308E+05   -1.7665402E+00
   2.5716100E-04   2.0680325E+05   -1.7659666E+00
   2.5834859E-04   2.0512766E+05   -1.7653929E+00
   2.5954168E-04   2.0346619E+05   -1.7648190E+00
   2.6074027E-04   2.0181871E+05   -1.7642449E+00
   2.6194439E-04   2.0018510E+05   -1.7636707E+00
   2.6315408E-04   1.9856524E+05   -1.7630964E+00
   2.6436935E-04   1.9695900E+05   -1.7625219E+00
   2.6559024E-04   1.9536628E+05   -1.7619473E+00
   2.6681676E-04   1.9378695E+05   -1.7613725E+00
   2.6804895E-04   1.9222089E+05   -1.7607976E+00
   2.6928683E-04   1.9066800E+05   -1.7602227E+00
   2.7053042E-04   1.8912815E+05   -1.7596476E+00
   2.7177976E-04   1.8760124E+05   -1.7590724E+00
   2.7303487E-04   1.8608714E+05   -1.7584971E+00
   2.7429577E-04   1.8458576E+05   -1.7579217E+00
   2.7556250E-04   1.8309697E+05   -1.7573462E+00
   2.7683507E-04   1.8162068E+05   -1.7567707E+00
   2.7811353E-04   1.8015676E+05   -1.7561951E+00
   2.7939788E-04   1.7870512E+05   -1.7556194E+00
   2.8068817E-04   1.7726564E+05   -1.7550436E+00
   2.8198442E-04   1.7583823E+05   -1.7544678E+00
   2.8328665E-04   1.7442278E+05   -1.7538920E+00
   2.8459490E-04   1.7301917E+05   -1.7533161E+00
   2.8590919E-04   1.7162732E+05   -1.7527402E+00
   2.8722955E-04   1.7024712E+05   -1.7521642E+00
   2.8855600E-04   1.6887846E+05   -1.7515883E+00
   2.8988859E-04   1.6752125E+05   -1.7510123E+00
   2.9122732E-04   1.6617539E+05   -1.7504363E+00
   2.9257224E-04   1.6484078E+05   -1.7498602E+00
   2.9392337E-04   1.6351732E+05   -1.7492842E+00
   2.9528074E-04   1.6220492E+05   -1.7487082E+00
   2.9664438E-04   1.6090348E+05   -1.7481322E+00
   2.9801431E-04   1.5961290E+05   -1.7475563E+00
   2.9939057E-04   1.5833310E+05   -1.7469803E+00
   3.0077319E-04   1.5706397E+05   -1.7464044E+00
   3.0216219E-04   1.5580543E+05   -1.7458285E+00
   3.0355761E-04   1.5455739E+05   -1.7452527E+00
   3.0495947E-04   1.5331975E+05   -1.7446769E+00
   3.0636780E-04   1.5209242E+05   -1.7441012E+00
   3.0778264E-04   1.5087532E+05   -1.7435255E+00
   3.0920401E-04   1.4966835E+05   -1.7429499E+00
   3.1063195E-04   1.4847144E+05   -1.7423744E+00
   3.1206648E-04   1.4728448E+05   -1.7417990E+00
   3.1350764E-04   1.4610741E+05   -1.7412236E+00
   3.1495545E-04   1.4494012E+05   -1.7406484E+00
   3.1640994E-04   1.4378254E+05   -1.7400732E+00
   3.1787116E-04   1.4263458E+05   -1.7394981E+00
   3.1933912E-04   1.4149617E+05   -1.7389232E+00
   3.2081386E-04   1.4036721E+05   -1.7383484E+00
   3.2229541E-04   1.3924763E+05   -1.7377736E+00
   3.2378381E-04   1.3813734E+05   -1.7371991E+00
   3.2527908E-04   1.3703627E+05   -1.7366246E+00
   3.2678125E-04   1.3594434E+05   -1.7360503E+00
   3.2829036E-04   1.3486146E+05   -1.7354762E+00
   3.2980644E-04   1.3378756E+05   -1.7349022E+00
   3.3132952E-04   1.3272257E+05   -1.7343283E+00
   3.3285963E-04   1.3166640E+05   -1.7337546E+00
   3.3439681E-04   1.3061898E+05   -1.7331811E+00
   3.3594109E-04   1.2958024E+05   -1.7326078E+00
   3.3749250E-04   1.2855009E+05   -1.7320346E+00
   3.3905108E-04   1.2752847E+05   -1.7314617E+00
   3.4061685E-04   1.2651531E+05   -1.7308889E+00
   3.4218986E-04   1.2551053E+05   -1.7303164E+00
   3.4377013E-04   1.2451405E+05   -1.7297440E+00
   3.4535769E-04   1.2352581E+05   -1.7291719E+00
   3.4695259E-04   1.2254574E+05   -1.7285999E+00
   3.4855485E-04   1.2157376E+05   -1.7280282E+00
   3.5016452E-04   1.2060981E+05   -1.7274568E+00
   3.5178161E-04   1.1965382E+05   -1.7268855E+00
   3.5340618E-04   1.1870572E+05   -1.7263145E+00
   3.5503824E-04   1.1776544E+05   -1.7257438E+00
   3.5667785E-04   1.1683291E+05   -1.7251733E+00
   3.5832502E-04   1.1590808E+05   -1.7246031E+00
   3.5997981E-04   1.1499087E+05   -1.7240331E+00
   3.6164223E-04   1.1408121E+05   -1.7234634E+00
   3.6331233E-04   1.1317905E+05   -1.7228940E+00
   3.6499015E-04   1.1228432E+05   -1.7223249E+00
   3.6667571E-04   1.1139695E+05   -1.7217561E+00
   3.6836906E-04   1.1051688E+05   -1.7211875E+00
   3.7007022E-04   1.0964406E+05   -1.7206193E+00
   3.7177925E-04   1.0877841E+05   -1.7200514E+00
   3.7349616E-04   1.0791988E+05   -1.7194837E+00
   3.7522101E-04   1.0706841E+05   -1.7189164E+00
   3.7695382E-04   1.0622393E+05   -1.7183495E+00
   3.7869463E-04   1.0538638E+05   -1.7177828E+00
   3.8044348E-04   1.0455572E+05   -1.7172165E+00
   3.8220041E-04   1.0373187E+05   -1.7166505E+00
   3.8396545E-04   1.0291478E+05   -1.7160849E+00
   3.8573864E-04   1.0210439E+05   -1.7155196E+00
   3.8752002E-04   1.0130065E+05   -1.7149547E+00
   3.8930963E-04   1.0050350E+05   -1.7143902E+00
   3.9110750E-04   9.9712876E+04   -1.7138260E+00
   3.9291368E-04   9.8928732E+04   -1.7132622E+00
   3.9472820E-04   9.8151009E+04   -1.7126988E+00
   3.9655109E-04   9.7379652E+04   -1.7121357E+00
   3.9838241E-04   9.6614608E+04   -1.7115731E+00
   4.0022218E-04   9.5855823E+04   -1.7110108E+00
   4.0207045E-04   9.5103244E+04   -1.7104490E+00
   4.0392725E-04   9.4356817E+04   -1.7098875E+00
   4.0579263E-04   9.3616491E+04   -1.7093265E+00
   4.0766662E-04   9.2882214E+04   -1.7087659E+00
   4.0954927E-04   9.2153933E+04   -1.7082057E+00
   4.1144061E-04   9.1431599E+04   -1.7076460E+00
   4.1334068E-04   9.0715161E+04   -1.7070867E+00
   4.1524953E-04   9.0004568E+04   -1.7065278E+00
   4.1716720E-04   8.9299772E+04   -1.7059694E+00
   4.1909372E-04   8.8600722E+04   -1.7054114E+00
   4.2102914E-04   8.7907370E+04   -1.7048539E+00
   4.2297350E-04   8.7219669E+04   -1.7042969E+00
   4.2492683E-04   8.6537569E+04   -1.7037403E+00
   4.2688919E-04   8.5861024E+04   -1.7031842E+00
   4.2886061E-04   8.5189986E+04   -1.7026285E+00
   4.3084113E-04   8.4524409E+04   -1.7020734E+00
   4.3283080E-04   8.3864246E+04   -1.7015187E+00
   4.3482966E-04   8.3209452E+04   -1.7009646E+00
   4.3683775E-04   8.2559981E+04   -1.7004109E+00
   4.3885511E-04   8.1915789E+04   -1.6998578E+00
   4.4088179E-04   8.1276829E+04   -1.6993051E+00
   4.4291783E-04   8.0643059E+04   -1.6987530E+00
   4.4496327E-04   8.0014435E+04   -1.6982014E+00
   4.4701816E-04   7.9390912E+04   -1.6976503E+00
   4.4908253E-04   7.8772448E+04   -1.6970997E+00
   4.5115644E-04   7.8159000E+04   -1.6965497E+00
   4.5323993E-04   7.7550526E+04   -1.6960002E+00
   4.5533304E-04   7.6946984E+04   -1.6954513E+00
   4.5743582E-04   7.6348331E+04   -1.6949029E+00
   4.5954830E-04   7.5754528E+04   -1.6943551E+00
   4.6167054E-04   7.5165533E+04   -1.6938078E+00
   4.6380259E-04   7.4581305E+04   -1.6932611E+00
   4.6594448E-04   7.4001804E+04   -1.6927150E+00
   4.6809626E-04   7.3426991E+04   -1.6921694E+00
   4.7025797E-04   7.2856825E+04   -1.6916245E+00
   4.7242967E-04   7.2291269E+04   -1.6910801E+00
   4.7461140E-04   7.1730282E+04   -1.6905363E+00
   4.7680321E-04   7.1173827E+04   -1.6899931E+00
   4.7900514E-04   7.0621865E+04   -1.6894505E+00
   4.8121723E-04   7.0074359E+04   -1.6889084E+00
   4.8343954E-04   6.9531271E+04   -1.6883671E+00
   4.8567212E-04   6.8992564E+04   -1.6878263E+00
   4.8791500E-04   6.8458202E+04   -1.6872861E+00
   4.9016825E-04   6.7928147E+04   -1.6867466E+00
   4.9243189E-04   6.7402364E+04   -1.6862077E+00
   4.9470600E-04   6.6880816E+04   -1.6856694E+00
   4.9699060E-04   6.6363468E+04   -1.6851317E+00
   4.9928575E-04   6.5850286E+04   -1.6845947E+00
   5.0159151E-04   6.5341233E+04   -1.6840584E+00
   5.0390791E-04   6.4836276E+04   -1.6835227E+00
   5.0623501E-04   6.4335379E+04   -1.6829876E+00
   5.0857286E-04   6.3838510E+04   -1.6824532E+00
   5.1092150E-04   6.3345634E+04   -1.6819195E+00
   5.1328099E-04   6.2856717E+04   -1.6813865E+00
   5.1565137E-04   6.2371728E+04   -1.6808541E+00
   5.1803270E-04   6.1890632E+04   -1.6803224E+00
   5.2042503E-04   6.1413397E+04   -1.6797913E+00
   5.2282841E-04   6.0939992E+04   -1.6792610E+00
   5.2524289E-04   6.0470383E+04   -1.6787313E+00
   5.2766851E-04   6.0004539E+04   -1.6782024E+00
   5.3010534E-04   5.9542429E+04   -1.6776741E+00
   5.3255342E-04   5.9084022E+04   -1.6771466E+00
   5.3501281E-04   5.8629286E+04   -1.6766197E+00
   5.3748356E-04   5.8178191E+04   -1.6760936E+00
   5.3996571E-04   5.7730707E+04   -1.6755682E+00
   5.4245933E-04   5.7286803E+04   -1.6750435E+00
   5.4496446E-04   5.6846450E+04   -1.6745195E+00
   5.4748117E-04   5.6409618E+04   -1.6739962E+00
   5.5000949E-04   5.5976278E+04   -1.6734737E+00
   5.5254949E-04   5.5546400E+04   -1.6729519E+00
   5.5510123E-04   5.5119956E+04   -1.6724309E+00
   5.5766474E-04   5.4696917E+04   -1.6719106E+00
   5.6024010E-04   5.4277255E+04   -1.6713910E+00
   5.6282734E-04   5.3860941E+04   -1.6708722E+00
   5.6542654E-04   5.3447949E+04   -1.6703541E+00
   5.6803774E-04   5.3038249E+04   -1.6698368E+00
   5.7066099E-04   5.2631816E+04   -1.6693203E+00
   5.7329637E-04   5.2228621E+04   -1.6688046E+00
   5.7594391E-04   5.1828638E+04   -1.6682896E+00
   5.7860368E-04   5.1431840E+04   -1.6677753E+00
   5.8127573E-04   5.1038201E+04   -1.6672619E+00
   5.8396012E-04   5.0647694E+04   -1.6667492E+00
   5.8665691E-04   5.0260294E+04   -1.6662374E+00
   5.8936616E-04   4.9875974E+04   -1.6657263E+00
   5.9208791E-04   4.9494710E+04   -1.6652160E+00
   5.9482223E-04   4.9116476E+04   -1.6647065E+00
   5.9756919E-04   4.8741246E+04   -1.6641978E+00
   6.0032882E-04   4.8368996E+04   -1.6636899E+00
   6.0310120E-04   4.7999702E+04   -1.6631828E+00
   6.0588639E-04   4.7633338E+04   -1.6626765E+00
   6.0868443E-04   4.7269880E+04   -1.6621710E+00
   6.1149540E-04   4.6909305E+04   -1.6616664E+00
   6.1431935E-04   4.6551589E+04   -1.6611625E+00
   6.1715634E-04   4.6196708E+04   -1.6606595E+00
   6.2000644E-04   4.5844638E+04   -1.6601573E+00
   6.2286969E-04   4.5495357E+04   -1.6596560E+00
