#        a       HoverH0(a)       dlogHdloga_of_a(a)
   1.0000000E-04   1.1934458E+06   -1.8913694E+00
   1.0046181E-04   1.1830919E+06   -1.8909771E+00
   1.0092575E-04   1.1728299E+06   -1.8905838E+00
   1.0139184E-04   1.1626590E+06   -1.8901895E+00
   1.0186008E-04   1.1525784E+06   -1.8897941E+00
   1.0233048E-04   1.1425873E+06   -1.8893977E+00
   1.0280305E-04   1.1326849E+06   -1.8890003E+00
   1.0327781E-04   1.1228704E+06   -1.8886019E+00
   1.0375475E-04   1.1131429E+06   -1.8882025E+00
   1.0423390E-04   1.1035018E+06   -1.8878020E+00
   1.0471527E-04   1.0939461E+06   -1.8874005E+00
   1.0519885E-04   1.0844753E+06   -1.8869981E+00
   1.0568467E-04   1.0750884E+06   -1.8865945E+00
   1.0617274E-04   1.0657847E+06   -1.8861900E+00
   1.0666305E-04   1.0565636E+06   -1.8857845E+00
   1.0715563E-04   1.0474242E+06   -1.8853779E+00
   1.0765049E-04   1.0383658E+06   -1.8849703E+00
   1.0814763E-04   1.0293876E+06   -1.8845618E+00
   1.0864707E-04   1.0204890E+06   -1.8841522E+00
   1.0914881E-04   1.0116693E+06   -1.8837415E+00
   1.0965287E-04   1.0029277E+06   -1.8833299E+00
   1.1015926E-04   9.9426345E+05   -1.8829173E+00
   1.1066799E-04   9.8567597E+05   -1.8825036E+00
   1.1117906E-04   9.7716453E+05   -1.8820889E+00
   1.1169250E-04   9.6872844E+05   -1.8816733E+00
   1.1220831E-04   9.6036701E+05   -1.8812566E+00
   1.1272650E-04   9.5207959E+05   -1.8808389E+00
   1.1324708E-04   9.4386551E+05   -1.8804202E+00
   1.1377007E-04   9.3572410E+05   -1.8800004E+00
   1.1429547E-04   9.2765471E+05   -1.8795797E+00
   1.1482330E-04   9.1965670E+05   -1.8791580E+00
   1.1535356E-04   9.1172941E+05   -1.8787353E+00
   1.1588628E-04   9.0387222E+05   -1.8783115E+00
   1.1642145E-04   8.9608449E+05   -1.8778868E+00
   1.1695910E-04   8.8836560E+05   -1.8774610E+00
   1.1749923E-04   8.8071493E+05   -1.8770343E+00
   1.1804185E-04   8.7313187E+05   -1.8766066E+00
   1.1858698E-04   8.6561581E+05   -1.8761778E+00
   1.1913463E-04   8.5816614E+05   -1.8757481E+00
   1.1968481E-04   8.5078227E+05   -1.8753173E+00
   1.2023752E-04   8.4346362E+05   -1.8748856E+00
   1.2079279E-04   8.3620958E+05   -1.8744529E+00
   1.2135063E-04   8.2901959E+05   -1.8740191E+00
   1.2191104E-04   8.2189306E+05   -1.8735844E+00
   1.2247403E-04   8.1482943E+05   -1.8731487E+00
   1.2303963E-04   8.0782813E+05   -1.8727120E+00
   1.2360784E-04   8.0088860E+05   -1.8722743E+00
   1.2417868E-04   7.9401029E+05   -1.8718356E+00
   1.2475215E-04   7.8719264E+05   -1.8713960E+00
   1.2532826E-04   7.8043512E+05   -1.8709553E+00
   1.2590704E-04   7.7373717E+05   -1.8705137E+00
   1.2648850E-04   7.6709827E+05   -1.8700711E+00
   1.2707263E-04   7.6051789E+05   -1.8696275E+00
   1.2765947E-04   7.5399550E+05   -1.8691829E+00
   1.2824901E-04   7.4753058E+05   -1.8687374E+00
   1.2884128E-04   7.4112262E+05   -1.8682909E+00
   1.2943628E-04   7.3477110E+05   -1.8678433E+00
   1.3003403E-04   7.2847551E+05   -1.8673949E+00
   1.3063454E-04   7.2223536E+05   -1.8669454E+00
   1.3123783E-04   7.1605015E+05   -1.8664950E+00
   1.3184390E-04   7.0991939E+05   -1.8660436E+00
   1.3245277E-04   7.0384257E+05   -1.8655913E+00
   1.3306445E-04   6.9781924E+05   -1.8651380E+00
   1.3367895E-04   6.9184889E+05   -1.8646837E+00
   1.3429630E-04   6.8593106E+05   -1.8642284E+00
   1.3491649E-04   6.8006528E+05   -1.8637722E+00
   1.3553955E-04   6.7425108E+05   -1.8633151E+00
   1.3616548E-04   6.6848800E+05   -1.8628570E+00
   1.3679431E-04   6.6277558E+05   -1.8623979E+00
   1.3742604E-04   6.5711337E+05   -1.8619379E+00
   1.3806069E-04   6.5150091E+05   -1.8614769E+00
   1.3869827E-04   6.4593775E+05   -1.8610150E+00
   1.3933879E-04   6.4042347E+05   -1.8605521E+00
   1.3998227E-04   6.3495762E+05   -1.8600883E+00
   1.4062872E-04   6.2953976E+05   -1.8596236E+00
   1.4127816E-04   6.2416947E+05   -1.8591579E+00
   1.4193060E-04   6.1884632E+05   -1.8586913E+00
   1.4258605E-04   6.1356989E+05   -1.8582237E+00
   1.4324453E-04   6.0833976E+05   -1.8577552E+00
   1.4390605E-04   6.0315551E+05   -1.8572858E+00
   1.4457062E-04   5.9801674E+05   -1.8568154E+00
   1.4523826E-04   5.9292304E+05   -1.8563441E+00
   1.4590899E-04   5.8787400E+05   -1.8558719E+00
   1.4658281E-04   5.8286923E+05   -1.8553988E+00
   1.4725974E-04   5.7790832E+05   -1.8549247E+00
   1.4793981E-04   5.7299089E+05   -1.8544498E+00
   1.4862301E-04   5.6811655E+05   -1.8539739E+00
   1.4930936E-04   5.6328490E+05   -1.8534971E+00
   1.4999889E-04   5.5849558E+05   -1.8530194E+00
   1.5069160E-04   5.5374820E+05   -1.8525407E+00
   1.5138751E-04   5.4904238E+05   -1.8520612E+00
   1.5208663E-04   5.4437776E+05   -1.8515808E+00
   1.5278899E-04   5.3975397E+05   -1.8510995E+00
   1.5349458E-04   5.3517063E+05   -1.8506172E+00
   1.5420343E-04   5.3062740E+05   -1.8501341E+00
   1.5491556E-04   5.2612391E+05   -1.8496501E+00
   1.5563098E-04   5.2165980E+05   -1.8491652E+00
   1.5634970E-04   5.1723473E+05   -1.8486794E+00
   1.5707174E-04   5.1284834E+05   -1.8481927E+00
   1.5779711E-04   5.0850030E+05   -1.8477052E+00
   1.5852584E-04   5.0419025E+05   -1.8472167E+00
   1.5925792E-04   4.9991785E+05   -1.8467274E+00
   1.5999339E-04   4.9568278E+05   -1.8462372E+00
   1.6073226E-04   4.9148470E+05   -1.8457462E+00
   1.6147454E-04   4.8732328E+05   -1.8452543E+00
   1.6222024E-04   4.8319818E+05   -1.8447615E+00
   1.6296939E-04   4.7910910E+05   -1.8442678E+00
   1.6372200E-04   4.7505570E+05   -1.8437733E+00
   1.6447809E-04   4.7103767E+05   -1.8432780E+00
   1.6523767E-04   4.6705469E+05   -1.8427817E+00
   1.6600075E-04   4.6310645E+05   -1.8422847E+00
   1.6676736E-04   4.5919263E+05   -1.8417868E+00
   1.6753751E-04   4.5531294E+05   -1.8412880E+00
   1.6831122E-04   4.5146707E+05   -1.8407884E+00
   1.6908849E-04   4.4765471E+05   -1.8402880E+00
   1.6986936E-04   4.4387557E+05   -1.8397867E+00
   1.7065384E-04   4.4012935E+05   -1.8392846E+00
   1.7144193E-04   4.3641576E+05   -1.8387817E+00
   1.7223367E-04   4.3273450E+05   -1.8382779E+00
   1.7302906E-04   4.2908530E+05   -1.8377734E+00
   1.7382813E-04   4.2546785E+05   -1.8372680E+00
   1.7463089E-04   4.2188189E+05   -1.8367618E+00
   1.7543735E-04   4.1832713E+05   -1.8362548E+00
   1.7624754E-04   4.1480329E+05   -1.8357470E+00
   1.7706147E-04   4.1131010E+05   -1.8352383E+00
   1.7787916E-04   4.0784728E+05   -1.8347289E+00
   1.7870062E-04   4.0441456E+05   -1.8342187E+00
   1.7952588E-04   4.0101168E+05   -1.8337077E+00
   1.8035495E-04   3.9763837E+05   -1.8331959E+00
   1.8118785E-04   3.9429437E+05   -1.8326833E+00
   1.8202459E-04   3.9097941E+05   -1.8321700E+00
   1.8286520E-04   3.8769324E+05   -1.8316558E+00
   1.8370969E-04   3.8443560E+05   -1.8311409E+00
   1.8455808E-04   3.8120624E+05   -1.8306252E+00
   1.8541039E-04   3.7800490E+05   -1.8301087E+00
   1.8626663E-04   3.7483135E+05   -1.8295915E+00
   1.8712683E-04   3.7168532E+05   -1.8290735E+00
   1.8799100E-04   3.6856658E+05   -1.8285548E+00
   1.8885917E-04   3.6547488E+05   -1.8280353E+00
   1.8973134E-04   3.6240998E+05   -1.8275151E+00
   1.9060754E-04   3.5937165E+05   -1.8269941E+00
   1.9148778E-04   3.5635965E+05   -1.8264724E+00
   1.9237209E-04   3.5337374E+05   -1.8259499E+00
   1.9326049E-04   3.5041369E+05   -1.8254267E+00
   1.9415299E-04   3.4747928E+05   -1.8249028E+00
   1.9504960E-04   3.4457027E+05   -1.8243782E+00
   1.9595036E-04   3.4168644E+05   -1.8238528E+00
   1.9685528E-04   3.3882757E+05   -1.8233268E+00
   1.9776438E-04   3.3599344E+05   -1.8228000E+00
   1.9867768E-04   3.3318382E+05   -1.8222725E+00
   1.9959519E-04   3.3039849E+05   -1.8217443E+00
   2.0051694E-04   3.2763725E+05   -1.8212154E+00
   2.0144295E-04   3.2489988E+05   -1.8206858E+00
   2.0237324E-04   3.2218617E+05   -1.8201555E+00
   2.0330782E-04   3.1949590E+05   -1.8196245E+00
   2.0424671E-04   3.1682887E+05   -1.8190929E+00
   2.0518995E-04   3.1418488E+05   -1.8185605E+00
   2.0613754E-04   3.1156371E+05   -1.8180275E+00
   2.0708950E-04   3.0896517E+05   -1.8174939E+00
   2.0804586E-04   3.0638906E+05   -1.8169595E+00
   2.0900664E-04   3.0383518E+05   -1.8164245E+00
   2.0997185E-04   3.0130333E+05   -1.8158889E+00
   2.1094152E-04   2.9879331E+05   -1.8153526E+00
   2.1191567E-04   2.9630494E+05   -1.8148156E+00
   2.1289432E-04   2.9383801E+05   -1.8142780E+00
   2.1387749E-04   2.9139235E+05   -1.8137398E+00
   2.1486520E-04   2.8896776E+05   -1.8132009E+00
   2.1585747E-04   2.8656405E+05   -1.8126615E+00
   2.1685432E-04   2.8418105E+05   -1.8121213E+00
   2.1785578E-04   2.8181857E+05   -1.8115806E+00
   2.1886186E-04   2.7947642E+05   -1.8110393E+00
   2.1987259E-04   2.7715443E+05   -1.8104973E+00
   2.2088798E-04   2.7485241E+05   -1.8099547E+00
   2.2190807E-04   2.7257020E+05   -1.8094116E+00
   2.2293286E-04   2.7030762E+05   -1.8088678E+00
   2.2396239E-04   2.6806449E+05   -1.8083235E+00
   2.2499667E-04   2.6584064E+05   -1.8077785E+00
   2.2603573E-04   2.6363591E+05   -1.8072330E+00
   2.2707958E-04   2.6145011E+05   -1.8066869E+00
   2.2812826E-04   2.5928309E+05   -1.8061402E+00
   2.2918178E-04   2.5713468E+05   -1.8055930E+00
   2.3024017E-04   2.5500472E+05   -1.8050452E+00
   2.3130344E-04   2.5289303E+05   -1.8044969E+00
   2.3237162E-04   2.5079947E+05   -1.8039480E+00
   2.3344474E-04   2.4872387E+05   -1.8033985E+00
   2.3452281E-04   2.4666607E+05   -1.8028485E+00
   2.3560586E-04   2.4462591E+05   -1.8022980E+00
   2.3669392E-04   2.4260325E+05   -1.8017470E+00
   2.3778699E-04   2.4059792E+05   -1.8011954E+00
   2.3888512E-04   2.3860977E+05   -1.8006433E+00
   2.3998831E-04   2.3663866E+05   -1.8000907E+00
   2.4109661E-04   2.3468442E+05   -1.7995375E+00
   2.4221001E-04   2.3274692E+05   -1.7989839E+00
   2.4332857E-04   2.3082600E+05   -1.7984298E+00
   2.4445228E-04   2.2892152E+05   -1.7978751E+00
   2.4558119E-04   2.2703334E+05   -1.7973200E+00
   2.4671531E-04   2.2516130E+05   -1.7967644E+00
   2.4785467E-04   2.2330527E+05   -1.7962083E+00
   2.4899928E-04   2.2146511E+05   -1.7956517E+00
   2.5014919E-04   2.1964068E+05   -1.7950947E+00
   2.5130440E-04   2.1783184E+05   -1.7945372E+00
   2.5246495E-04   2.1603844E+05   -1.7939793E+00
   2.5363086E-04   2.1426037E+05   -1.7934209E+00
   2.5480216E-04   2.1249747E+05   -1.7928620E+00
   2.5597886E-04   2.1074963E+05   -1.7923027E+00
   2.5716100E-04   2.0901669E+05   -1.7917430E+00
   2.5834859E-04   2.0729855E+05   -1.7911828E+00
   2.5954168E-04   2.0559505E+05   -1.7906222E+00
   2.6074027E-04   2.0390608E+05   -1.7900612E+00
   2.6194439E-04   2.0223151E+05   -1.7894998E+00
   2.6315408E-04   2.0057121E+05   -1.7889380E+00
   2.6436935E-04   1.9892506E+05   -1.7883758E+00
   2.6559024E-04   1.9729293E+05   -1.7878131E+00
   2.6681676E-04   1.9567470E+05   -1.7872501E+00
   2.6804895E-04   1.9407024E+05   -1.7866867E+00
   2.6928683E-04   1.9247944E+05   -1.7861229E+00
   2.7053042E-04   1.9090218E+05   -1.7855587E+00
   2.7177976E-04   1.8933833E+05   -1.7849942E+00
   2.7303487E-04   1.8778778E+05   -1.7844293E+00
   2.7429577E-04   1.8625042E+05   -1.7838640E+00
   2.7556250E-04   1.8472612E+05   -1.7832984E+00
   2.7683507E-04   1.8321477E+05   -1.7827324E+00
   2.7811353E-04   1.8171627E+05   -1.7821661E+00
   2.7939788E-04   1.8023049E+05   -1.7815995E+00
   2.8068817E-04   1.7875733E+05   -1.7810325E+00
   2.8198442E-04   1.7729667E+05   -1.7804652E+00
   2.8328665E-04   1.7584840E+05   -1.7798976E+00
   2.8459490E-04   1.7441242E+05   -1.7793296E+00
   2.8590919E-04   1.7298863E+05   -1.7787614E+00
   2.8722955E-04   1.7157690E+05   -1.7781928E+00
   2.8855600E-04   1.7017714E+05   -1.7776240E+00
   2.8988859E-04   1.6878924E+05   -1.7770549E+00
   2.9122732E-04   1.6741310E+05   -1.7764855E+00
   2.9257224E-04   1.6604862E+05   -1.7759158E+00
   2.9392337E-04   1.6469569E+05   -1.7753458E+00
   2.9528074E-04   1.6335421E+05   -1.7747756E+00
   2.9664438E-04   1.6202408E+05   -1.7742051E+00
   2.9801431E-04   1.6070521E+05   -1.7736343E+00
   2.9939057E-04   1.5939749E+05   -1.7730633E+00
   3.0077319E-04   1.5810083E+05   -1.7724921E+00
   3.0216219E-04   1.5681513E+05   -1.7719206E+00
   3.0355761E-04   1.5554030E+05   -1.7713489E+00
   3.0495947E-04   1.5427624E+05   -1.7707770E+00
   3.0636780E-04   1.5302285E+05   -1.7702048E+00
   3.0778264E-04   1.5178004E+05   -1.7696324E+00
   3.0920401E-04   1.5054773E+05   -1.7690599E+00
   3.1063195E-04   1.4932581E+05   -1.7684871E+00
   3.1206648E-04   1.4811421E+05   -1.7679141E+00
   3.1350764E-04   1.4691282E+05   -1.7673409E+00
   3.1495545E-04   1.4572156E+05   -1.7667676E+00
   3.1640994E-04   1.4454035E+05   -1.7661941E+00
   3.1787116E-04   1.4336908E+05   -1.7656204E+00
   3.1933912E-04   1.4220769E+05   -1.7650465E+00
   3.2081386E-04   1.4105607E+05   -1.7644725E+00
   3.2229541E-04   1.3991416E+05   -1.7638983E+00
   3.2378381E-04   1.3878185E+05   -1.7633240E+00
   3.2527908E-04   1.3765907E+05   -1.7627495E+00
   3.2678125E-04   1.3654574E+05   -1.7621749E+00
   3.2829036E-04   1.3544177E+05   -1.7616002E+00
   3.2980644E-04   1.3434708E+05   -1.7610253E+00
   3.3132952E-04   1.3326159E+05   -1.7604503E+00
   3.3285963E-04   1.3218522E+05   -1.7598753E+00
   3.3439681E-04   1.3111789E+05   -1.7593001E+00
   3.3594109E-04   1.3005953E+05   -1.7587248E+00
   3.3749250E-04   1.2901005E+05   -1.7581494E+00
   3.3905108E-04   1.2796938E+05   -1.7575739E+00
   3.4061685E-04   1.2693744E+05   -1.7569984E+00
   3.4218986E-04   1.2591415E+05   -1.7564227E+00
   3.4377013E-04   1.2489945E+05   -1.7558471E+00
   3.4535769E-04   1.2389325E+05   -1.7552713E+00
   3.4695259E-04   1.2289549E+05   -1.7546955E+00
   3.4855485E-04   1.2190608E+05   -1.7541196E+00
   3.5016452E-04   1.2092496E+05   -1.7535437E+00
   3.5178161E-04   1.1995205E+05   -1.7529678E+00
   3.5340618E-04   1.1898729E+05   -1.7523918E+00
   3.5503824E-04   1.1803060E+05   -1.7518158E+00
   3.5667785E-04   1.1708191E+05   -1.7512397E+00
   3.5832502E-04   1.1614115E+05   -1.7506637E+00
   3.5997981E-04   1.1520826E+05   -1.7500877E+00
   3.6164223E-04   1.1428317E+05   -1.7495116E+00
   3.6331233E-04   1.1336581E+05   -1.7489356E+00
   3.6499015E-04   1.1245611E+05   -1.7483595E+00
   3.6667571E-04   1.1155400E+05   -1.7477835E+00
   3.6836906E-04   1.1065943E+05   -1.7472075E+00
   3.7007022E-04   1.0977232E+05   -1.7466315E+00
   3.7177925E-04   1.0889261E+05   -1.7460556E+00
   3.7349616E-04   1.0802023E+05   -1.7454797E+00
   3.7522101E-04   1.0715513E+05   -1.7449039E+00
   3.7695382E-04   1.0629724E+05   -1.7443281E+00
   3.7869463E-04   1.0544650E+05   -1.7437524E+00
   3.8044348E-04   1.0460285E+05   -1.7431767E+00
   3.8220041E-04   1.0376622E+05   -1.7426011E+00
   3.8396545E-04   1.0293655E+05   -1.7420256E+00
   3.8573864E-04   1.0211379E+05   -1.7414501E+00
   3.8752002E-04   1.0129787E+05   -1.7408748E+00
   3.8930963E-04   1.0048874E+05   -1.7402996E+00
   3.9110750E-04   9.9686339E+04   -1.7397244E+00
   3.9291368E-04   9.8890605E+04   -1.7391494E+00
   3.9472820E-04   9.8101482E+04   -1.7385744E+00
   3.9655109E-04   9.7318914E+04   -1.7379996E+00
   3.9838241E-04   9.6542845E+04   -1.7374250E+00
   4.0022218E-04   9.5773218E+04   -1.7368504E+00
   4.0207045E-04   9.5009977E+04   -1.7362760E+00
   4.0392725E-04   9.4253069E+04   -1.7357018E+00
   4.0579263E-04   9.3502438E+04   -1.7351276E+00
   4.0766662E-04   9.2758031E+04   -1.7345537E+00
   4.0954927E-04   9.2019793E+04   -1.7339799E+00
   4.1144061E-04   9.1287672E+04   -1.7334063E+00
   4.1334068E-04   9.0561615E+04   -1.7328328E+00
   4.1524953E-04   8.9841570E+04   -1.7322595E+00
   4.1716720E-04   8.9127485E+04   -1.7316865E+00
   4.1909372E-04   8.8419310E+04   -1.7311136E+00
   4.2102914E-04   8.7716993E+04   -1.7305409E+00
   4.2297350E-04   8.7020484E+04   -1.7299684E+00
   4.2492683E-04   8.6329733E+04   -1.7293961E+00
   4.2688919E-04   8.5644691E+04   -1.7288241E+00
   4.2886061E-04   8.4965309E+04   -1.7282522E+00
   4.3084113E-04   8.4291539E+04   -1.7276806E+00
   4.3283080E-04   8.3623331E+04   -1.7271092E+00
   4.3482966E-04   8.2960639E+04   -1.7265381E+00
   4.3683775E-04   8.2303415E+04   -1.7259672E+00
   4.3885511E-04   8.1651613E+04   -1.7253966E+00
   4.4088179E-04   8.1005185E+04   -1.7248262E+00
   4.4291783E-04   8.0364086E+04   -1.7242561E+00
   4.4496327E-04   7.9728270E+04   -1.7236862E+00
   4.4701816E-04   7.9097693E+04   -1.7231166E+00
   4.4908253E-04   7.8472308E+04   -1.7225473E+00
   4.5115644E-04   7.7852072E+04   -1.7219783E+00
   4.5323993E-04   7.7236942E+04   -1.7214096E+00
   4.5533304E-04   7.6626872E+04   -1.7208412E+00
   4.5743582E-04   7.6021820E+04   -1.7202731E+00
   4.5954830E-04   7.5421743E+04   -1.7197053E+00
   4.6167054E-04   7.4826598E+04   -1.7191378E+00
   4.6380259E-04   7.4236343E+04   -1.7185707E+00
   4.6594448E-04   7.3650937E+04   -1.7180038E+00
   4.6809626E-04   7.3070338E+04   -1.7174373E+00
   4.7025797E-04   7.2494505E+04   -1.7168712E+00
   4.7242967E-04   7.1923398E+04   -1.7163053E+00
   4.7461140E-04   7.1356976E+04   -1.7157399E+00
   4.7680321E-04   7.0795198E+04   -1.7151748E+00
   4.7900514E-04   7.0238027E+04   -1.7146100E+00
   4.8121723E-04   6.9685422E+04   -1.7140456E+00
   4.8343954E-04   6.9137344E+04   -1.7134816E+00
   4.8567212E-04   6.8593755E+04   -1.7129180E+00
   4.8791500E-04   6.8054617E+04   -1.7123547E+00
   4.9016825E-04   6.7519891E+04   -1.7117919E+00
   4.9243189E-04   6.6989541E+04   -1.7112294E+00
   4.9470600E-04   6.6463528E+04   -1.7106673E+00
   4.9699060E-04   6.5941817E+04   -1.7101057E+00
   4.9928575E-04   6.5424370E+04   -1.7095444E+00
   5.0159151E-04   6.4911151E+04   -1.7089836E+00
   5.0390791E-04   6.4402124E+04   -1.7084232E+00
   5.0623501E-04   6.3897254E+04   -1.7078632E+00
   5.0857286E-04   6.3396505E+04   -1.7073037E+00
   5.1092150E-04   6.2899843E+04   -1.7067446E+00
   5.1328099E-04   6.2407233E+04   -1.7061859E+00
   5.1565137E-04   6.1918640E+04   -1.7056277E+00
   5.1803270E-04   6.1434030E+04   -1.7050699E+00
   5.2042503E-04   6.0953369E+04   -1.7045126E+00
   5.2282841E-04   6.0476624E+04   -1.7039558E+00
   5.2524289E-04   6.0003762E+04   -1.7033994E+00
   5.2766851E-04   5.9534750E+04   -1.7028436E+00
   5.3010534E-04   5.9069555E+04   -1.7022882E+00
   5.3255342E-04   5.8608145E+04   -1.7017332E+00
   5.3501281E-04   5.8150488E+04   -1.7011788E+00
   5.3748356E-04   5.7696551E+04   -1.7006249E+00
   5.3996571E-04   5.7246305E+04   -1.7000715E+00
   5.4245933E-04   5.6799716E+04   -1.6995186E+00
   5.4496446E-04   5.6356756E+04   -1.6989662E+00
   5.4748117E-04   5.5917392E+04   -1.6984143E+00
   5.5000949E-04   5.5481594E+04   -1.6978629E+00
   5.5254949E-04   5.5049332E+04   -1.6973121E+00
   5.5510123E-04   5.4620577E+04   -1.6967618E+00
   5.5766474E-04   5.4195299E+04   -1.6962120E+00
   5.6024010E-04   5.3773467E+04   -1.6956628E+00
   5.6282734E-04   5.3355055E+04   -1.6951141E+00
   5.6542654E-04   5.2940031E+04   -1.6945660E+00
   5.6803774E-04   5.2528369E+04   -1.6940184E+00
   5.7066099E-04   5.2120038E+04   -1.6934715E+00
   5.7329637E-04   5.1715013E+04   -1.6929250E+00
   5.7594391E-04   5.1313264E+04   -1.6923792E+00
   5.7860368E-04   5.0914764E+04   -1.6918339E+00
   5.8127573E-04   5.0519486E+04   -1.6912892E+00
   5.8396012E-04   5.0127402E+04   -1.6907451E+00
   5.8665691E-04   4.9738485E+04   -1.6902016E+00
   5.8936616E-04   4.9352710E+04   -1.6896587E+00
   5.9208791E-04   4.8970049E+04   -1.6891163E+00
   5.9482223E-04   4.8590477E+04   -1.6885746E+00
   5.9756919E-04   4.8213967E+04   -1.6880335E+00
   6.0032882E-04   4.7840493E+04   -1.6874931E+00
   6.0310120E-04   4.7470031E+04   -1.6869532E+00
   6.0588639E-04   4.7102554E+04   -1.6864140E+00
   6.0868443E-04   4.6738038E+04   -1.6858754E+00
   6.1149540E-04   4.6376459E+04   -1.6853374E+00
   6.1431935E-04   4.6017790E+04   -1.6848001E+00
   6.1715634E-04   4.5662009E+04   -1.6842634E+00
   6.2000644E-04   4.5309090E+04   -1.6837273E+00
   6.2286969E-04   4.4959009E+04   -1.6831920E+00
