#        a       HoverH0(a)       dlogHdloga_of_a(a)
   1.0000000E-04   1.1912202E+06   -1.8673878E+00
   1.0046181E-04   1.1810162E+06   -1.8669383E+00
   1.0092575E-04   1.1709020E+06   -1.8664879E+00
   1.0139184E-04   1.1608769E+06   -1.8660365E+00
   1.0186008E-04   1.1509400E+06   -1.8655841E+00
   1.0233048E-04   1.1410905E+06   -1.8651308E+00
   1.0280305E-04   1.1313277E+06   -1.8646765E+00
   1.0327781E-04   1.1216508E+06   -1.8642213E+00
   1.0375475E-04   1.1120589E+06   -1.8637651E+00
   1.0423390E-04   1.1025515E+06   -1.8633079E+00
   1.0471527E-04   1.0931276E+06   -1.8628498E+00
   1.0519885E-04   1.0837865E+06   -1.8623907E+00
   1.0568467E-04   1.0745275E+06   -1.8619307E+00
   1.0617274E-04   1.0653499E+06   -1.8614697E+00
   1.0666305E-04   1.0562530E+06   -1.8610078E+00
   1.0715563E-04   1.0472359E+06   -1.8605450E+00
   1.0765049E-04   1.0382981E+06   -1.8600811E+00
   1.0814763E-04   1.0294387E+06   -1.8596164E+00
   1.0864707E-04   1.0206571E+06   -1.8591507E+00
   1.0914881E-04   1.0119526E+06   -1.8586841E+00
   1.0965287E-04   1.0033245E+06   -1.8582165E+00
   1.1015926E-04   9.9477208E+05   -1.8577480E+00
   1.1066799E-04   9.8629470E+05   -1.8572786E+00
   1.1117906E-04   9.7789169E+05   -1.8568082E+00
   1.1169250E-04   9.6956237E+05   -1.8563369E+00
   1.1220831E-04   9.6130609E+05   -1.8558647E+00
   1.1272650E-04   9.5312219E+05   -1.8553916E+00
   1.1324708E-04   9.4501002E+05   -1.8549175E+00
   1.1377007E-04   9.3696895E+05   -1.8544425E+00
   1.1429547E-04   9.2899833E+05   -1.8539666E+00
   1.1482330E-04   9.2109754E+05   -1.8534898E+00
   1.1535356E-04   9.1326596E+05   -1.8530121E+00
   1.1588628E-04   9.0550295E+05   -1.8525335E+00
   1.1642145E-04   8.9780791E+05   -1.8520540E+00
   1.1695910E-04   8.9018024E+05   -1.8515735E+00
   1.1749923E-04   8.8261932E+05   -1.8510922E+00
   1.1804185E-04   8.7512457E+05   -1.8506100E+00
   1.1858698E-04   8.6769538E+05   -1.8501269E+00
   1.1913463E-04   8.6033119E+05   -1.8496429E+00
   1.1968481E-04   8.5303139E+05   -1.8491579E+00
   1.2023752E-04   8.4579543E+05   -1.8486722E+00
   1.2079279E-04   8.3862273E+05   -1.8481855E+00
   1.2135063E-04   8.3151272E+05   -1.8476979E+00
   1.2191104E-04   8.2446484E+05   -1.8472095E+00
   1.2247403E-04   8.1747854E+05   -1.8467202E+00
   1.2303963E-04   8.1055328E+05   -1.8462300E+00
   1.2360784E-04   8.0368849E+05   -1.8457389E+00
   1.2417868E-04   7.9688365E+05   -1.8452470E+00
   1.2475215E-04   7.9013822E+05   -1.8447542E+00
   1.2532826E-04   7.8345167E+05   -1.8442606E+00
   1.2590704E-04   7.7682347E+05   -1.8437661E+00
   1.2648850E-04   7.7025310E+05   -1.8432707E+00
   1.2707263E-04   7.6374005E+05   -1.8427745E+00
   1.2765947E-04   7.5728380E+05   -1.8422774E+00
   1.2824901E-04   7.5088386E+05   -1.8417795E+00
   1.2884128E-04   7.4453971E+05   -1.8412808E+00
   1.2943628E-04   7.3825086E+05   -1.8407812E+00
   1.3003403E-04   7.3201682E+05   -1.8402807E+00
   1.3063454E-04   7.2583710E+05   -1.8397795E+00
   1.3123783E-04   7.1971120E+05   -1.8392774E+00
   1.3184390E-04   7.1363866E+05   -1.8387745E+00
   1.3245277E-04   7.0761900E+05   -1.8382707E+00
   1.3306445E-04   7.0165175E+05   -1.8377662E+00
   1.3367895E-04   6.9573643E+05   -1.8372608E+00
   1.3429630E-04   6.8987259E+05   -1.8367546E+00
   1.3491649E-04   6.8405977E+05   -1.8362476E+00
   1.3553955E-04   6.7829751E+05   -1.8357398E+00
   1.3616548E-04   6.7258537E+05   -1.8352311E+00
   1.3679431E-04   6.6692290E+05   -1.8347217E+00
   1.3742604E-04   6.6130965E+05   -1.8342115E+00
   1.3806069E-04   6.5574519E+05   -1.8337005E+00
   1.3869827E-04   6.5022909E+05   -1.8331887E+00
   1.3933879E-04   6.4476090E+05   -1.8326761E+00
   1.3998227E-04   6.3934021E+05   -1.8321628E+00
   1.4062872E-04   6.3396660E+05   -1.8316486E+00
   1.4127816E-04   6.2863964E+05   -1.8311337E+00
   1.4193060E-04   6.2335892E+05   -1.8306180E+00
   1.4258605E-04   6.1812403E+05   -1.8301016E+00
   1.4324453E-04   6.1293456E+05   -1.8295844E+00
   1.4390605E-04   6.0779011E+05   -1.8290664E+00
   1.4457062E-04   6.0269028E+05   -1.8285477E+00
   1.4523826E-04   5.9763466E+05   -1.8280282E+00
   1.4590899E-04   5.9262288E+05   -1.8275080E+00
   1.4658281E-04   5.8765454E+05   -1.8269870E+00
   1.4725974E-04   5.8272924E+05   -1.8264653E+00
   1.4793981E-04   5.7784662E+05   -1.8259428E+00
   1.4862301E-04   5.7300629E+05   -1.8254197E+00
   1.4930936E-04   5.6820787E+05   -1.8248957E+00
   1.4999889E-04   5.6345100E+05   -1.8243711E+00
   1.5069160E-04   5.5873530E+05   -1.8238458E+00
   1.5138751E-04   5.5406041E+05   -1.8233197E+00
   1.5208663E-04   5.4942597E+05   -1.8227929E+00
   1.5278899E-04   5.4483162E+05   -1.8222654E+00
   1.5349458E-04   5.4027700E+05   -1.8217372E+00
   1.5420343E-04   5.3576176E+05   -1.8212084E+00
   1.5491556E-04   5.3128555E+05   -1.8206788E+00
   1.5563098E-04   5.2684802E+05   -1.8201485E+00
   1.5634970E-04   5.2244884E+05   -1.8196175E+00
   1.5707174E-04   5.1808765E+05   -1.8190859E+00
   1.5779711E-04   5.1376413E+05   -1.8185536E+00
   1.5852584E-04   5.0947795E+05   -1.8180206E+00
   1.5925792E-04   5.0522876E+05   -1.8174869E+00
   1.5999339E-04   5.0101624E+05   -1.8169526E+00
   1.6073226E-04   4.9684007E+05   -1.8164176E+00
   1.6147454E-04   4.9269993E+05   -1.8158820E+00
   1.6222024E-04   4.8859549E+05   -1.8153457E+00
   1.6296939E-04   4.8452644E+05   -1.8148087E+00
   1.6372200E-04   4.8049247E+05   -1.8142712E+00
   1.6447809E-04   4.7649327E+05   -1.8137329E+00
   1.6523767E-04   4.7252852E+05   -1.8131941E+00
   1.6600075E-04   4.6859793E+05   -1.8126546E+00
   1.6676736E-04   4.6470119E+05   -1.8121145E+00
   1.6753751E-04   4.6083800E+05   -1.8115738E+00
   1.6831122E-04   4.5700807E+05   -1.8110325E+00
   1.6908849E-04   4.5321109E+05   -1.8104905E+00
   1.6986936E-04   4.4944679E+05   -1.8099480E+00
   1.7065384E-04   4.4571486E+05   -1.8094048E+00
   1.7144193E-04   4.4201503E+05   -1.8088611E+00
   1.7223367E-04   4.3834701E+05   -1.8083167E+00
   1.7302906E-04   4.3471053E+05   -1.8077718E+00
   1.7382813E-04   4.3110529E+05   -1.8072263E+00
   1.7463089E-04   4.2753102E+05   -1.8066802E+00
   1.7543735E-04   4.2398746E+05   -1.8061336E+00
   1.7624754E-04   4.2047433E+05   -1.8055864E+00
   1.7706147E-04   4.1699136E+05   -1.8050386E+00
   1.7787916E-04   4.1353829E+05   -1.8044903E+00
   1.7870062E-04   4.1011484E+05   -1.8039414E+00
   1.7952588E-04   4.0672077E+05   -1.8033920E+00
   1.8035495E-04   4.0335580E+05   -1.8028420E+00
   1.8118785E-04   4.0001969E+05   -1.8022915E+00
   1.8202459E-04   3.9671218E+05   -1.8017404E+00
   1.8286520E-04   3.9343302E+05   -1.8011889E+00
   1.8370969E-04   3.9018195E+05   -1.8006368E+00
   1.8455808E-04   3.8695874E+05   -1.8000842E+00
   1.8541039E-04   3.8376312E+05   -1.7995311E+00
   1.8626663E-04   3.8059487E+05   -1.7989775E+00
   1.8712683E-04   3.7745374E+05   -1.7984234E+00
   1.8799100E-04   3.7433949E+05   -1.7978687E+00
   1.8885917E-04   3.7125188E+05   -1.7973136E+00
   1.8973134E-04   3.6819068E+05   -1.7967581E+00
   1.9060754E-04   3.6515566E+05   -1.7962020E+00
   1.9148778E-04   3.6214658E+05   -1.7956455E+00
   1.9237209E-04   3.5916322E+05   -1.7950884E+00
   1.9326049E-04   3.5620535E+05   -1.7945310E+00
   1.9415299E-04   3.5327275E+05   -1.7939730E+00
   1.9504960E-04   3.5036520E+05   -1.7934147E+00
   1.9595036E-04   3.4748247E+05   -1.7928558E+00
   1.9685528E-04   3.4462434E+05   -1.7922966E+00
   1.9776438E-04   3.4179061E+05   -1.7917369E+00
   1.9867768E-04   3.3898105E+05   -1.7911767E+00
   1.9959519E-04   3.3619545E+05   -1.7906162E+00
   2.0051694E-04   3.3343361E+05   -1.7900552E+00
   2.0144295E-04   3.3069531E+05   -1.7894938E+00
   2.0237324E-04   3.2798034E+05   -1.7889320E+00
   2.0330782E-04   3.2528851E+05   -1.7883698E+00
   2.0424671E-04   3.2261961E+05   -1.7878072E+00
   2.0518995E-04   3.1997343E+05   -1.7872441E+00
   2.0613754E-04   3.1734978E+05   -1.7866808E+00
   2.0708950E-04   3.1474846E+05   -1.7861170E+00
   2.0804586E-04   3.1216928E+05   -1.7855528E+00
   2.0900664E-04   3.0961204E+05   -1.7849883E+00
   2.0997185E-04   3.0707654E+05   -1.7844235E+00
   2.1094152E-04   3.0456260E+05   -1.7838582E+00
   2.1191567E-04   3.0207003E+05   -1.7832926E+00
   2.1289432E-04   2.9959864E+05   -1.7827267E+00
   2.1387749E-04   2.9714824E+05   -1.7821604E+00
   2.1486520E-04   2.9471866E+05   -1.7815938E+00
   2.1585747E-04   2.9230970E+05   -1.7810268E+00
   2.1685432E-04   2.8992119E+05   -1.7804596E+00
   2.1785578E-04   2.8755295E+05   -1.7798920E+00
   2.1886186E-04   2.8520480E+05   -1.7793241E+00
   2.1987259E-04   2.8287656E+05   -1.7787559E+00
   2.2088798E-04   2.8056807E+05   -1.7781873E+00
   2.2190807E-04   2.7827914E+05   -1.7776185E+00
   2.2293286E-04   2.7600962E+05   -1.7770494E+00
   2.2396239E-04   2.7375932E+05   -1.7764801E+00
   2.2499667E-04   2.7152807E+05   -1.7759104E+00
   2.2603573E-04   2.6931573E+05   -1.7753405E+00
   2.2707958E-04   2.6712210E+05   -1.7747703E+00
   2.2812826E-04   2.6494704E+05   -1.7741998E+00
   2.2918178E-04   2.6279039E+05   -1.7736291E+00
   2.3024017E-04   2.6065197E+05   -1.7730581E+00
   2.3130344E-04   2.5853164E+05   -1.7724869E+00
   2.3237162E-04   2.5642922E+05   -1.7719155E+00
   2.3344474E-04   2.5434458E+05   -1.7713438E+00
   2.3452281E-04   2.5227755E+05   -1.7707719E+00
   2.3560586E-04   2.5022797E+05   -1.7701998E+00
   2.3669392E-04   2.4819570E+05   -1.7696274E+00
   2.3778699E-04   2.4618059E+05   -1.7690549E+00
   2.3888512E-04   2.4418248E+05   -1.7684822E+00
   2.3998831E-04   2.4220123E+05   -1.7679092E+00
   2.4109661E-04   2.4023669E+05   -1.7673361E+00
   2.4221001E-04   2.3828871E+05   -1.7667628E+00
   2.4332857E-04   2.3635715E+05   -1.7661893E+00
   2.4445228E-04   2.3444187E+05   -1.7656156E+00
   2.4558119E-04   2.3254272E+05   -1.7650418E+00
   2.4671531E-04   2.3065956E+05   -1.7644678E+00
   2.4785467E-04   2.2879227E+05   -1.7638937E+00
   2.4899928E-04   2.2694069E+05   -1.7633194E+00
   2.5014919E-04   2.2510469E+05   -1.7627450E+00
   2.5130440E-04   2.2328413E+05   -1.7621704E+00
   2.5246495E-04   2.2147889E+05   -1.7615957E+00
   2.5363086E-04   2.1968882E+05   -1.7610209E+00
   2.5480216E-04   2.1791379E+05   -1.7604460E+00
   2.5597886E-04   2.1615369E+05   -1.7598709E+00
   2.5716100E-04   2.1440836E+05   -1.7592958E+00
   2.5834859E-04   2.1267769E+05   -1.7587205E+00
   2.5954168E-04   2.1096155E+05   -1.7581452E+00
   2.6074027E-04   2.0925982E+05   -1.7575698E+00
   2.6194439E-04   2.0757236E+05   -1.7569942E+00
   2.6315408E-04   2.0589905E+05   -1.7564187E+00
   2.6436935E-04   2.0423978E+05   -1.7558430E+00
   2.6559024E-04   2.0259441E+05   -1.7552673E+00
   2.6681676E-04   2.0096284E+05   -1.7546915E+00
   2.6804895E-04   1.9934493E+05   -1.7541157E+00
   2.6928683E-04   1.9774057E+05   -1.7535398E+00
   2.7053042E-04   1.9614964E+05   -1.7529639E+00
   2.7177976E-04   1.9457203E+05   -1.7523880E+00
   2.7303487E-04   1.9300762E+05   -1.7518120E+00
   2.7429577E-04   1.9145630E+05   -1.7512361E+00
   2.7556250E-04   1.8991795E+05   -1.7506601E+00
   2.7683507E-04   1.8839246E+05   -1.7500841E+00
   2.7811353E-04   1.8687972E+05   -1.7495081E+00
   2.7939788E-04   1.8537962E+05   -1.7489321E+00
   2.8068817E-04   1.8389205E+05   -1.7483561E+00
   2.8198442E-04   1.8241690E+05   -1.7477801E+00
   2.8328665E-04   1.8095406E+05   -1.7472042E+00
   2.8459490E-04   1.7950343E+05   -1.7466282E+00
   2.8590919E-04   1.7806490E+05   -1.7460524E+00
   2.8722955E-04   1.7663837E+05   -1.7454765E+00
   2.8855600E-04   1.7522373E+05   -1.7449007E+00
   2.8988859E-04   1.7382088E+05   -1.7443250E+00
   2.9122732E-04   1.7242972E+05   -1.7437493E+00
   2.9257224E-04   1.7105015E+05   -1.7431737E+00
   2.9392337E-04   1.6968207E+05   -1.7425982E+00
   2.9528074E-04   1.6832537E+05   -1.7420227E+00
   2.9664438E-04   1.6697997E+05   -1.7414473E+00
   2.9801431E-04   1.6564576E+05   -1.7408720E+00
   2.9939057E-04   1.6432264E+05   -1.7402968E+00
   3.0077319E-04   1.6301052E+05   -1.7397217E+00
   3.0216219E-04   1.6170931E+05   -1.7391467E+00
   3.0355761E-04   1.6041892E+05   -1.7385719E+00
   3.0495947E-04   1.5913924E+05   -1.7379971E+00
   3.0636780E-04   1.5787018E+05   -1.7374225E+00
   3.0778264E-04   1.5661166E+05   -1.7368480E+00
   3.0920401E-04   1.5536359E+05   -1.7362737E+00
   3.1063195E-04   1.5412587E+05   -1.7356995E+00
   3.1206648E-04   1.5289841E+05   -1.7351254E+00
   3.1350764E-04   1.5168113E+05   -1.7345515E+00
   3.1495545E-04   1.5047394E+05   -1.7339778E+00
   3.1640994E-04   1.4927675E+05   -1.7334042E+00
   3.1787116E-04   1.4808948E+05   -1.7328308E+00
   3.1933912E-04   1.4691204E+05   -1.7322576E+00
   3.2081386E-04   1.4574434E+05   -1.7316846E+00
   3.2229541E-04   1.4458631E+05   -1.7311117E+00
   3.2378381E-04   1.4343786E+05   -1.7305391E+00
   3.2527908E-04   1.4229891E+05   -1.7299667E+00
   3.2678125E-04   1.4116937E+05   -1.7293945E+00
   3.2829036E-04   1.4004917E+05   -1.7288225E+00
   3.2980644E-04   1.3893822E+05   -1.7282507E+00
   3.3132952E-04   1.3783645E+05   -1.7276791E+00
   3.3285963E-04   1.3674377E+05   -1.7271078E+00
   3.3439681E-04   1.3566011E+05   -1.7265368E+00
   3.3594109E-04   1.3458540E+05   -1.7259659E+00
   3.3749250E-04   1.3351955E+05   -1.7253954E+00
   3.3905108E-04   1.3246249E+05   -1.7248250E+00
   3.4061685E-04   1.3141414E+05   -1.7242550E+00
   3.4218986E-04   1.3037444E+05   -1.7236852E+00
   3.4377013E-04   1.2934329E+05   -1.7231157E+00
   3.4535769E-04   1.2832064E+05   -1.7225465E+00
   3.4695259E-04   1.2730641E+05   -1.7219775E+00
   3.4855485E-04   1.2630053E+05   -1.7214089E+00
   3.5016452E-04   1.2530292E+05   -1.7208405E+00
   3.5178161E-04   1.2431352E+05   -1.7202725E+00
   3.5340618E-04   1.2333226E+05   -1.7197048E+00
   3.5503824E-04   1.2235905E+05   -1.7191373E+00
   3.5667785E-04   1.2139385E+05   -1.7185702E+00
   3.5832502E-04   1.2043657E+05   -1.7180035E+00
   3.5997981E-04   1.1948716E+05   -1.7174370E+00
   3.6164223E-04   1.1854554E+05   -1.7168710E+00
   3.6331233E-04   1.1761164E+05   -1.7163052E+00
   3.6499015E-04   1.1668541E+05   -1.7157398E+00
   3.6667571E-04   1.1576677E+05   -1.7151748E+00
   3.6836906E-04   1.1485566E+05   -1.7146101E+00
   3.7007022E-04   1.1395203E+05   -1.7140458E+00
   3.7177925E-04   1.1305579E+05   -1.7134818E+00
   3.7349616E-04   1.1216689E+05   -1.7129183E+00
   3.7522101E-04   1.1128528E+05   -1.7123551E+00
   3.7695382E-04   1.1041087E+05   -1.7117923E+00
   3.7869463E-04   1.0954363E+05   -1.7112299E+00
   3.8044348E-04   1.0868347E+05   -1.7106679E+00
   3.8220041E-04   1.0783035E+05   -1.7101063E+00
   3.8396545E-04   1.0698420E+05   -1.7095452E+00
   3.8573864E-04   1.0614497E+05   -1.7089844E+00
   3.8752002E-04   1.0531259E+05   -1.7084241E+00
   3.8930963E-04   1.0448701E+05   -1.7078642E+00
   3.9110750E-04   1.0366817E+05   -1.7073047E+00
   3.9291368E-04   1.0285601E+05   -1.7067457E+00
   3.9472820E-04   1.0205047E+05   -1.7061871E+00
   3.9655109E-04   1.0125151E+05   -1.7056290E+00
   3.9838241E-04   1.0045906E+05   -1.7050713E+00
   4.0022218E-04   9.9673063E+04   -1.7045141E+00
   4.0207045E-04   9.8893473E+04   -1.7039573E+00
   4.0392725E-04   9.8120232E+04   -1.7034010E+00
   4.0579263E-04   9.7353286E+04   -1.7028452E+00
   4.0766662E-04   9.6592582E+04   -1.7022899E+00
   4.0954927E-04   9.5838068E+04   -1.7017351E+00
   4.1144061E-04   9.5089690E+04   -1.7011807E+00
   4.1334068E-04   9.4347397E+04   -1.7006269E+00
   4.1524953E-04   9.3611137E+04   -1.7000736E+00
   4.1716720E-04   9.2880860E+04   -1.6995207E+00
   4.1909372E-04   9.2156514E+04   -1.6989684E+00
   4.2102914E-04   9.1438049E+04   -1.6984166E+00
   4.2297350E-04   9.0725416E+04   -1.6978653E+00
   4.2492683E-04   9.0018566E+04   -1.6973146E+00
   4.2688919E-04   8.9317450E+04   -1.6967644E+00
   4.2886061E-04   8.8622019E+04   -1.6962147E+00
   4.3084113E-04   8.7932225E+04   -1.6956655E+00
   4.3283080E-04   8.7248021E+04   -1.6951170E+00
   4.3482966E-04   8.6569359E+04   -1.6945689E+00
   4.3683775E-04   8.5896194E+04   -1.6940215E+00
   4.3885511E-04   8.5228477E+04   -1.6934746E+00
   4.4088179E-04   8.4566164E+04   -1.6929282E+00
   4.4291783E-04   8.3909209E+04   -1.6923824E+00
   4.4496327E-04   8.3257567E+04   -1.6918373E+00
   4.4701816E-04   8.2611193E+04   -1.6912927E+00
   4.4908253E-04   8.1970042E+04   -1.6907486E+00
   4.5115644E-04   8.1334071E+04   -1.6902052E+00
   4.5323993E-04   8.0703237E+04   -1.6896624E+00
   4.5533304E-04   8.0077496E+04   -1.6891202E+00
   4.5743582E-04   7.9456804E+04   -1.6885785E+00
   4.5954830E-04   7.8841121E+04   -1.6880375E+00
   4.6167054E-04   7.8230403E+04   -1.6874972E+00
   4.6380259E-04   7.7624609E+04   -1.6869574E+00
   4.6594448E-04   7.7023697E+04   -1.6864183E+00
   4.6809626E-04   7.6427627E+04   -1.6858797E+00
   4.7025797E-04   7.5836358E+04   -1.6853419E+00
   4.7242967E-04   7.5249850E+04   -1.6848046E+00
   4.7461140E-04   7.4668062E+04   -1.6842680E+00
   4.7680321E-04   7.4090955E+04   -1.6837321E+00
   4.7900514E-04   7.3518490E+04   -1.6831968E+00
   4.8121723E-04   7.2950628E+04   -1.6826622E+00
   4.8343954E-04   7.2387331E+04   -1.6821282E+00
   4.8567212E-04   7.1828560E+04   -1.6815949E+00
   4.8791500E-04   7.1274277E+04   -1.6810623E+00
   4.9016825E-04   7.0724445E+04   -1.6805303E+00
   4.9243189E-04   7.0179026E+04   -1.6799990E+00
   4.9470600E-04   6.9637984E+04   -1.6794684E+00
   4.9699060E-04   6.9101282E+04   -1.6789385E+00
   4.9928575E-04   6.8568883E+04   -1.6784093E+00
   5.0159151E-04   6.8040752E+04   -1.6778808E+00
   5.0390791E-04   6.7516853E+04   -1.6773530E+00
   5.0623501E-04   6.6997151E+04   -1.6768259E+00
   5.0857286E-04   6.6481611E+04   -1.6762995E+00
   5.1092150E-04   6.5970197E+04   -1.6757738E+00
   5.1328099E-04   6.5462876E+04   -1.6752488E+00
   5.1565137E-04   6.4959614E+04   -1.6747246E+00
   5.1803270E-04   6.4460376E+04   -1.6742011E+00
   5.2042503E-04   6.3965129E+04   -1.6736783E+00
   5.2282841E-04   6.3473840E+04   -1.6731562E+00
   5.2524289E-04   6.2986476E+04   -1.6726349E+00
   5.2766851E-04   6.2503003E+04   -1.6721143E+00
   5.3010534E-04   6.2023391E+04   -1.6715945E+00
   5.3255342E-04   6.1547606E+04   -1.6710754E+00
   5.3501281E-04   6.1075616E+04   -1.6705571E+00
   5.3748356E-04   6.0607391E+04   -1.6700395E+00
   5.3996571E-04   6.0142899E+04   -1.6695227E+00
   5.4245933E-04   5.9682108E+04   -1.6690067E+00
   5.4496446E-04   5.9224989E+04   -1.6684914E+00
   5.4748117E-04   5.8771511E+04   -1.6679769E+00
   5.5000949E-04   5.8321642E+04   -1.6674631E+00
   5.5254949E-04   5.7875355E+04   -1.6669502E+00
   5.5510123E-04   5.7432617E+04   -1.6664380E+00
   5.5766474E-04   5.6993402E+04   -1.6659267E+00
   5.6024010E-04   5.6557678E+04   -1.6654161E+00
   5.6282734E-04   5.6125417E+04   -1.6649063E+00
   5.6542654E-04   5.5696591E+04   -1.6643973E+00
   5.6803774E-04   5.5271170E+04   -1.6638891E+00
   5.7066099E-04   5.4849128E+04   -1.6633817E+00
   5.7329637E-04   5.4430435E+04   -1.6628751E+00
   5.7594391E-04   5.4015064E+04   -1.6623693E+00
   5.7860368E-04   5.3602988E+04   -1.6618644E+00
   5.8127573E-04   5.3194179E+04   -1.6613602E+00
   5.8396012E-04   5.2788611E+04   -1.6608569E+00
   5.8665691E-04   5.2386256E+04   -1.6603544E+00
   5.8936616E-04   5.1987088E+04   -1.6598528E+00
   5.9208791E-04   5.1591081E+04   -1.6593520E+00
   5.9482223E-04   5.1198209E+04   -1.6588520E+00
   5.9756919E-04   5.0808445E+04   -1.6583528E+00
   6.0032882E-04   5.0421764E+04   -1.6578545E+00
   6.0310120E-04   5.0038141E+04   -1.6573570E+00
   6.0588639E-04   4.9657550E+04   -1.6568604E+00
   6.0868443E-04   4.9279967E+04   -1.6563646E+00
   6.1149540E-04   4.8905366E+04   -1.6558697E+00
   6.1431935E-04   4.8533724E+04   -1.6553756E+00
   6.1715634E-04   4.8165015E+04   -1.6548824E+00
   6.2000644E-04   4.7799216E+04   -1.6543901E+00
   6.2286969E-04   4.7436303E+04   -1.6538986E+00
