#        a       HoverH0(a)       dlogHdloga_of_a(a)
   1.0000000E-04   1.0556067E+06   -1.8710072E+00
   1.0046181E-04   1.0465469E+06   -1.8705657E+00
   1.0092575E-04   1.0375669E+06   -1.8701232E+00
   1.0139184E-04   1.0286661E+06   -1.8696797E+00
   1.0186008E-04   1.0198438E+06   -1.8692353E+00
   1.0233048E-04   1.0110992E+06   -1.8687898E+00
   1.0280305E-04   1.0024316E+06   -1.8683434E+00
   1.0327781E-04   9.9384042E+05   -1.8678961E+00
   1.0375475E-04   9.8532486E+05   -1.8674477E+00
   1.0423390E-04   9.7688429E+05   -1.8669984E+00
   1.0471527E-04   9.6851804E+05   -1.8665481E+00
   1.0519885E-04   9.6022542E+05   -1.8660968E+00
   1.0568467E-04   9.5200579E+05   -1.8656446E+00
   1.0617274E-04   9.4385849E+05   -1.8651914E+00
   1.0666305E-04   9.3578287E+05   -1.8647372E+00
   1.0715563E-04   9.2777830E+05   -1.8642821E+00
   1.0765049E-04   9.1984412E+05   -1.8638261E+00
   1.0814763E-04   9.1197971E+05   -1.8633690E+00
   1.0864707E-04   9.0418445E+05   -1.8629110E+00
   1.0914881E-04   8.9645771E+05   -1.8624521E+00
   1.0965287E-04   8.8879888E+05   -1.8619922E+00
   1.1015926E-04   8.8120735E+05   -1.8615313E+00
   1.1066799E-04   8.7368253E+05   -1.8610695E+00
   1.1117906E-04   8.6622380E+05   -1.8606068E+00
   1.1169250E-04   8.5883058E+05   -1.8601431E+00
   1.1220831E-04   8.5150228E+05   -1.8596785E+00
   1.1272650E-04   8.4423833E+05   -1.8592129E+00
   1.1324708E-04   8.3703813E+05   -1.8587464E+00
   1.1377007E-04   8.2990114E+05   -1.8582789E+00
   1.1429547E-04   8.2282677E+05   -1.8578106E+00
   1.1482330E-04   8.1581447E+05   -1.8573413E+00
   1.1535356E-04   8.0886367E+05   -1.8568710E+00
   1.1588628E-04   8.0197384E+05   -1.8563999E+00
   1.1642145E-04   7.9514443E+05   -1.8559278E+00
   1.1695910E-04   7.8837488E+05   -1.8554547E+00
   1.1749923E-04   7.8166468E+05   -1.8549808E+00
   1.1804185E-04   7.7501328E+05   -1.8545060E+00
   1.1858698E-04   7.6842016E+05   -1.8540302E+00
   1.1913463E-04   7.6188481E+05   -1.8535535E+00
   1.1968481E-04   7.5540669E+05   -1.8530759E+00
   1.2023752E-04   7.4898531E+05   -1.8525974E+00
   1.2079279E-04   7.4262016E+05   -1.8521180E+00
   1.2135063E-04   7.3631072E+05   -1.8516377E+00
   1.2191104E-04   7.3005651E+05   -1.8511565E+00
   1.2247403E-04   7.2385703E+05   -1.8506744E+00
   1.2303963E-04   7.1771179E+05   -1.8501914E+00
   1.2360784E-04   7.1162030E+05   -1.8497075E+00
   1.2417868E-04   7.0558209E+05   -1.8492227E+00
   1.2475215E-04   6.9959668E+05   -1.8487370E+00
   1.2532826E-04   6.9366360E+05   -1.8482505E+00
   1.2590704E-04   6.8778237E+05   -1.8477630E+00
   1.2648850E-04   6.8195254E+05   -1.8472747E+00
   1.2707263E-04   6.7617365E+05   -1.8467855E+00
   1.2765947E-04   6.7044525E+05   -1.8462954E+00
   1.2824901E-04   6.6476687E+05   -1.8458045E+00
   1.2884128E-04   6.5913809E+05   -1.8453127E+00
   1.2943628E-04   6.5355844E+05   -1.8448200E+00
   1.3003403E-04   6.4802750E+05   -1.8443265E+00
   1.3063454E-04   6.4254483E+05   -1.8438321E+00
   1.3123783E-04   6.3711000E+05   -1.8433368E+00
   1.3184390E-04   6.3172258E+05   -1.8428407E+00
   1.3245277E-04   6.2638214E+05   -1.8423438E+00
   1.3306445E-04   6.2108828E+05   -1.8418460E+00
   1.3367895E-04   6.1584058E+05   -1.8413473E+00
   1.3429630E-04   6.1063861E+05   -1.8408478E+00
   1.3491649E-04   6.0548198E+05   -1.8403475E+00
   1.3553955E-04   6.0037029E+05   -1.8398464E+00
   1.3616548E-04   5.9530312E+05   -1.8393444E+00
   1.3679431E-04   5.9028009E+05   -1.8388416E+00
   1.3742604E-04   5.8530080E+05   -1.8383379E+00
   1.3806069E-04   5.8036485E+05   -1.8378335E+00
   1.3869827E-04   5.7547188E+05   -1.8373282E+00
   1.3933879E-04   5.7062148E+05   -1.8368221E+00
   1.3998227E-04   5.6581329E+05   -1.8363152E+00
   1.4062872E-04   5.6104692E+05   -1.8358075E+00
   1.4127816E-04   5.5632200E+05   -1.8352990E+00
   1.4193060E-04   5.5163817E+05   -1.8347897E+00
   1.4258605E-04   5.4699506E+05   -1.8342796E+00
   1.4324453E-04   5.4239231E+05   -1.8337687E+00
   1.4390605E-04   5.3782955E+05   -1.8332570E+00
   1.4457062E-04   5.3330644E+05   -1.8327445E+00
   1.4523826E-04   5.2882262E+05   -1.8322313E+00
   1.4590899E-04   5.2437773E+05   -1.8317172E+00
   1.4658281E-04   5.1997144E+05   -1.8312024E+00
   1.4725974E-04   5.1560339E+05   -1.8306868E+00
   1.4793981E-04   5.1127326E+05   -1.8301705E+00
   1.4862301E-04   5.0698070E+05   -1.8296534E+00
   1.4930936E-04   5.0272537E+05   -1.8291355E+00
   1.4999889E-04   4.9850695E+05   -1.8286169E+00
   1.5069160E-04   4.9432512E+05   -1.8280975E+00
   1.5138751E-04   4.9017953E+05   -1.8275773E+00
   1.5208663E-04   4.8606988E+05   -1.8270565E+00
   1.5278899E-04   4.8199584E+05   -1.8265349E+00
   1.5349458E-04   4.7795710E+05   -1.8260125E+00
   1.5420343E-04   4.7395334E+05   -1.8254894E+00
   1.5491556E-04   4.6998425E+05   -1.8249656E+00
   1.5563098E-04   4.6604953E+05   -1.8244411E+00
   1.5634970E-04   4.6214887E+05   -1.8239158E+00
   1.5707174E-04   4.5828196E+05   -1.8233898E+00
   1.5779711E-04   4.5444851E+05   -1.8228631E+00
   1.5852584E-04   4.5064822E+05   -1.8223358E+00
   1.5925792E-04   4.4688080E+05   -1.8218077E+00
   1.5999339E-04   4.4314595E+05   -1.8212789E+00
   1.6073226E-04   4.3944339E+05   -1.8207494E+00
   1.6147454E-04   4.3577283E+05   -1.8202192E+00
   1.6222024E-04   4.3213398E+05   -1.8196883E+00
   1.6296939E-04   4.2852657E+05   -1.8191568E+00
   1.6372200E-04   4.2495031E+05   -1.8186245E+00
   1.6447809E-04   4.2140494E+05   -1.8180916E+00
   1.6523767E-04   4.1789016E+05   -1.8175580E+00
   1.6600075E-04   4.1440573E+05   -1.8170238E+00
   1.6676736E-04   4.1095136E+05   -1.8164889E+00
   1.6753751E-04   4.0752679E+05   -1.8159534E+00
   1.6831122E-04   4.0413175E+05   -1.8154171E+00
   1.6908849E-04   4.0076599E+05   -1.8148803E+00
   1.6986936E-04   3.9742924E+05   -1.8143428E+00
   1.7065384E-04   3.9412125E+05   -1.8138047E+00
   1.7144193E-04   3.9084177E+05   -1.8132659E+00
   1.7223367E-04   3.8759054E+05   -1.8127265E+00
   1.7302906E-04   3.8436730E+05   -1.8121865E+00
   1.7382813E-04   3.8117183E+05   -1.8116458E+00
   1.7463089E-04   3.7800386E+05   -1.8111046E+00
   1.7543735E-04   3.7486315E+05   -1.8105627E+00
   1.7624754E-04   3.7174947E+05   -1.8100202E+00
   1.7706147E-04   3.6866257E+05   -1.8094772E+00
   1.7787916E-04   3.6560223E+05   -1.8089335E+00
   1.7870062E-04   3.6256819E+05   -1.8083892E+00
   1.7952588E-04   3.5956023E+05   -1.8078444E+00
   1.8035495E-04   3.5657813E+05   -1.8072990E+00
   1.8118785E-04   3.5362165E+05   -1.8067530E+00
   1.8202459E-04   3.5069056E+05   -1.8062064E+00
   1.8286520E-04   3.4778464E+05   -1.8056592E+00
   1.8370969E-04   3.4490368E+05   -1.8051115E+00
   1.8455808E-04   3.4204744E+05   -1.8045633E+00
   1.8541039E-04   3.3921571E+05   -1.8040145E+00
   1.8626663E-04   3.3640828E+05   -1.8034651E+00
   1.8712683E-04   3.3362493E+05   -1.8029152E+00
   1.8799100E-04   3.3086544E+05   -1.8023648E+00
   1.8885917E-04   3.2812962E+05   -1.8018138E+00
   1.8973134E-04   3.2541724E+05   -1.8012623E+00
   1.9060754E-04   3.2272810E+05   -1.8007103E+00
   1.9148778E-04   3.2006199E+05   -1.8001577E+00
   1.9237209E-04   3.1741873E+05   -1.7996047E+00
   1.9326049E-04   3.1479809E+05   -1.7990512E+00
   1.9415299E-04   3.1219988E+05   -1.7984971E+00
   1.9504960E-04   3.0962392E+05   -1.7979426E+00
   1.9595036E-04   3.0706999E+05   -1.7973875E+00
   1.9685528E-04   3.0453790E+05   -1.7968320E+00
   1.9776438E-04   3.0202747E+05   -1.7962760E+00
   1.9867768E-04   2.9953850E+05   -1.7957195E+00
   1.9959519E-04   2.9707081E+05   -1.7951626E+00
   2.0051694E-04   2.9462420E+05   -1.7946051E+00
   2.0144295E-04   2.9219849E+05   -1.7940473E+00
   2.0237324E-04   2.8979350E+05   -1.7934889E+00
   2.0330782E-04   2.8740904E+05   -1.7929302E+00
   2.0424671E-04   2.8504493E+05   -1.7923710E+00
   2.0518995E-04   2.8270100E+05   -1.7918113E+00
   2.0613754E-04   2.8037707E+05   -1.7912512E+00
   2.0708950E-04   2.7807296E+05   -1.7906907E+00
   2.0804586E-04   2.7578850E+05   -1.7901298E+00
   2.0900664E-04   2.7352351E+05   -1.7895684E+00
   2.0997185E-04   2.7127783E+05   -1.7890067E+00
   2.1094152E-04   2.6905128E+05   -1.7884445E+00
   2.1191567E-04   2.6684369E+05   -1.7878820E+00
   2.1289432E-04   2.6465491E+05   -1.7873190E+00
   2.1387749E-04   2.6248476E+05   -1.7867557E+00
   2.1486520E-04   2.6033308E+05   -1.7861919E+00
   2.1585747E-04   2.5819971E+05   -1.7856278E+00
   2.1685432E-04   2.5608449E+05   -1.7850634E+00
   2.1785578E-04   2.5398725E+05   -1.7844985E+00
   2.1886186E-04   2.5190785E+05   -1.7839333E+00
   2.1987259E-04   2.4984613E+05   -1.7833678E+00
   2.2088798E-04   2.4780192E+05   -1.7828019E+00
   2.2190807E-04   2.4577508E+05   -1.7822357E+00
   2.2293286E-04   2.4376545E+05   -1.7816691E+00
   2.2396239E-04   2.4177289E+05   -1.7811022E+00
   2.2499667E-04   2.3979724E+05   -1.7805349E+00
   2.2603573E-04   2.3783836E+05   -1.7799674E+00
   2.2707958E-04   2.3589610E+05   -1.7793995E+00
   2.2812826E-04   2.3397031E+05   -1.7788314E+00
   2.2918178E-04   2.3206085E+05   -1.7782629E+00
   2.3024017E-04   2.3016757E+05   -1.7776941E+00
   2.3130344E-04   2.2829034E+05   -1.7771250E+00
   2.3237162E-04   2.2642901E+05   -1.7765557E+00
   2.3344474E-04   2.2458345E+05   -1.7759861E+00
   2.3452281E-04   2.2275352E+05   -1.7754162E+00
   2.3560586E-04   2.2093908E+05   -1.7748460E+00
   2.3669392E-04   2.1913999E+05   -1.7742756E+00
   2.3778699E-04   2.1735613E+05   -1.7737049E+00
   2.3888512E-04   2.1558735E+05   -1.7731339E+00
   2.3998831E-04   2.1383353E+05   -1.7725628E+00
   2.4109661E-04   2.1209454E+05   -1.7719913E+00
   2.4221001E-04   2.1037024E+05   -1.7714197E+00
   2.4332857E-04   2.0866051E+05   -1.7708478E+00
   2.4445228E-04   2.0696522E+05   -1.7702757E+00
   2.4558119E-04   2.0528424E+05   -1.7697034E+00
   2.4671531E-04   2.0361746E+05   -1.7691309E+00
   2.4785467E-04   2.0196474E+05   -1.7685582E+00
   2.4899928E-04   2.0032596E+05   -1.7679853E+00
   2.5014919E-04   1.9870101E+05   -1.7674122E+00
   2.5130440E-04   1.9708976E+05   -1.7668389E+00
   2.5246495E-04   1.9549209E+05   -1.7662654E+00
   2.5363086E-04   1.9390788E+05   -1.7656917E+00
   2.5480216E-04   1.9233702E+05   -1.7651179E+00
   2.5597886E-04   1.9077939E+05   -1.7645440E+00
   2.5716100E-04   1.8923487E+05   -1.7639698E+00
   2.5834859E-04   1.8770336E+05   -1.7633956E+00
   2.5954168E-04   1.8618473E+05   -1.7628212E+00
   2.6074027E-04   1.8467888E+05   -1.7622466E+00
   2.6194439E-04   1.8318569E+05   -1.7616719E+00
   2.6315408E-04   1.8170506E+05   -1.7610971E+00
   2.6436935E-04   1.8023687E+05   -1.7605222E+00
   2.6559024E-04   1.7878102E+05   -1.7599472E+00
   2.6681676E-04   1.7733740E+05   -1.7593720E+00
   2.6804895E-04   1.7590590E+05   -1.7587968E+00
   2.6928683E-04   1.7448642E+05   -1.7582215E+00
   2.7053042E-04   1.7307885E+05   -1.7576460E+00
   2.7177976E-04   1.7168309E+05   -1.7570705E+00
   2.7303487E-04   1.7029904E+05   -1.7564950E+00
   2.7429577E-04   1.6892659E+05   -1.7559193E+00
   2.7556250E-04   1.6756565E+05   -1.7553436E+00
   2.7683507E-04   1.6621612E+05   -1.7547678E+00
   2.7811353E-04   1.6487789E+05   -1.7541920E+00
   2.7939788E-04   1.6355087E+05   -1.7536161E+00
   2.8068817E-04   1.6223496E+05   -1.7530402E+00
   2.8198442E-04   1.6093007E+05   -1.7524643E+00
   2.8328665E-04   1.5963609E+05   -1.7518883E+00
   2.8459490E-04   1.5835294E+05   -1.7513124E+00
   2.8590919E-04   1.5708052E+05   -1.7507364E+00
   2.8722955E-04   1.5581874E+05   -1.7501604E+00
   2.8855600E-04   1.5456750E+05   -1.7495843E+00
   2.8988859E-04   1.5332672E+05   -1.7490083E+00
   2.9122732E-04   1.5209630E+05   -1.7484323E+00
   2.9257224E-04   1.5087616E+05   -1.7478564E+00
   2.9392337E-04   1.4966620E+05   -1.7472804E+00
   2.9528074E-04   1.4846634E+05   -1.7467045E+00
   2.9664438E-04   1.4727649E+05   -1.7461286E+00
   2.9801431E-04   1.4609656E+05   -1.7455527E+00
   2.9939057E-04   1.4492647E+05   -1.7449769E+00
   3.0077319E-04   1.4376613E+05   -1.7444012E+00
   3.0216219E-04   1.4261546E+05   -1.7438255E+00
   3.0355761E-04   1.4147438E+05   -1.7432499E+00
   3.0495947E-04   1.4034280E+05   -1.7426743E+00
   3.0636780E-04   1.3922064E+05   -1.7420988E+00
   3.0778264E-04   1.3810781E+05   -1.7415234E+00
   3.0920401E-04   1.3700425E+05   -1.7409481E+00
   3.1063195E-04   1.3590986E+05   -1.7403729E+00
   3.1206648E-04   1.3482458E+05   -1.7397978E+00
   3.1350764E-04   1.3374831E+05   -1.7392228E+00
   3.1495545E-04   1.3268099E+05   -1.7386479E+00
   3.1640994E-04   1.3162253E+05   -1.7380731E+00
   3.1787116E-04   1.3057286E+05   -1.7374985E+00
   3.1933912E-04   1.2953191E+05   -1.7369240E+00
   3.2081386E-04   1.2849959E+05   -1.7363496E+00
   3.2229541E-04   1.2747584E+05   -1.7357754E+00
   3.2378381E-04   1.2646058E+05   -1.7352013E+00
   3.2527908E-04   1.2545374E+05   -1.7346273E+00
   3.2678125E-04   1.2445524E+05   -1.7340536E+00
   3.2829036E-04   1.2346502E+05   -1.7334800E+00
   3.2980644E-04   1.2248300E+05   -1.7329066E+00
   3.3132952E-04   1.2150911E+05   -1.7323333E+00
   3.3285963E-04   1.2054328E+05   -1.7317603E+00
   3.3439681E-04   1.1958545E+05   -1.7311874E+00
   3.3594109E-04   1.1863554E+05   -1.7306147E+00
   3.3749250E-04   1.1769348E+05   -1.7300423E+00
   3.3905108E-04   1.1675921E+05   -1.7294700E+00
   3.4061685E-04   1.1583267E+05   -1.7288980E+00
   3.4218986E-04   1.1491378E+05   -1.7283262E+00
   3.4377013E-04   1.1400248E+05   -1.7277546E+00
   3.4535769E-04   1.1309871E+05   -1.7271832E+00
   3.4695259E-04   1.1220239E+05   -1.7266121E+00
   3.4855485E-04   1.1131347E+05   -1.7260413E+00
   3.5016452E-04   1.1043189E+05   -1.7254706E+00
   3.5178161E-04   1.0955757E+05   -1.7249003E+00
   3.5340618E-04   1.0869046E+05   -1.7243302E+00
   3.5503824E-04   1.0783050E+05   -1.7237604E+00
   3.5667785E-04   1.0697762E+05   -1.7231908E+00
   3.5832502E-04   1.0613177E+05   -1.7226215E+00
   3.5997981E-04   1.0529288E+05   -1.7220525E+00
   3.6164223E-04   1.0446090E+05   -1.7214839E+00
   3.6331233E-04   1.0363576E+05   -1.7209155E+00
   3.6499015E-04   1.0281741E+05   -1.7203474E+00
   3.6667571E-04   1.0200579E+05   -1.7197796E+00
   3.6836906E-04   1.0120083E+05   -1.7192121E+00
   3.7007022E-04   1.0040250E+05   -1.7186450E+00
   3.7177925E-04   9.9610719E+04   -1.7180782E+00
   3.7349616E-04   9.8825442E+04   -1.7175117E+00
   3.7522101E-04   9.8046612E+04   -1.7169455E+00
   3.7695382E-04   9.7274173E+04   -1.7163797E+00
   3.7869463E-04   9.6508072E+04   -1.7158143E+00
   3.8044348E-04   9.5748253E+04   -1.7152492E+00
   3.8220041E-04   9.4994664E+04   -1.7146844E+00
   3.8396545E-04   9.4247251E+04   -1.7141201E+00
   3.8573864E-04   9.3505961E+04   -1.7135561E+00
   3.8752002E-04   9.2770744E+04   -1.7129925E+00
   3.8930963E-04   9.2041545E+04   -1.7124292E+00
   3.9110750E-04   9.1318316E+04   -1.7118664E+00
   3.9291368E-04   9.0601004E+04   -1.7113039E+00
   3.9472820E-04   8.9889560E+04   -1.7107419E+00
   3.9655109E-04   8.9183933E+04   -1.7101802E+00
   3.9838241E-04   8.8484074E+04   -1.7096190E+00
   4.0022218E-04   8.7789934E+04   -1.7090582E+00
   4.0207045E-04   8.7101464E+04   -1.7084978E+00
   4.0392725E-04   8.6418617E+04   -1.7079378E+00
   4.0579263E-04   8.5741344E+04   -1.7073783E+00
   4.0766662E-04   8.5069598E+04   -1.7068192E+00
   4.0954927E-04   8.4403333E+04   -1.7062605E+00
   4.1144061E-04   8.3742501E+04   -1.7057023E+00
   4.1334068E-04   8.3087057E+04   -1.7051446E+00
   4.1524953E-04   8.2436954E+04   -1.7045873E+00
   4.1716720E-04   8.1792148E+04   -1.7040305E+00
   4.1909372E-04   8.1152594E+04   -1.7034741E+00
   4.2102914E-04   8.0518246E+04   -1.7029182E+00
   4.2297350E-04   7.9889062E+04   -1.7023628E+00
   4.2492683E-04   7.9264997E+04   -1.7018079E+00
   4.2688919E-04   7.8646008E+04   -1.7012535E+00
   4.2886061E-04   7.8032053E+04   -1.7006996E+00
   4.3084113E-04   7.7423087E+04   -1.7001462E+00
   4.3283080E-04   7.6819070E+04   -1.6995933E+00
   4.3482966E-04   7.6219959E+04   -1.6990409E+00
   4.3683775E-04   7.5625713E+04   -1.6984890E+00
   4.3885511E-04   7.5036290E+04   -1.6979376E+00
   4.4088179E-04   7.4451651E+04   -1.6973868E+00
   4.4291783E-04   7.3871754E+04   -1.6968365E+00
   4.4496327E-04   7.3296560E+04   -1.6962868E+00
   4.4701816E-04   7.2726028E+04   -1.6957375E+00
   4.4908253E-04   7.2160120E+04   -1.6951889E+00
   4.5115644E-04   7.1598796E+04   -1.6946408E+00
   4.5323993E-04   7.1042018E+04   -1.6940932E+00
   4.5533304E-04   7.0489748E+04   -1.6935462E+00
   4.5743582E-04   6.9941947E+04   -1.6929998E+00
   4.5954830E-04   6.9398578E+04   -1.6924539E+00
   4.6167054E-04   6.8859603E+04   -1.6919087E+00
   4.6380259E-04   6.8324986E+04   -1.6913640E+00
   4.6594448E-04   6.7794690E+04   -1.6908199E+00
   4.6809626E-04   6.7268677E+04   -1.6902764E+00
   4.7025797E-04   6.6746914E+04   -1.6897334E+00
   4.7242967E-04   6.6229362E+04   -1.6891911E+00
   4.7461140E-04   6.5715988E+04   -1.6886494E+00
   4.7680321E-04   6.5206756E+04   -1.6881083E+00
   4.7900514E-04   6.4701631E+04   -1.6875678E+00
   4.8121723E-04   6.4200579E+04   -1.6870280E+00
   4.8343954E-04   6.3703566E+04   -1.6864888E+00
   4.8567212E-04   6.3210557E+04   -1.6859502E+00
   4.8791500E-04   6.2721519E+04   -1.6854122E+00
   4.9016825E-04   6.2236419E+04   -1.6848749E+00
   4.9243189E-04   6.1755224E+04   -1.6843382E+00
   4.9470600E-04   6.1277900E+04   -1.6838021E+00
   4.9699060E-04   6.0804416E+04   -1.6832667E+00
   4.9928575E-04   6.0334739E+04   -1.6827320E+00
   5.0159151E-04   5.9868837E+04   -1.6821979E+00
   5.0390791E-04   5.9406680E+04   -1.6816645E+00
   5.0623501E-04   5.8948234E+04   -1.6811318E+00
   5.0857286E-04   5.8493470E+04   -1.6805998E+00
   5.1092150E-04   5.8042357E+04   -1.6800684E+00
   5.1328099E-04   5.7594863E+04   -1.6795377E+00
   5.1565137E-04   5.7150960E+04   -1.6790077E+00
   5.1803270E-04   5.6710616E+04   -1.6784784E+00
   5.2042503E-04   5.6273802E+04   -1.6779497E+00
   5.2282841E-04   5.5840488E+04   -1.6774218E+00
   5.2524289E-04   5.5410646E+04   -1.6768946E+00
   5.2766851E-04   5.4984246E+04   -1.6763681E+00
   5.3010534E-04   5.4561259E+04   -1.6758423E+00
   5.3255342E-04   5.4141657E+04   -1.6753172E+00
   5.3501281E-04   5.3725413E+04   -1.6747929E+00
   5.3748356E-04   5.3312497E+04   -1.6742693E+00
   5.3996571E-04   5.2902882E+04   -1.6737464E+00
   5.4245933E-04   5.2496541E+04   -1.6732242E+00
   5.4496446E-04   5.2093446E+04   -1.6727028E+00
   5.4748117E-04   5.1693570E+04   -1.6721821E+00
   5.5000949E-04   5.1296887E+04   -1.6716621E+00
   5.5254949E-04   5.0903370E+04   -1.6711429E+00
   5.5510123E-04   5.0512993E+04   -1.6706245E+00
   5.5766474E-04   5.0125728E+04   -1.6701068E+00
   5.6024010E-04   4.9741552E+04   -1.6695899E+00
   5.6282734E-04   4.9360437E+04   -1.6690737E+00
   5.6542654E-04   4.8982359E+04   -1.6685583E+00
   5.6803774E-04   4.8607291E+04   -1.6680437E+00
   5.7066099E-04   4.8235211E+04   -1.6675299E+00
   5.7329637E-04   4.7866091E+04   -1.6670168E+00
   5.7594391E-04   4.7499909E+04   -1.6665045E+00
   5.7860368E-04   4.7136639E+04   -1.6659930E+00
   5.8127573E-04   4.6776257E+04   -1.6654823E+00
   5.8396012E-04   4.6418740E+04   -1.6649724E+00
   5.8665691E-04   4.6064064E+04   -1.6644633E+00
   5.8936616E-04   4.5712204E+04   -1.6639550E+00
   5.9208791E-04   4.5363139E+04   -1.6634475E+00
   5.9482223E-04   4.5016844E+04   -1.6629408E+00
   5.9756919E-04   4.4673297E+04   -1.6624349E+00
   6.0032882E-04   4.4332475E+04   -1.6619298E+00
   6.0310120E-04   4.3994356E+04   -1.6614256E+00
   6.0588639E-04   4.3658916E+04   -1.6609221E+00
   6.0868443E-04   4.3326135E+04   -1.6604195E+00
   6.1149540E-04   4.2995990E+04   -1.6599177E+00
   6.1431935E-04   4.2668459E+04   -1.6594168E+00
   6.1715634E-04   4.2343521E+04   -1.6589167E+00
   6.2000644E-04   4.2021154E+04   -1.6584174E+00
   6.2286969E-04   4.1701337E+04   -1.6579189E+00
