#        a       HoverH0(a)       dlogHdloga_of_a(a)
   1.0000000E-04   1.1789423E+06   -1.8619297E+00
   1.0046181E-04   1.1688729E+06   -1.8614688E+00
   1.0092575E-04   1.1588919E+06   -1.8610068E+00
   1.0139184E-04   1.1489987E+06   -1.8605440E+00
   1.0186008E-04   1.1391923E+06   -1.8600801E+00
   1.0233048E-04   1.1294720E+06   -1.8596154E+00
   1.0280305E-04   1.1198371E+06   -1.8591497E+00
   1.0327781E-04   1.1102868E+06   -1.8586831E+00
   1.0375475E-04   1.1008202E+06   -1.8582155E+00
   1.0423390E-04   1.0914368E+06   -1.8577470E+00
   1.0471527E-04   1.0821356E+06   -1.8572776E+00
   1.0519885E-04   1.0729161E+06   -1.8568072E+00
   1.0568467E-04   1.0637774E+06   -1.8563359E+00
   1.0617274E-04   1.0547188E+06   -1.8558637E+00
   1.0666305E-04   1.0457397E+06   -1.8553906E+00
   1.0715563E-04   1.0368392E+06   -1.8549165E+00
   1.0765049E-04   1.0280168E+06   -1.8544415E+00
   1.0814763E-04   1.0192717E+06   -1.8539656E+00
   1.0864707E-04   1.0106031E+06   -1.8534888E+00
   1.0914881E-04   1.0020105E+06   -1.8530111E+00
   1.0965287E-04   9.9349319E+05   -1.8525325E+00
   1.1015926E-04   9.8505041E+05   -1.8520530E+00
   1.1066799E-04   9.7668153E+05   -1.8515725E+00
   1.1117906E-04   9.6838591E+05   -1.8510912E+00
   1.1169250E-04   9.6016287E+05   -1.8506090E+00
   1.1220831E-04   9.5201178E+05   -1.8501259E+00
   1.1272650E-04   9.4393198E+05   -1.8496419E+00
   1.1324708E-04   9.3592285E+05   -1.8491569E+00
   1.1377007E-04   9.2798376E+05   -1.8486712E+00
   1.1429547E-04   9.2011407E+05   -1.8481845E+00
   1.1482330E-04   9.1231316E+05   -1.8476969E+00
   1.1535356E-04   9.0458043E+05   -1.8472085E+00
   1.1588628E-04   8.9691526E+05   -1.8467192E+00
   1.1642145E-04   8.8931704E+05   -1.8462290E+00
   1.1695910E-04   8.8178519E+05   -1.8457379E+00
   1.1749923E-04   8.7431911E+05   -1.8452460E+00
   1.1804185E-04   8.6691821E+05   -1.8447532E+00
   1.1858698E-04   8.5958191E+05   -1.8442596E+00
   1.1913463E-04   8.5230963E+05   -1.8437651E+00
   1.1968481E-04   8.4510081E+05   -1.8432697E+00
   1.2023752E-04   8.3795487E+05   -1.8427735E+00
   1.2079279E-04   8.3087126E+05   -1.8422764E+00
   1.2135063E-04   8.2384942E+05   -1.8417785E+00
   1.2191104E-04   8.1688879E+05   -1.8412798E+00
   1.2247403E-04   8.0998884E+05   -1.8407802E+00
   1.2303963E-04   8.0314902E+05   -1.8402797E+00
   1.2360784E-04   7.9636880E+05   -1.8397785E+00
   1.2417868E-04   7.8964764E+05   -1.8392764E+00
   1.2475215E-04   7.8298502E+05   -1.8387735E+00
   1.2532826E-04   7.7638041E+05   -1.8382697E+00
   1.2590704E-04   7.6983330E+05   -1.8377652E+00
   1.2648850E-04   7.6334318E+05   -1.8372598E+00
   1.2707263E-04   7.5690954E+05   -1.8367536E+00
   1.2765947E-04   7.5053187E+05   -1.8362466E+00
   1.2824901E-04   7.4420969E+05   -1.8357388E+00
   1.2884128E-04   7.3794248E+05   -1.8352302E+00
   1.2943628E-04   7.3172977E+05   -1.8347207E+00
   1.3003403E-04   7.2557107E+05   -1.8342105E+00
   1.3063454E-04   7.1946590E+05   -1.8336995E+00
   1.3123783E-04   7.1341378E+05   -1.8331877E+00
   1.3184390E-04   7.0741424E+05   -1.8326752E+00
   1.3245277E-04   7.0146681E+05   -1.8321618E+00
   1.3306445E-04   6.9557103E+05   -1.8316477E+00
   1.3367895E-04   6.8972643E+05   -1.8311327E+00
   1.3429630E-04   6.8393257E+05   -1.8306171E+00
   1.3491649E-04   6.7818900E+05   -1.8301006E+00
   1.3553955E-04   6.7249525E+05   -1.8295834E+00
   1.3616548E-04   6.6685091E+05   -1.8290654E+00
   1.3679431E-04   6.6125551E+05   -1.8285467E+00
   1.3742604E-04   6.5570863E+05   -1.8280272E+00
   1.3806069E-04   6.5020984E+05   -1.8275070E+00
   1.3869827E-04   6.4475871E+05   -1.8269860E+00
   1.3933879E-04   6.3935482E+05   -1.8264643E+00
   1.3998227E-04   6.3399774E+05   -1.8259419E+00
   1.4062872E-04   6.2868706E+05   -1.8254187E+00
   1.4127816E-04   6.2342237E+05   -1.8248948E+00
   1.4193060E-04   6.1820326E+05   -1.8243702E+00
   1.4258605E-04   6.1302932E+05   -1.8238448E+00
   1.4324453E-04   6.0790016E+05   -1.8233187E+00
   1.4390605E-04   6.0281538E+05   -1.8227920E+00
   1.4457062E-04   5.9777458E+05   -1.8222645E+00
   1.4523826E-04   5.9277738E+05   -1.8217363E+00
   1.4590899E-04   5.8782338E+05   -1.8212074E+00
   1.4658281E-04   5.8291221E+05   -1.8206778E+00
   1.4725974E-04   5.7804347E+05   -1.8201475E+00
   1.4793981E-04   5.7321681E+05   -1.8196166E+00
   1.4862301E-04   5.6843184E+05   -1.8190850E+00
   1.4930936E-04   5.6368819E+05   -1.8185526E+00
   1.4999889E-04   5.5898551E+05   -1.8180196E+00
   1.5069160E-04   5.5432341E+05   -1.8174860E+00
   1.5138751E-04   5.4970156E+05   -1.8169517E+00
   1.5208663E-04   5.4511958E+05   -1.8164167E+00
   1.5278899E-04   5.4057712E+05   -1.8158810E+00
   1.5349458E-04   5.3607385E+05   -1.8153447E+00
   1.5420343E-04   5.3160940E+05   -1.8148078E+00
   1.5491556E-04   5.2718344E+05   -1.8142702E+00
   1.5563098E-04   5.2279562E+05   -1.8137320E+00
   1.5634970E-04   5.1844561E+05   -1.8131932E+00
   1.5707174E-04   5.1413308E+05   -1.8126537E+00
   1.5779711E-04   5.0985768E+05   -1.8121136E+00
   1.5852584E-04   5.0561909E+05   -1.8115729E+00
   1.5925792E-04   5.0141699E+05   -1.8110315E+00
   1.5999339E-04   4.9725106E+05   -1.8104896E+00
   1.6073226E-04   4.9312096E+05   -1.8099471E+00
   1.6147454E-04   4.8902640E+05   -1.8094039E+00
   1.6222024E-04   4.8496705E+05   -1.8088602E+00
   1.6296939E-04   4.8094260E+05   -1.8083158E+00
   1.6372200E-04   4.7695274E+05   -1.8077709E+00
   1.6447809E-04   4.7299717E+05   -1.8072254E+00
   1.6523767E-04   4.6907559E+05   -1.8066793E+00
   1.6600075E-04   4.6518769E+05   -1.8061327E+00
   1.6676736E-04   4.6133318E+05   -1.8055855E+00
   1.6753751E-04   4.5751176E+05   -1.8050377E+00
   1.6831122E-04   4.5372314E+05   -1.8044894E+00
   1.6908849E-04   4.4996703E+05   -1.8039405E+00
   1.6986936E-04   4.4624314E+05   -1.8033911E+00
   1.7065384E-04   4.4255120E+05   -1.8028411E+00
   1.7144193E-04   4.3889091E+05   -1.8022906E+00
   1.7223367E-04   4.3526199E+05   -1.8017396E+00
   1.7302906E-04   4.3166419E+05   -1.8011880E+00
   1.7382813E-04   4.2809721E+05   -1.8006359E+00
   1.7463089E-04   4.2456078E+05   -1.8000833E+00
   1.7543735E-04   4.2105464E+05   -1.7995302E+00
   1.7624754E-04   4.1757852E+05   -1.7989766E+00
   1.7706147E-04   4.1413216E+05   -1.7984225E+00
   1.7787916E-04   4.1071528E+05   -1.7978679E+00
   1.7870062E-04   4.0732764E+05   -1.7973128E+00
   1.7952588E-04   4.0396898E+05   -1.7967572E+00
   1.8035495E-04   4.0063904E+05   -1.7962011E+00
   1.8118785E-04   3.9733756E+05   -1.7956446E+00
   1.8202459E-04   3.9406430E+05   -1.7950876E+00
   1.8286520E-04   3.9081901E+05   -1.7945301E+00
   1.8370969E-04   3.8760144E+05   -1.7939722E+00
   1.8455808E-04   3.8441135E+05   -1.7934138E+00
   1.8541039E-04   3.8124849E+05   -1.7928550E+00
   1.8626663E-04   3.7811264E+05   -1.7922957E+00
   1.8712683E-04   3.7500354E+05   -1.7917360E+00
   1.8799100E-04   3.7192097E+05   -1.7911759E+00
   1.8885917E-04   3.6886469E+05   -1.7906154E+00
   1.8973134E-04   3.6583447E+05   -1.7900544E+00
   1.9060754E-04   3.6283008E+05   -1.7894930E+00
   1.9148778E-04   3.5985129E+05   -1.7889312E+00
   1.9237209E-04   3.5689789E+05   -1.7883690E+00
   1.9326049E-04   3.5396964E+05   -1.7878064E+00
   1.9415299E-04   3.5106632E+05   -1.7872434E+00
   1.9504960E-04   3.4818773E+05   -1.7866800E+00
   1.9595036E-04   3.4533363E+05   -1.7861162E+00
   1.9685528E-04   3.4250382E+05   -1.7855521E+00
   1.9776438E-04   3.3969809E+05   -1.7849876E+00
   1.9867768E-04   3.3691621E+05   -1.7844227E+00
   1.9959519E-04   3.3415798E+05   -1.7838575E+00
   2.0051694E-04   3.3142320E+05   -1.7832919E+00
   2.0144295E-04   3.2871165E+05   -1.7827259E+00
   2.0237324E-04   3.2602315E+05   -1.7821597E+00
   2.0330782E-04   3.2335747E+05   -1.7815930E+00
   2.0424671E-04   3.2071443E+05   -1.7810261E+00
   2.0518995E-04   3.1809382E+05   -1.7804588E+00
   2.0613754E-04   3.1549545E+05   -1.7798912E+00
   2.0708950E-04   3.1291912E+05   -1.7793234E+00
   2.0804586E-04   3.1036465E+05   -1.7787551E+00
   2.0900664E-04   3.0783183E+05   -1.7781866E+00
   2.0997185E-04   3.0532048E+05   -1.7776178E+00
   2.1094152E-04   3.0283042E+05   -1.7770487E+00
   2.1191567E-04   3.0036145E+05   -1.7764794E+00
   2.1289432E-04   2.9791339E+05   -1.7759097E+00
   2.1387749E-04   2.9548606E+05   -1.7753398E+00
   2.1486520E-04   2.9307928E+05   -1.7747696E+00
   2.1585747E-04   2.9069286E+05   -1.7741991E+00
   2.1685432E-04   2.8832664E+05   -1.7736284E+00
   2.1785578E-04   2.8598042E+05   -1.7730575E+00
   2.1886186E-04   2.8365405E+05   -1.7724863E+00
   2.1987259E-04   2.8134734E+05   -1.7719148E+00
   2.2088798E-04   2.7906012E+05   -1.7713431E+00
   2.2190807E-04   2.7679223E+05   -1.7707712E+00
   2.2293286E-04   2.7454349E+05   -1.7701991E+00
   2.2396239E-04   2.7231374E+05   -1.7696268E+00
   2.2499667E-04   2.7010281E+05   -1.7690543E+00
   2.2603573E-04   2.6791054E+05   -1.7684815E+00
   2.2707958E-04   2.6573677E+05   -1.7679086E+00
   2.2812826E-04   2.6358132E+05   -1.7673355E+00
   2.2918178E-04   2.6144405E+05   -1.7667622E+00
   2.3024017E-04   2.5932480E+05   -1.7661887E+00
   2.3130344E-04   2.5722340E+05   -1.7656150E+00
   2.3237162E-04   2.5513971E+05   -1.7650412E+00
   2.3344474E-04   2.5307356E+05   -1.7644672E+00
   2.3452281E-04   2.5102481E+05   -1.7638931E+00
   2.3560586E-04   2.4899331E+05   -1.7633188E+00
   2.3669392E-04   2.4697890E+05   -1.7627444E+00
   2.3778699E-04   2.4498144E+05   -1.7621698E+00
   2.3888512E-04   2.4300077E+05   -1.7615952E+00
   2.3998831E-04   2.4103675E+05   -1.7610203E+00
   2.4109661E-04   2.3908925E+05   -1.7604454E+00
   2.4221001E-04   2.3715810E+05   -1.7598704E+00
   2.4332857E-04   2.3524318E+05   -1.7592952E+00
   2.4445228E-04   2.3334434E+05   -1.7587200E+00
   2.4558119E-04   2.3146143E+05   -1.7581447E+00
   2.4671531E-04   2.2959433E+05   -1.7575692E+00
   2.4785467E-04   2.2774290E+05   -1.7569937E+00
   2.4899928E-04   2.2590699E+05   -1.7564182E+00
   2.5014919E-04   2.2408648E+05   -1.7558425E+00
   2.5130440E-04   2.2228123E+05   -1.7552668E+00
   2.5246495E-04   2.2049111E+05   -1.7546910E+00
   2.5363086E-04   2.1871598E+05   -1.7541152E+00
   2.5480216E-04   2.1695572E+05   -1.7535394E+00
   2.5597886E-04   2.1521020E+05   -1.7529635E+00
   2.5716100E-04   2.1347929E+05   -1.7523876E+00
   2.5834859E-04   2.1176286E+05   -1.7518116E+00
   2.5954168E-04   2.1006079E+05   -1.7512356E+00
   2.6074027E-04   2.0837295E+05   -1.7506596E+00
   2.6194439E-04   2.0669923E+05   -1.7500836E+00
   2.6315408E-04   2.0503949E+05   -1.7495076E+00
   2.6436935E-04   2.0339362E+05   -1.7489317E+00
   2.6559024E-04   2.0176149E+05   -1.7483557E+00
   2.6681676E-04   2.0014300E+05   -1.7477797E+00
   2.6804895E-04   1.9853801E+05   -1.7472038E+00
   2.6928683E-04   1.9694642E+05   -1.7466279E+00
   2.7053042E-04   1.9536811E+05   -1.7460520E+00
   2.7177976E-04   1.9380295E+05   -1.7454762E+00
   2.7303487E-04   1.9225085E+05   -1.7449004E+00
   2.7429577E-04   1.9071168E+05   -1.7443246E+00
   2.7556250E-04   1.8918534E+05   -1.7437490E+00
   2.7683507E-04   1.8767171E+05   -1.7431734E+00
   2.7811353E-04   1.8617068E+05   -1.7425978E+00
   2.7939788E-04   1.8468215E+05   -1.7420224E+00
   2.8068817E-04   1.8320601E+05   -1.7414470E+00
   2.8198442E-04   1.8174215E+05   -1.7408717E+00
   2.8328665E-04   1.8029046E+05   -1.7402965E+00
   2.8459490E-04   1.7885084E+05   -1.7397214E+00
   2.8590919E-04   1.7742319E+05   -1.7391465E+00
   2.8722955E-04   1.7600740E+05   -1.7385716E+00
   2.8855600E-04   1.7460337E+05   -1.7379969E+00
   2.8988859E-04   1.7321100E+05   -1.7374223E+00
   2.9122732E-04   1.7183018E+05   -1.7368478E+00
   2.9257224E-04   1.7046083E+05   -1.7362734E+00
   2.9392337E-04   1.6910283E+05   -1.7356992E+00
   2.9528074E-04   1.6775610E+05   -1.7351252E+00
   2.9664438E-04   1.6642053E+05   -1.7345513E+00
   2.9801431E-04   1.6509604E+05   -1.7339776E+00
   2.9939057E-04   1.6378251E+05   -1.7334040E+00
   3.0077319E-04   1.6247987E+05   -1.7328306E+00
   3.0216219E-04   1.6118801E+05   -1.7322574E+00
   3.0355761E-04   1.5990685E+05   -1.7316844E+00
   3.0495947E-04   1.5863629E+05   -1.7311116E+00
   3.0636780E-04   1.5737624E+05   -1.7305390E+00
   3.0778264E-04   1.5612661E+05   -1.7299666E+00
   3.0920401E-04   1.5488731E+05   -1.7293943E+00
   3.1063195E-04   1.5365825E+05   -1.7288224E+00
   3.1206648E-04   1.5243935E+05   -1.7282506E+00
   3.1350764E-04   1.5123051E+05   -1.7276790E+00
   3.1495545E-04   1.5003166E+05   -1.7271077E+00
   3.1640994E-04   1.4884270E+05   -1.7265367E+00
   3.1787116E-04   1.4766355E+05   -1.7259659E+00
   3.1933912E-04   1.4649413E+05   -1.7253953E+00
   3.2081386E-04   1.4533435E+05   -1.7248250E+00
   3.2229541E-04   1.4418413E+05   -1.7242549E+00
   3.2378381E-04   1.4304339E+05   -1.7236852E+00
   3.2527908E-04   1.4191205E+05   -1.7231157E+00
   3.2678125E-04   1.4079003E+05   -1.7225464E+00
   3.2829036E-04   1.3967724E+05   -1.7219775E+00
   3.2980644E-04   1.3857361E+05   -1.7214089E+00
   3.3132952E-04   1.3747906E+05   -1.7208405E+00
   3.3285963E-04   1.3639352E+05   -1.7202725E+00
   3.3439681E-04   1.3531690E+05   -1.7197048E+00
   3.3594109E-04   1.3424913E+05   -1.7191374E+00
   3.3749250E-04   1.3319013E+05   -1.7185703E+00
   3.3905108E-04   1.3213983E+05   -1.7180035E+00
   3.4061685E-04   1.3109816E+05   -1.7174371E+00
   3.4218986E-04   1.3006504E+05   -1.7168710E+00
   3.4377013E-04   1.2904039E+05   -1.7163053E+00
   3.4535769E-04   1.2802415E+05   -1.7157399E+00
   3.4695259E-04   1.2701625E+05   -1.7151749E+00
   3.4855485E-04   1.2601661E+05   -1.7146102E+00
   3.5016452E-04   1.2502516E+05   -1.7140459E+00
   3.5178161E-04   1.2404183E+05   -1.7134820E+00
   3.5340618E-04   1.2306656E+05   -1.7129184E+00
   3.5503824E-04   1.2209927E+05   -1.7123553E+00
   3.5667785E-04   1.2113990E+05   -1.7117925E+00
   3.5832502E-04   1.2018838E+05   -1.7112301E+00
   3.5997981E-04   1.1924464E+05   -1.7106681E+00
   3.6164223E-04   1.1830862E+05   -1.7101066E+00
   3.6331233E-04   1.1738024E+05   -1.7095454E+00
   3.6499015E-04   1.1645946E+05   -1.7089847E+00
   3.6667571E-04   1.1554620E+05   -1.7084243E+00
   3.6836906E-04   1.1464039E+05   -1.7078644E+00
   3.7007022E-04   1.1374198E+05   -1.7073050E+00
   3.7177925E-04   1.1285090E+05   -1.7067460E+00
   3.7349616E-04   1.1196709E+05   -1.7061874E+00
   3.7522101E-04   1.1109048E+05   -1.7056293E+00
   3.7695382E-04   1.1022102E+05   -1.7050716E+00
   3.7869463E-04   1.0935865E+05   -1.7045144E+00
   3.8044348E-04   1.0850331E+05   -1.7039577E+00
   3.8220041E-04   1.0765493E+05   -1.7034014E+00
   3.8396545E-04   1.0681345E+05   -1.7028456E+00
   3.8573864E-04   1.0597883E+05   -1.7022903E+00
   3.8752002E-04   1.0515100E+05   -1.7017355E+00
   3.8930963E-04   1.0432990E+05   -1.7011811E+00
   3.9110750E-04   1.0351547E+05   -1.7006273E+00
   3.9291368E-04   1.0270767E+05   -1.7000740E+00
   3.9472820E-04   1.0190643E+05   -1.6995212E+00
   3.9655109E-04   1.0111169E+05   -1.6989689E+00
   3.9838241E-04   1.0032341E+05   -1.6984171E+00
   4.0022218E-04   9.9541529E+04   -1.6978658E+00
   4.0207045E-04   9.8765992E+04   -1.6973151E+00
   4.0392725E-04   9.7996745E+04   -1.6967649E+00
   4.0579263E-04   9.7233737E+04   -1.6962152E+00
   4.0766662E-04   9.6476913E+04   -1.6956661E+00
   4.0954927E-04   9.5726222E+04   -1.6951175E+00
   4.1144061E-04   9.4981612E+04   -1.6945695E+00
   4.1334068E-04   9.4243032E+04   -1.6940220E+00
   4.1524953E-04   9.3510431E+04   -1.6934751E+00
   4.1716720E-04   9.2783758E+04   -1.6929288E+00
   4.1909372E-04   9.2062964E+04   -1.6923831E+00
   4.2102914E-04   9.1348000E+04   -1.6918379E+00
   4.2297350E-04   9.0638815E+04   -1.6912933E+00
   4.2492683E-04   8.9935361E+04   -1.6907493E+00
   4.2688919E-04   8.9237591E+04   -1.6902059E+00
   4.2886061E-04   8.8545456E+04   -1.6896631E+00
   4.3084113E-04   8.7858908E+04   -1.6891209E+00
   4.3283080E-04   8.7177902E+04   -1.6885793E+00
   4.3482966E-04   8.6502390E+04   -1.6880383E+00
   4.3683775E-04   8.5832326E+04   -1.6874979E+00
   4.3885511E-04   8.5167665E+04   -1.6869581E+00
   4.4088179E-04   8.4508360E+04   -1.6864190E+00
   4.4291783E-04   8.3854368E+04   -1.6858805E+00
   4.4496327E-04   8.3205643E+04   -1.6853427E+00
   4.4701816E-04   8.2562141E+04   -1.6848054E+00
   4.4908253E-04   8.1923818E+04   -1.6842689E+00
   4.5115644E-04   8.1290631E+04   -1.6837329E+00
   4.5323993E-04   8.0662538E+04   -1.6831977E+00
   4.5533304E-04   8.0039495E+04   -1.6826630E+00
   4.5743582E-04   7.9421460E+04   -1.6821291E+00
   4.5954830E-04   7.8808390E+04   -1.6815958E+00
   4.6167054E-04   7.8200245E+04   -1.6810632E+00
   4.6380259E-04   7.7596984E+04   -1.6805312E+00
   4.6594448E-04   7.6998565E+04   -1.6800000E+00
   4.6809626E-04   7.6404947E+04   -1.6794694E+00
   4.7025797E-04   7.5816091E+04   -1.6789395E+00
   4.7242967E-04   7.5231957E+04   -1.6784103E+00
   4.7461140E-04   7.4652506E+04   -1.6778818E+00
   4.7680321E-04   7.4077697E+04   -1.6773540E+00
   4.7900514E-04   7.3507494E+04   -1.6768269E+00
   4.8121723E-04   7.2941856E+04   -1.6763005E+00
   4.8343954E-04   7.2380747E+04   -1.6757749E+00
   4.8567212E-04   7.1824127E+04   -1.6752499E+00
   4.8791500E-04   7.1271961E+04   -1.6747257E+00
   4.9016825E-04   7.0724210E+04   -1.6742022E+00
   4.9243189E-04   7.0180838E+04   -1.6736794E+00
   4.9470600E-04   6.9641808E+04   -1.6731574E+00
   4.9699060E-04   6.9107084E+04   -1.6726361E+00
   4.9928575E-04   6.8576631E+04   -1.6721155E+00
   5.0159151E-04   6.8050413E+04   -1.6715957E+00
   5.0390791E-04   6.7528393E+04   -1.6710766E+00
   5.0623501E-04   6.7010539E+04   -1.6705583E+00
   5.0857286E-04   6.6496814E+04   -1.6700407E+00
   5.1092150E-04   6.5987185E+04   -1.6695240E+00
   5.1328099E-04   6.5481618E+04   -1.6690079E+00
   5.1565137E-04   6.4980079E+04   -1.6684927E+00
   5.1803270E-04   6.4482534E+04   -1.6679782E+00
   5.2042503E-04   6.3988950E+04   -1.6674645E+00
   5.2282841E-04   6.3499295E+04   -1.6669515E+00
   5.2524289E-04   6.3013535E+04   -1.6664394E+00
   5.2766851E-04   6.2531638E+04   -1.6659280E+00
   5.3010534E-04   6.2053573E+04   -1.6654175E+00
   5.3255342E-04   6.1579308E+04   -1.6649077E+00
   5.3501281E-04   6.1108811E+04   -1.6643987E+00
   5.3748356E-04   6.0642051E+04   -1.6638905E+00
   5.3996571E-04   6.0178996E+04   -1.6633831E+00
   5.4245933E-04   5.9719617E+04   -1.6628766E+00
   5.4496446E-04   5.9263883E+04   -1.6623708E+00
   5.4748117E-04   5.8811764E+04   -1.6618659E+00
   5.5000949E-04   5.8363230E+04   -1.6613618E+00
   5.5254949E-04   5.7918251E+04   -1.6608585E+00
   5.5510123E-04   5.7476797E+04   -1.6603560E+00
   5.5766474E-04   5.7038841E+04   -1.6598544E+00
   5.6024010E-04   5.6604352E+04   -1.6593535E+00
   5.6282734E-04   5.6173302E+04   -1.6588536E+00
   5.6542654E-04   5.5745663E+04   -1.6583544E+00
   5.6803774E-04   5.5321407E+04   -1.6578561E+00
   5.7066099E-04   5.4900506E+04   -1.6573587E+00
   5.7329637E-04   5.4482931E+04   -1.6568621E+00
   5.7594391E-04   5.4068657E+04   -1.6563663E+00
   5.7860368E-04   5.3657654E+04   -1.6558714E+00
   5.8127573E-04   5.3249898E+04   -1.6553774E+00
   5.8396012E-04   5.2845360E+04   -1.6548842E+00
   5.8665691E-04   5.2444015E+04   -1.6543919E+00
   5.8936616E-04   5.2045836E+04   -1.6539004E+00
   5.9208791E-04   5.1650796E+04   -1.6534098E+00
   5.9482223E-04   5.1258871E+04   -1.6529201E+00
   5.9756919E-04   5.0870035E+04   -1.6524313E+00
   6.0032882E-04   5.0484261E+04   -1.6519433E+00
   6.0310120E-04   5.0101526E+04   -1.6514562E+00
   6.0588639E-04   4.9721804E+04   -1.6509700E+00
   6.0868443E-04   4.9345070E+04   -1.6504847E+00
   6.1149540E-04   4.8971300E+04   -1.6500003E+00
   6.1431935E-04   4.8600469E+04   -1.6495167E+00
   6.1715634E-04   4.8232555E+04   -1.6490341E+00
   6.2000644E-04   4.7867531E+04   -1.6485523E+00
   6.2286969E-04   4.7505376E+04   -1.6480715E+00
