#        a       HoverH0(a)       dlogHdloga_of_a(a)
   1.0000000E-04   1.1079839E+06   -1.8864094E+00
   1.0046181E-04   1.0983965E+06   -1.8860044E+00
   1.0092575E-04   1.0888941E+06   -1.8855984E+00
   1.0139184E-04   1.0794760E+06   -1.8851913E+00
   1.0186008E-04   1.0701413E+06   -1.8847833E+00
   1.0233048E-04   1.0608893E+06   -1.8843743E+00
   1.0280305E-04   1.0517193E+06   -1.8839642E+00
   1.0327781E-04   1.0426305E+06   -1.8835531E+00
   1.0375475E-04   1.0336223E+06   -1.8831410E+00
   1.0423390E-04   1.0246938E+06   -1.8827279E+00
   1.0471527E-04   1.0158444E+06   -1.8823138E+00
   1.0519885E-04   1.0070733E+06   -1.8818987E+00
   1.0568467E-04   9.9837989E+05   -1.8814825E+00
   1.0617274E-04   9.8976341E+05   -1.8810654E+00
   1.0666305E-04   9.8122318E+05   -1.8806472E+00
   1.0715563E-04   9.7275852E+05   -1.8802280E+00
   1.0765049E-04   9.6436875E+05   -1.8798079E+00
   1.0814763E-04   9.5605318E+05   -1.8793867E+00
   1.0864707E-04   9.4781117E+05   -1.8789645E+00
   1.0914881E-04   9.3964203E+05   -1.8785413E+00
   1.0965287E-04   9.3154513E+05   -1.8781171E+00
   1.1015926E-04   9.2351980E+05   -1.8776919E+00
   1.1066799E-04   9.1556540E+05   -1.8772657E+00
   1.1117906E-04   9.0768131E+05   -1.8768385E+00
   1.1169250E-04   8.9986687E+05   -1.8764103E+00
   1.1220831E-04   8.9212148E+05   -1.8759811E+00
   1.1272650E-04   8.8444450E+05   -1.8755509E+00
   1.1324708E-04   8.7683533E+05   -1.8751197E+00
   1.1377007E-04   8.6929335E+05   -1.8746875E+00
   1.1429547E-04   8.6181796E+05   -1.8742544E+00
   1.1482330E-04   8.5440856E+05   -1.8738202E+00
   1.1535356E-04   8.4706456E+05   -1.8733850E+00
   1.1588628E-04   8.3978537E+05   -1.8729489E+00
   1.1642145E-04   8.3257040E+05   -1.8725117E+00
   1.1695910E-04   8.2541909E+05   -1.8720736E+00
   1.1749923E-04   8.1833086E+05   -1.8716344E+00
   1.1804185E-04   8.1130514E+05   -1.8711943E+00
   1.1858698E-04   8.0434137E+05   -1.8707532E+00
   1.1913463E-04   7.9743900E+05   -1.8703112E+00
   1.1968481E-04   7.9059747E+05   -1.8698681E+00
   1.2023752E-04   7.8381624E+05   -1.8694241E+00
   1.2079279E-04   7.7709477E+05   -1.8689790E+00
   1.2135063E-04   7.7043251E+05   -1.8685330E+00
   1.2191104E-04   7.6382895E+05   -1.8680861E+00
   1.2247403E-04   7.5728355E+05   -1.8676381E+00
   1.2303963E-04   7.5079579E+05   -1.8671892E+00
   1.2360784E-04   7.4436515E+05   -1.8667393E+00
   1.2417868E-04   7.3799112E+05   -1.8662885E+00
   1.2475215E-04   7.3167319E+05   -1.8658366E+00
   1.2532826E-04   7.2541086E+05   -1.8653839E+00
   1.2590704E-04   7.1920364E+05   -1.8649301E+00
   1.2648850E-04   7.1305101E+05   -1.8644754E+00
   1.2707263E-04   7.0695251E+05   -1.8640197E+00
   1.2765947E-04   7.0090764E+05   -1.8635631E+00
   1.2824901E-04   6.9491592E+05   -1.8631055E+00
   1.2884128E-04   6.8897688E+05   -1.8626469E+00
   1.2943628E-04   6.8309003E+05   -1.8621874E+00
   1.3003403E-04   6.7725492E+05   -1.8617270E+00
   1.3063454E-04   6.7147109E+05   -1.8612656E+00
   1.3123783E-04   6.6573806E+05   -1.8608032E+00
   1.3184390E-04   6.6005539E+05   -1.8603399E+00
   1.3245277E-04   6.5442262E+05   -1.8598757E+00
   1.3306445E-04   6.4883931E+05   -1.8594105E+00
   1.3367895E-04   6.4330502E+05   -1.8589444E+00
   1.3429630E-04   6.3781930E+05   -1.8584773E+00
   1.3491649E-04   6.3238173E+05   -1.8580094E+00
   1.3553955E-04   6.2699186E+05   -1.8575404E+00
   1.3616548E-04   6.2164928E+05   -1.8570706E+00
   1.3679431E-04   6.1635356E+05   -1.8565998E+00
   1.3742604E-04   6.1110428E+05   -1.8561281E+00
   1.3806069E-04   6.0590102E+05   -1.8556555E+00
   1.3869827E-04   6.0074337E+05   -1.8551819E+00
   1.3933879E-04   5.9563093E+05   -1.8547074E+00
   1.3998227E-04   5.9056329E+05   -1.8542321E+00
   1.4062872E-04   5.8554005E+05   -1.8537557E+00
   1.4127816E-04   5.8056081E+05   -1.8532785E+00
   1.4193060E-04   5.7562518E+05   -1.8528004E+00
   1.4258605E-04   5.7073277E+05   -1.8523214E+00
   1.4324453E-04   5.6588319E+05   -1.8518414E+00
   1.4390605E-04   5.6107606E+05   -1.8513606E+00
   1.4457062E-04   5.5631100E+05   -1.8508789E+00
   1.4523826E-04   5.5158763E+05   -1.8503962E+00
   1.4590899E-04   5.4690559E+05   -1.8499127E+00
   1.4658281E-04   5.4226449E+05   -1.8494283E+00
   1.4725974E-04   5.3766398E+05   -1.8489430E+00
   1.4793981E-04   5.3310370E+05   -1.8484568E+00
   1.4862301E-04   5.2858328E+05   -1.8479697E+00
   1.4930936E-04   5.2410237E+05   -1.8474818E+00
   1.4999889E-04   5.1966061E+05   -1.8469929E+00
   1.5069160E-04   5.1525766E+05   -1.8465032E+00
   1.5138751E-04   5.1089316E+05   -1.8460126E+00
   1.5208663E-04   5.0656678E+05   -1.8455212E+00
   1.5278899E-04   5.0227818E+05   -1.8450289E+00
   1.5349458E-04   4.9802702E+05   -1.8445357E+00
   1.5420343E-04   4.9381296E+05   -1.8440417E+00
   1.5491556E-04   4.8963567E+05   -1.8435468E+00
   1.5563098E-04   4.8549483E+05   -1.8430510E+00
   1.5634970E-04   4.8139010E+05   -1.8425544E+00
   1.5707174E-04   4.7732118E+05   -1.8420570E+00
   1.5779711E-04   4.7328773E+05   -1.8415587E+00
   1.5852584E-04   4.6928944E+05   -1.8410595E+00
   1.5925792E-04   4.6532600E+05   -1.8405596E+00
   1.5999339E-04   4.6139710E+05   -1.8400587E+00
   1.6073226E-04   4.5750243E+05   -1.8395571E+00
   1.6147454E-04   4.5364168E+05   -1.8390546E+00
   1.6222024E-04   4.4981456E+05   -1.8385513E+00
   1.6296939E-04   4.4602075E+05   -1.8380472E+00
   1.6372200E-04   4.4225998E+05   -1.8375423E+00
   1.6447809E-04   4.3853193E+05   -1.8370365E+00
   1.6523767E-04   4.3483633E+05   -1.8365300E+00
   1.6600075E-04   4.3117287E+05   -1.8360226E+00
   1.6676736E-04   4.2754128E+05   -1.8355144E+00
   1.6753751E-04   4.2394127E+05   -1.8350054E+00
   1.6831122E-04   4.2037256E+05   -1.8344956E+00
   1.6908849E-04   4.1683488E+05   -1.8339851E+00
   1.6986936E-04   4.1332793E+05   -1.8334737E+00
   1.7065384E-04   4.0985146E+05   -1.8329615E+00
   1.7144193E-04   4.0640518E+05   -1.8324486E+00
   1.7223367E-04   4.0298884E+05   -1.8319349E+00
   1.7302906E-04   3.9960217E+05   -1.8314204E+00
   1.7382813E-04   3.9624489E+05   -1.8309051E+00
   1.7463089E-04   3.9291676E+05   -1.8303891E+00
   1.7543735E-04   3.8961750E+05   -1.8298723E+00
   1.7624754E-04   3.8634687E+05   -1.8293547E+00
   1.7706147E-04   3.8310461E+05   -1.8288364E+00
   1.7787916E-04   3.7989047E+05   -1.8283173E+00
   1.7870062E-04   3.7670419E+05   -1.8277975E+00
   1.7952588E-04   3.7354554E+05   -1.8272769E+00
   1.8035495E-04   3.7041425E+05   -1.8267556E+00
   1.8118785E-04   3.6731010E+05   -1.8262336E+00
   1.8202459E-04   3.6423284E+05   -1.8257108E+00
   1.8286520E-04   3.6118223E+05   -1.8251873E+00
   1.8370969E-04   3.5815804E+05   -1.8246630E+00
   1.8455808E-04   3.5516002E+05   -1.8241381E+00
   1.8541039E-04   3.5218796E+05   -1.8236124E+00
   1.8626663E-04   3.4924161E+05   -1.8230860E+00
   1.8712683E-04   3.4632075E+05   -1.8225589E+00
   1.8799100E-04   3.4342515E+05   -1.8220311E+00
   1.8885917E-04   3.4055459E+05   -1.8215025E+00
   1.8973134E-04   3.3770885E+05   -1.8209733E+00
   1.9060754E-04   3.3488770E+05   -1.8204434E+00
   1.9148778E-04   3.3209094E+05   -1.8199128E+00
   1.9237209E-04   3.2931833E+05   -1.8193816E+00
   1.9326049E-04   3.2656968E+05   -1.8188496E+00
   1.9415299E-04   3.2384476E+05   -1.8183170E+00
   1.9504960E-04   3.2114336E+05   -1.8177837E+00
   1.9595036E-04   3.1846529E+05   -1.8172497E+00
   1.9685528E-04   3.1581032E+05   -1.8167151E+00
   1.9776438E-04   3.1317826E+05   -1.8161798E+00
   1.9867768E-04   3.1056890E+05   -1.8156438E+00
   1.9959519E-04   3.0798205E+05   -1.8151072E+00
   2.0051694E-04   3.0541749E+05   -1.8145700E+00
   2.0144295E-04   3.0287504E+05   -1.8140321E+00
   2.0237324E-04   3.0035450E+05   -1.8134936E+00
   2.0330782E-04   2.9785568E+05   -1.8129545E+00
   2.0424671E-04   2.9537838E+05   -1.8124147E+00
   2.0518995E-04   2.9292241E+05   -1.8118743E+00
   2.0613754E-04   2.9048759E+05   -1.8113333E+00
   2.0708950E-04   2.8807372E+05   -1.8107917E+00
   2.0804586E-04   2.8568063E+05   -1.8102494E+00
   2.0900664E-04   2.8330812E+05   -1.8097066E+00
   2.0997185E-04   2.8095602E+05   -1.8091632E+00
   2.1094152E-04   2.7862415E+05   -1.8086191E+00
   2.1191567E-04   2.7631232E+05   -1.8080745E+00
   2.1289432E-04   2.7402036E+05   -1.8075293E+00
   2.1387749E-04   2.7174810E+05   -1.8069836E+00
   2.1486520E-04   2.6949536E+05   -1.8064372E+00
   2.1585747E-04   2.6726196E+05   -1.8058903E+00
   2.1685432E-04   2.6504774E+05   -1.8053428E+00
   2.1785578E-04   2.6285253E+05   -1.8047948E+00
   2.1886186E-04   2.6067616E+05   -1.8042462E+00
   2.1987259E-04   2.5851847E+05   -1.8036970E+00
   2.2088798E-04   2.5637928E+05   -1.8031473E+00
   2.2190807E-04   2.5425844E+05   -1.8025971E+00
   2.2293286E-04   2.5215578E+05   -1.8020464E+00
   2.2396239E-04   2.5007115E+05   -1.8014951E+00
   2.2499667E-04   2.4800438E+05   -1.8009432E+00
   2.2603573E-04   2.4595531E+05   -1.8003909E+00
   2.2707958E-04   2.4392380E+05   -1.7998381E+00
   2.2812826E-04   2.4190969E+05   -1.7992847E+00
   2.2918178E-04   2.3991281E+05   -1.7987309E+00
   2.3024017E-04   2.3793303E+05   -1.7981765E+00
   2.3130344E-04   2.3597019E+05   -1.7976216E+00
   2.3237162E-04   2.3402414E+05   -1.7970663E+00
   2.3344474E-04   2.3209473E+05   -1.7965105E+00
   2.3452281E-04   2.3018182E+05   -1.7959542E+00
   2.3560586E-04   2.2828526E+05   -1.7953974E+00
   2.3669392E-04   2.2640491E+05   -1.7948402E+00
   2.3778699E-04   2.2454062E+05   -1.7942825E+00
   2.3888512E-04   2.2269226E+05   -1.7937243E+00
   2.3998831E-04   2.2085968E+05   -1.7931657E+00
   2.4109661E-04   2.1904274E+05   -1.7926067E+00
   2.4221001E-04   2.1724131E+05   -1.7920472E+00
   2.4332857E-04   2.1545525E+05   -1.7914873E+00
   2.4445228E-04   2.1368443E+05   -1.7909269E+00
   2.4558119E-04   2.1192871E+05   -1.7903662E+00
   2.4671531E-04   2.1018796E+05   -1.7898050E+00
   2.4785467E-04   2.0846205E+05   -1.7892434E+00
   2.4899928E-04   2.0675084E+05   -1.7886814E+00
   2.5014919E-04   2.0505421E+05   -1.7881190E+00
   2.5130440E-04   2.0337203E+05   -1.7875562E+00
   2.5246495E-04   2.0170418E+05   -1.7869930E+00
   2.5363086E-04   2.0005052E+05   -1.7864294E+00
   2.5480216E-04   1.9841093E+05   -1.7858654E+00
   2.5597886E-04   1.9678530E+05   -1.7853011E+00
   2.5716100E-04   1.9517349E+05   -1.7847364E+00
   2.5834859E-04   1.9357538E+05   -1.7841713E+00
   2.5954168E-04   1.9199087E+05   -1.7836059E+00
   2.6074027E-04   1.9041981E+05   -1.7830401E+00
   2.6194439E-04   1.8886211E+05   -1.7824740E+00
   2.6315408E-04   1.8731764E+05   -1.7819076E+00
   2.6436935E-04   1.8578628E+05   -1.7813408E+00
   2.6559024E-04   1.8426793E+05   -1.7807737E+00
   2.6681676E-04   1.8276246E+05   -1.7802062E+00
   2.6804895E-04   1.8126976E+05   -1.7796385E+00
   2.6928683E-04   1.7978973E+05   -1.7790704E+00
   2.7053042E-04   1.7832224E+05   -1.7785020E+00
   2.7177976E-04   1.7686720E+05   -1.7779334E+00
   2.7303487E-04   1.7542449E+05   -1.7773644E+00
   2.7429577E-04   1.7399401E+05   -1.7767951E+00
   2.7556250E-04   1.7257564E+05   -1.7762256E+00
   2.7683507E-04   1.7116928E+05   -1.7756558E+00
   2.7811353E-04   1.6977483E+05   -1.7750857E+00
   2.7939788E-04   1.6839219E+05   -1.7745154E+00
   2.8068817E-04   1.6702124E+05   -1.7739448E+00
   2.8198442E-04   1.6566189E+05   -1.7733739E+00
   2.8328665E-04   1.6431404E+05   -1.7728028E+00
   2.8459490E-04   1.6297758E+05   -1.7722315E+00
   2.8590919E-04   1.6165241E+05   -1.7716599E+00
   2.8722955E-04   1.6033845E+05   -1.7710881E+00
   2.8855600E-04   1.5903558E+05   -1.7705161E+00
   2.8988859E-04   1.5774371E+05   -1.7699438E+00
   2.9122732E-04   1.5646276E+05   -1.7693714E+00
   2.9257224E-04   1.5519261E+05   -1.7687987E+00
   2.9392337E-04   1.5393318E+05   -1.7682259E+00
   2.9528074E-04   1.5268437E+05   -1.7676528E+00
   2.9664438E-04   1.5144610E+05   -1.7670796E+00
   2.9801431E-04   1.5021827E+05   -1.7665061E+00
   2.9939057E-04   1.4900078E+05   -1.7659326E+00
   3.0077319E-04   1.4779355E+05   -1.7653588E+00
   3.0216219E-04   1.4659649E+05   -1.7647849E+00
   3.0355761E-04   1.4540951E+05   -1.7642108E+00
   3.0495947E-04   1.4423252E+05   -1.7636365E+00
   3.0636780E-04   1.4306544E+05   -1.7630622E+00
   3.0778264E-04   1.4190818E+05   -1.7624876E+00
   3.0920401E-04   1.4076065E+05   -1.7619130E+00
   3.1063195E-04   1.3962277E+05   -1.7613382E+00
   3.1206648E-04   1.3849445E+05   -1.7607633E+00
   3.1350764E-04   1.3737562E+05   -1.7601883E+00
   3.1495545E-04   1.3626619E+05   -1.7596132E+00
   3.1640994E-04   1.3516607E+05   -1.7590380E+00
   3.1787116E-04   1.3407519E+05   -1.7584626E+00
   3.1933912E-04   1.3299347E+05   -1.7578872E+00
   3.2081386E-04   1.3192083E+05   -1.7573117E+00
   3.2229541E-04   1.3085718E+05   -1.7567361E+00
   3.2378381E-04   1.2980246E+05   -1.7561605E+00
   3.2527908E-04   1.2875657E+05   -1.7555848E+00
   3.2678125E-04   1.2771945E+05   -1.7550090E+00
   3.2829036E-04   1.2669103E+05   -1.7544332E+00
   3.2980644E-04   1.2567121E+05   -1.7538573E+00
   3.3132952E-04   1.2465994E+05   -1.7532814E+00
   3.3285963E-04   1.2365713E+05   -1.7527054E+00
   3.3439681E-04   1.2266272E+05   -1.7521295E+00
   3.3594109E-04   1.2167662E+05   -1.7515535E+00
   3.3749250E-04   1.2069878E+05   -1.7509774E+00
   3.3905108E-04   1.1972911E+05   -1.7504014E+00
   3.4061685E-04   1.1876754E+05   -1.7498254E+00
   3.4218986E-04   1.1781401E+05   -1.7492493E+00
   3.4377013E-04   1.1686845E+05   -1.7486733E+00
   3.4535769E-04   1.1593078E+05   -1.7480973E+00
   3.4695259E-04   1.1500094E+05   -1.7475213E+00
   3.4855485E-04   1.1407886E+05   -1.7469453E+00
   3.5016452E-04   1.1316447E+05   -1.7463694E+00
   3.5178161E-04   1.1225771E+05   -1.7457935E+00
   3.5340618E-04   1.1135852E+05   -1.7452176E+00
   3.5503824E-04   1.1046681E+05   -1.7446418E+00
   3.5667785E-04   1.0958254E+05   -1.7440661E+00
   3.5832502E-04   1.0870564E+05   -1.7434904E+00
   3.5997981E-04   1.0783604E+05   -1.7429148E+00
   3.6164223E-04   1.0697368E+05   -1.7423392E+00
   3.6331233E-04   1.0611850E+05   -1.7417637E+00
   3.6499015E-04   1.0527043E+05   -1.7411884E+00
   3.6667571E-04   1.0442942E+05   -1.7406131E+00
   3.6836906E-04   1.0359540E+05   -1.7400379E+00
   3.7007022E-04   1.0276831E+05   -1.7394628E+00
   3.7177925E-04   1.0194810E+05   -1.7388878E+00
   3.7349616E-04   1.0113470E+05   -1.7383130E+00
   3.7522101E-04   1.0032805E+05   -1.7377382E+00
   3.7695382E-04   9.9528108E+04   -1.7371636E+00
   3.7869463E-04   9.8734802E+04   -1.7365892E+00
   3.8044348E-04   9.7948078E+04   -1.7360149E+00
   3.8220041E-04   9.7167880E+04   -1.7354407E+00
   3.8396545E-04   9.6394151E+04   -1.7348666E+00
   3.8573864E-04   9.5626837E+04   -1.7342928E+00
   3.8752002E-04   9.4865881E+04   -1.7337191E+00
   3.8930963E-04   9.4111229E+04   -1.7331455E+00
   3.9110750E-04   9.3362827E+04   -1.7325722E+00
   3.9291368E-04   9.2620621E+04   -1.7319990E+00
   3.9472820E-04   9.1884558E+04   -1.7314260E+00
   3.9655109E-04   9.1154585E+04   -1.7308533E+00
   3.9838241E-04   9.0430650E+04   -1.7302807E+00
   4.0022218E-04   8.9712701E+04   -1.7297083E+00
   4.0207045E-04   8.9000687E+04   -1.7291361E+00
   4.0392725E-04   8.8294557E+04   -1.7285642E+00
   4.0579263E-04   8.7594259E+04   -1.7279925E+00
   4.0766662E-04   8.6899745E+04   -1.7274210E+00
   4.0954927E-04   8.6210965E+04   -1.7268497E+00
   4.1144061E-04   8.5527869E+04   -1.7262787E+00
   4.1334068E-04   8.4850408E+04   -1.7257080E+00
   4.1524953E-04   8.4178535E+04   -1.7251374E+00
   4.1716720E-04   8.3512202E+04   -1.7245672E+00
   4.1909372E-04   8.2851360E+04   -1.7239972E+00
   4.2102914E-04   8.2195964E+04   -1.7234275E+00
   4.2297350E-04   8.1545966E+04   -1.7228581E+00
   4.2492683E-04   8.0901321E+04   -1.7222889E+00
   4.2688919E-04   8.0261982E+04   -1.7217201E+00
   4.2886061E-04   7.9627905E+04   -1.7211515E+00
   4.3084113E-04   7.8999043E+04   -1.7205833E+00
   4.3283080E-04   7.8375354E+04   -1.7200153E+00
   4.3482966E-04   7.7756791E+04   -1.7194477E+00
   4.3683775E-04   7.7143312E+04   -1.7188804E+00
   4.3885511E-04   7.6534874E+04   -1.7183134E+00
   4.4088179E-04   7.5931432E+04   -1.7177467E+00
   4.4291783E-04   7.5332945E+04   -1.7171804E+00
   4.4496327E-04   7.4739370E+04   -1.7166144E+00
   4.4701816E-04   7.4150665E+04   -1.7160487E+00
   4.4908253E-04   7.3566789E+04   -1.7154834E+00
   4.5115644E-04   7.2987701E+04   -1.7149185E+00
   4.5323993E-04   7.2413359E+04   -1.7143539E+00
   4.5533304E-04   7.1843724E+04   -1.7137897E+00
   4.5743582E-04   7.1278756E+04   -1.7132259E+00
   4.5954830E-04   7.0718413E+04   -1.7126625E+00
   4.6167054E-04   7.0162658E+04   -1.7120994E+00
   4.6380259E-04   6.9611451E+04   -1.7115368E+00
   4.6594448E-04   6.9064753E+04   -1.7109745E+00
   4.6809626E-04   6.8522526E+04   -1.7104126E+00
   4.7025797E-04   6.7984732E+04   -1.7098512E+00
   4.7242967E-04   6.7451333E+04   -1.7092902E+00
   4.7461140E-04   6.6922292E+04   -1.7087295E+00
   4.7680321E-04   6.6397572E+04   -1.7081693E+00
   4.7900514E-04   6.5877136E+04   -1.7076096E+00
   4.8121723E-04   6.5360948E+04   -1.7070503E+00
   4.8343954E-04   6.4848971E+04   -1.7064914E+00
   4.8567212E-04   6.4341171E+04   -1.7059329E+00
   4.8791500E-04   6.3837511E+04   -1.7053749E+00
   4.9016825E-04   6.3337957E+04   -1.7048174E+00
   4.9243189E-04   6.2842473E+04   -1.7042603E+00
   4.9470600E-04   6.2351025E+04   -1.7037038E+00
   4.9699060E-04   6.1863579E+04   -1.7031476E+00
   4.9928575E-04   6.1380101E+04   -1.7025920E+00
   5.0159151E-04   6.0900557E+04   -1.7020368E+00
   5.0390791E-04   6.0424915E+04   -1.7014822E+00
   5.0623501E-04   5.9953140E+04   -1.7009280E+00
   5.0857286E-04   5.9485200E+04   -1.7003743E+00
   5.1092150E-04   5.9021064E+04   -1.6998211E+00
   5.1328099E-04   5.8560698E+04   -1.6992685E+00
   5.1565137E-04   5.8104071E+04   -1.6987163E+00
   5.1803270E-04   5.7651151E+04   -1.6981647E+00
   5.2042503E-04   5.7201906E+04   -1.6976136E+00
   5.2282841E-04   5.6756307E+04   -1.6970630E+00
   5.2524289E-04   5.6314321E+04   -1.6965130E+00
   5.2766851E-04   5.5875919E+04   -1.6959635E+00
   5.3010534E-04   5.5441070E+04   -1.6954145E+00
   5.3255342E-04   5.5009745E+04   -1.6948661E+00
   5.3501281E-04   5.4581913E+04   -1.6943183E+00
   5.3748356E-04   5.4157544E+04   -1.6937710E+00
   5.3996571E-04   5.3736611E+04   -1.6932243E+00
   5.4245933E-04   5.3319084E+04   -1.6926782E+00
   5.4496446E-04   5.2904934E+04   -1.6921326E+00
   5.4748117E-04   5.2494133E+04   -1.6915876E+00
   5.5000949E-04   5.2086652E+04   -1.6910432E+00
   5.5254949E-04   5.1682464E+04   -1.6904994E+00
   5.5510123E-04   5.1281540E+04   -1.6899562E+00
   5.5766474E-04   5.0883854E+04   -1.6894136E+00
   5.6024010E-04   5.0489379E+04   -1.6888715E+00
   5.6282734E-04   5.0098086E+04   -1.6883301E+00
   5.6542654E-04   4.9709950E+04   -1.6877893E+00
   5.6803774E-04   4.9324944E+04   -1.6872492E+00
   5.7066099E-04   4.8943041E+04   -1.6867096E+00
   5.7329637E-04   4.8564216E+04   -1.6861707E+00
   5.7594391E-04   4.8188443E+04   -1.6856324E+00
   5.7860368E-04   4.7815696E+04   -1.6850947E+00
   5.8127573E-04   4.7445950E+04   -1.6845577E+00
   5.8396012E-04   4.7079179E+04   -1.6840214E+00
   5.8665691E-04   4.6715359E+04   -1.6834856E+00
   5.8936616E-04   4.6354465E+04   -1.6829506E+00
   5.9208791E-04   4.5996472E+04   -1.6824162E+00
   5.9482223E-04   4.5641356E+04   -1.6818824E+00
   5.9756919E-04   4.5289093E+04   -1.6813494E+00
   6.0032882E-04   4.4939659E+04   -1.6808170E+00
   6.0310120E-04   4.4593031E+04   -1.6802852E+00
   6.0588639E-04   4.4249184E+04   -1.6797542E+00
   6.0868443E-04   4.3908097E+04   -1.6792239E+00
   6.1149540E-04   4.3569745E+04   -1.6786942E+00
   6.1431935E-04   4.3234105E+04   -1.6781652E+00
   6.1715634E-04   4.2901156E+04   -1.6776369E+00
   6.2000644E-04   4.2570875E+04   -1.6771094E+00
   6.2286969E-04   4.2243238E+04   -1.6765825E+00
