#        a       HoverH0(a)       dlogHdloga_of_a(a)
   1.0000000E-04   1.1167248E+06   -1.8932515E+00
   1.0046181E-04   1.1070268E+06   -1.8928642E+00
   1.0092575E-04   1.0974151E+06   -1.8924758E+00
   1.0139184E-04   1.0878887E+06   -1.8920864E+00
   1.0186008E-04   1.0784470E+06   -1.8916960E+00
   1.0233048E-04   1.0690891E+06   -1.8913045E+00
   1.0280305E-04   1.0598143E+06   -1.8909120E+00
   1.0327781E-04   1.0506219E+06   -1.8905186E+00
   1.0375475E-04   1.0415112E+06   -1.8901241E+00
   1.0423390E-04   1.0324813E+06   -1.8897285E+00
   1.0471527E-04   1.0235316E+06   -1.8893320E+00
   1.0519885E-04   1.0146613E+06   -1.8889344E+00
   1.0568467E-04   1.0058697E+06   -1.8885358E+00
   1.0617274E-04   9.9715612E+05   -1.8881362E+00
   1.0666305E-04   9.8851986E+05   -1.8877356E+00
   1.0715563E-04   9.7996021E+05   -1.8873340E+00
   1.0765049E-04   9.7147647E+05   -1.8869313E+00
   1.0814763E-04   9.6306798E+05   -1.8865276E+00
   1.0864707E-04   9.5473403E+05   -1.8861229E+00
   1.0914881E-04   9.4647398E+05   -1.8857172E+00
   1.0965287E-04   9.3828714E+05   -1.8853105E+00
   1.1015926E-04   9.3017286E+05   -1.8849027E+00
   1.1066799E-04   9.2213049E+05   -1.8844940E+00
   1.1117906E-04   9.1415937E+05   -1.8840842E+00
   1.1169250E-04   9.0625888E+05   -1.8836734E+00
   1.1220831E-04   8.9842836E+05   -1.8832616E+00
   1.1272650E-04   8.9066720E+05   -1.8828488E+00
   1.1324708E-04   8.8297476E+05   -1.8824350E+00
   1.1377007E-04   8.7535044E+05   -1.8820202E+00
   1.1429547E-04   8.6779361E+05   -1.8816043E+00
   1.1482330E-04   8.6030366E+05   -1.8811874E+00
   1.1535356E-04   8.5288001E+05   -1.8807696E+00
   1.1588628E-04   8.4552204E+05   -1.8803507E+00
   1.1642145E-04   8.3822917E+05   -1.8799308E+00
   1.1695910E-04   8.3100081E+05   -1.8795099E+00
   1.1749923E-04   8.2383639E+05   -1.8790880E+00
   1.1804185E-04   8.1673532E+05   -1.8786651E+00
   1.1858698E-04   8.0969704E+05   -1.8782412E+00
   1.1913463E-04   8.0272098E+05   -1.8778163E+00
   1.1968481E-04   7.9580658E+05   -1.8773904E+00
   1.2023752E-04   7.8895330E+05   -1.8769635E+00
   1.2079279E-04   7.8216057E+05   -1.8765356E+00
   1.2135063E-04   7.7542786E+05   -1.8761067E+00
   1.2191104E-04   7.6875462E+05   -1.8756768E+00
   1.2247403E-04   7.6214032E+05   -1.8752459E+00
   1.2303963E-04   7.5558444E+05   -1.8748140E+00
   1.2360784E-04   7.4908644E+05   -1.8743811E+00
   1.2417868E-04   7.4264580E+05   -1.8739472E+00
   1.2475215E-04   7.3626202E+05   -1.8735123E+00
   1.2532826E-04   7.2993457E+05   -1.8730764E+00
   1.2590704E-04   7.2366296E+05   -1.8726396E+00
   1.2648850E-04   7.1744668E+05   -1.8722017E+00
   1.2707263E-04   7.1128523E+05   -1.8717629E+00
   1.2765947E-04   7.0517812E+05   -1.8713230E+00
   1.2824901E-04   6.9912487E+05   -1.8708822E+00
   1.2884128E-04   6.9312499E+05   -1.8704404E+00
   1.2943628E-04   6.8717801E+05   -1.8699977E+00
   1.3003403E-04   6.8128343E+05   -1.8695539E+00
   1.3063454E-04   6.7544081E+05   -1.8691092E+00
   1.3123783E-04   6.6964966E+05   -1.8686635E+00
   1.3184390E-04   6.6390953E+05   -1.8682168E+00
   1.3245277E-04   6.5821996E+05   -1.8677691E+00
   1.3306445E-04   6.5258050E+05   -1.8673205E+00
   1.3367895E-04   6.4699069E+05   -1.8668709E+00
   1.3429630E-04   6.4145009E+05   -1.8664203E+00
   1.3491649E-04   6.3595826E+05   -1.8659687E+00
   1.3553955E-04   6.3051477E+05   -1.8655162E+00
   1.3616548E-04   6.2511917E+05   -1.8650627E+00
   1.3679431E-04   6.1977104E+05   -1.8646083E+00
   1.3742604E-04   6.1446996E+05   -1.8641529E+00
   1.3806069E-04   6.0921550E+05   -1.8636966E+00
   1.3869827E-04   6.0400724E+05   -1.8632392E+00
   1.3933879E-04   5.9884476E+05   -1.8627810E+00
   1.3998227E-04   5.9372767E+05   -1.8623217E+00
   1.4062872E-04   5.8865555E+05   -1.8618616E+00
   1.4127816E-04   5.8362800E+05   -1.8614004E+00
   1.4193060E-04   5.7864462E+05   -1.8609384E+00
   1.4258605E-04   5.7370501E+05   -1.8604753E+00
   1.4324453E-04   5.6880878E+05   -1.8600114E+00
   1.4390605E-04   5.6395555E+05   -1.8595465E+00
   1.4457062E-04   5.5914492E+05   -1.8590806E+00
   1.4523826E-04   5.5437653E+05   -1.8586138E+00
   1.4590899E-04   5.4964998E+05   -1.8581461E+00
   1.4658281E-04   5.4496490E+05   -1.8576775E+00
   1.4725974E-04   5.4032093E+05   -1.8572079E+00
   1.4793981E-04   5.3571769E+05   -1.8567374E+00
   1.4862301E-04   5.3115482E+05   -1.8562659E+00
   1.4930936E-04   5.2663196E+05   -1.8557935E+00
   1.4999889E-04   5.2214874E+05   -1.8553203E+00
   1.5069160E-04   5.1770483E+05   -1.8548461E+00
   1.5138751E-04   5.1329986E+05   -1.8543709E+00
   1.5208663E-04   5.0893348E+05   -1.8538949E+00
   1.5278899E-04   5.0460535E+05   -1.8534179E+00
   1.5349458E-04   5.0031514E+05   -1.8529401E+00
   1.5420343E-04   4.9606249E+05   -1.8524613E+00
   1.5491556E-04   4.9184707E+05   -1.8519816E+00
   1.5563098E-04   4.8766856E+05   -1.8515011E+00
   1.5634970E-04   4.8352661E+05   -1.8510196E+00
   1.5707174E-04   4.7942091E+05   -1.8505372E+00
   1.5779711E-04   4.7535113E+05   -1.8500539E+00
   1.5852584E-04   4.7131695E+05   -1.8495698E+00
   1.5925792E-04   4.6731805E+05   -1.8490847E+00
   1.5999339E-04   4.6335411E+05   -1.8485988E+00
   1.6073226E-04   4.5942482E+05   -1.8481120E+00
   1.6147454E-04   4.5552988E+05   -1.8476242E+00
   1.6222024E-04   4.5166898E+05   -1.8471357E+00
   1.6296939E-04   4.4784181E+05   -1.8466462E+00
   1.6372200E-04   4.4404807E+05   -1.8461559E+00
   1.6447809E-04   4.4028746E+05   -1.8456647E+00
   1.6523767E-04   4.3655969E+05   -1.8451726E+00
   1.6600075E-04   4.3286447E+05   -1.8446797E+00
   1.6676736E-04   4.2920150E+05   -1.8441859E+00
   1.6753751E-04   4.2557049E+05   -1.8436912E+00
   1.6831122E-04   4.2197116E+05   -1.8431957E+00
   1.6908849E-04   4.1840323E+05   -1.8426994E+00
   1.6986936E-04   4.1486642E+05   -1.8422022E+00
   1.7065384E-04   4.1136045E+05   -1.8417041E+00
   1.7144193E-04   4.0788505E+05   -1.8412052E+00
   1.7223367E-04   4.0443994E+05   -1.8407055E+00
   1.7302906E-04   4.0102485E+05   -1.8402049E+00
   1.7382813E-04   3.9763951E+05   -1.8397035E+00
   1.7463089E-04   3.9428367E+05   -1.8392013E+00
   1.7543735E-04   3.9095705E+05   -1.8386982E+00
   1.7624754E-04   3.8765940E+05   -1.8381943E+00
   1.7706147E-04   3.8439046E+05   -1.8376896E+00
   1.7787916E-04   3.8114996E+05   -1.8371841E+00
   1.7870062E-04   3.7793767E+05   -1.8366777E+00
   1.7952588E-04   3.7475333E+05   -1.8361706E+00
   1.8035495E-04   3.7159668E+05   -1.8356626E+00
   1.8118785E-04   3.6846749E+05   -1.8351539E+00
   1.8202459E-04   3.6536550E+05   -1.8346443E+00
   1.8286520E-04   3.6229048E+05   -1.8341340E+00
   1.8370969E-04   3.5924219E+05   -1.8336228E+00
   1.8455808E-04   3.5622038E+05   -1.8331109E+00
   1.8541039E-04   3.5322483E+05   -1.8325982E+00
   1.8626663E-04   3.5025529E+05   -1.8320847E+00
   1.8712683E-04   3.4731154E+05   -1.8315704E+00
   1.8799100E-04   3.4439335E+05   -1.8310554E+00
   1.8885917E-04   3.4150049E+05   -1.8305396E+00
   1.8973134E-04   3.3863274E+05   -1.8300230E+00
   1.9060754E-04   3.3578986E+05   -1.8295056E+00
   1.9148778E-04   3.3297165E+05   -1.8289875E+00
   1.9237209E-04   3.3017788E+05   -1.8284687E+00
   1.9326049E-04   3.2740833E+05   -1.8279490E+00
   1.9415299E-04   3.2466279E+05   -1.8274287E+00
   1.9504960E-04   3.2194105E+05   -1.8269076E+00
   1.9595036E-04   3.1924289E+05   -1.8263857E+00
   1.9685528E-04   3.1656811E+05   -1.8258632E+00
   1.9776438E-04   3.1391649E+05   -1.8253398E+00
   1.9867768E-04   3.1128783E+05   -1.8248158E+00
   1.9959519E-04   3.0868194E+05   -1.8242910E+00
   2.0051694E-04   3.0609859E+05   -1.8237656E+00
   2.0144295E-04   3.0353761E+05   -1.8232394E+00
   2.0237324E-04   3.0099877E+05   -1.8227125E+00
   2.0330782E-04   2.9848190E+05   -1.8221848E+00
   2.0424671E-04   2.9598680E+05   -1.8216565E+00
   2.0518995E-04   2.9351327E+05   -1.8211275E+00
   2.0613754E-04   2.9106111E+05   -1.8205978E+00
   2.0708950E-04   2.8863015E+05   -1.8200674E+00
   2.0804586E-04   2.8622020E+05   -1.8195363E+00
   2.0900664E-04   2.8383106E+05   -1.8190046E+00
   2.0997185E-04   2.8146255E+05   -1.8184721E+00
   2.1094152E-04   2.7911449E+05   -1.8179390E+00
   2.1191567E-04   2.7678671E+05   -1.8174052E+00
   2.1289432E-04   2.7447901E+05   -1.8168708E+00
   2.1387749E-04   2.7219122E+05   -1.8163357E+00
   2.1486520E-04   2.6992316E+05   -1.8157999E+00
   2.1585747E-04   2.6767467E+05   -1.8152635E+00
   2.1685432E-04   2.6544556E+05   -1.8147264E+00
   2.1785578E-04   2.6323567E+05   -1.8141887E+00
   2.1886186E-04   2.6104482E+05   -1.8136504E+00
   2.1987259E-04   2.5887285E+05   -1.8131114E+00
   2.2088798E-04   2.5671959E+05   -1.8125718E+00
   2.2190807E-04   2.5458487E+05   -1.8120316E+00
   2.2293286E-04   2.5246854E+05   -1.8114907E+00
   2.2396239E-04   2.5037042E+05   -1.8109493E+00
   2.2499667E-04   2.4829035E+05   -1.8104072E+00
   2.2603573E-04   2.4622818E+05   -1.8098646E+00
   2.2707958E-04   2.4418375E+05   -1.8093213E+00
   2.2812826E-04   2.4215690E+05   -1.8087774E+00
   2.2918178E-04   2.4014748E+05   -1.8082330E+00
   2.3024017E-04   2.3815533E+05   -1.8076880E+00
   2.3130344E-04   2.3618030E+05   -1.8071423E+00
   2.3237162E-04   2.3422223E+05   -1.8065961E+00
   2.3344474E-04   2.3228099E+05   -1.8060494E+00
   2.3452281E-04   2.3035641E+05   -1.8055021E+00
   2.3560586E-04   2.2844836E+05   -1.8049542E+00
   2.3669392E-04   2.2655668E+05   -1.8044057E+00
   2.3778699E-04   2.2468124E+05   -1.8038567E+00
   2.3888512E-04   2.2282189E+05   -1.8033072E+00
   2.3998831E-04   2.2097848E+05   -1.8027571E+00
   2.4109661E-04   2.1915087E+05   -1.8022065E+00
   2.4221001E-04   2.1733894E+05   -1.8016553E+00
   2.4332857E-04   2.1554253E+05   -1.8011037E+00
   2.4445228E-04   2.1376152E+05   -1.8005515E+00
   2.4558119E-04   2.1199576E+05   -1.7999988E+00
   2.4671531E-04   2.1024512E+05   -1.7994456E+00
   2.4785467E-04   2.0850947E+05   -1.7988918E+00
   2.4899928E-04   2.0678868E+05   -1.7983376E+00
   2.5014919E-04   2.0508261E+05   -1.7977829E+00
   2.5130440E-04   2.0339114E+05   -1.7972277E+00
   2.5246495E-04   2.0171414E+05   -1.7966720E+00
   2.5363086E-04   2.0005147E+05   -1.7961158E+00
   2.5480216E-04   1.9840302E+05   -1.7955592E+00
   2.5597886E-04   1.9676866E+05   -1.7950021E+00
   2.5716100E-04   1.9514826E+05   -1.7944445E+00
   2.5834859E-04   1.9354170E+05   -1.7938865E+00
   2.5954168E-04   1.9194886E+05   -1.7933280E+00
   2.6074027E-04   1.9036962E+05   -1.7927691E+00
   2.6194439E-04   1.8880386E+05   -1.7922097E+00
   2.6315408E-04   1.8725147E+05   -1.7916499E+00
   2.6436935E-04   1.8571231E+05   -1.7910897E+00
   2.6559024E-04   1.8418628E+05   -1.7905290E+00
   2.6681676E-04   1.8267327E+05   -1.7899679E+00
   2.6804895E-04   1.8117315E+05   -1.7894064E+00
   2.6928683E-04   1.7968581E+05   -1.7888445E+00
   2.7053042E-04   1.7821115E+05   -1.7882822E+00
   2.7177976E-04   1.7674905E+05   -1.7877195E+00
   2.7303487E-04   1.7529940E+05   -1.7871564E+00
   2.7429577E-04   1.7386209E+05   -1.7865929E+00
   2.7556250E-04   1.7243701E+05   -1.7860291E+00
   2.7683507E-04   1.7102405E+05   -1.7854648E+00
   2.7811353E-04   1.6962312E+05   -1.7849002E+00
   2.7939788E-04   1.6823410E+05   -1.7843353E+00
   2.8068817E-04   1.6685688E+05   -1.7837699E+00
   2.8198442E-04   1.6549138E+05   -1.7832043E+00
   2.8328665E-04   1.6413747E+05   -1.7826382E+00
   2.8459490E-04   1.6279507E+05   -1.7820719E+00
   2.8590919E-04   1.6146407E+05   -1.7815052E+00
   2.8722955E-04   1.6014437E+05   -1.7809381E+00
   2.8855600E-04   1.5883587E+05   -1.7803708E+00
   2.8988859E-04   1.5753847E+05   -1.7798031E+00
   2.9122732E-04   1.5625208E+05   -1.7792351E+00
   2.9257224E-04   1.5497660E+05   -1.7786668E+00
   2.9392337E-04   1.5371193E+05   -1.7780982E+00
   2.9528074E-04   1.5245798E+05   -1.7775293E+00
   2.9664438E-04   1.5121466E+05   -1.7769601E+00
   2.9801431E-04   1.4998187E+05   -1.7763907E+00
   2.9939057E-04   1.4875953E+05   -1.7758209E+00
   3.0077319E-04   1.4754753E+05   -1.7752509E+00
   3.0216219E-04   1.4634579E+05   -1.7746806E+00
   3.0355761E-04   1.4515422E+05   -1.7741101E+00
   3.0495947E-04   1.4397273E+05   -1.7735393E+00
   3.0636780E-04   1.4280123E+05   -1.7729683E+00
   3.0778264E-04   1.4163964E+05   -1.7723970E+00
   3.0920401E-04   1.4048787E+05   -1.7718254E+00
   3.1063195E-04   1.3934583E+05   -1.7712537E+00
   3.1206648E-04   1.3821344E+05   -1.7706817E+00
   3.1350764E-04   1.3709061E+05   -1.7701095E+00
   3.1495545E-04   1.3597726E+05   -1.7695371E+00
   3.1640994E-04   1.3487331E+05   -1.7689645E+00
   3.1787116E-04   1.3377868E+05   -1.7683917E+00
   3.1933912E-04   1.3269327E+05   -1.7678187E+00
   3.2081386E-04   1.3161703E+05   -1.7672455E+00
   3.2229541E-04   1.3054986E+05   -1.7666721E+00
   3.2378381E-04   1.2949168E+05   -1.7660985E+00
   3.2527908E-04   1.2844242E+05   -1.7655248E+00
   3.2678125E-04   1.2740199E+05   -1.7649509E+00
   3.2829036E-04   1.2637033E+05   -1.7643769E+00
   3.2980644E-04   1.2534736E+05   -1.7638026E+00
   3.3132952E-04   1.2433299E+05   -1.7632283E+00
   3.3285963E-04   1.2332716E+05   -1.7626538E+00
   3.3439681E-04   1.2232979E+05   -1.7620792E+00
   3.3594109E-04   1.2134081E+05   -1.7615044E+00
   3.3749250E-04   1.2036015E+05   -1.7609295E+00
   3.3905108E-04   1.1938772E+05   -1.7603545E+00
   3.4061685E-04   1.1842347E+05   -1.7597794E+00
   3.4218986E-04   1.1746731E+05   -1.7592042E+00
   3.4377013E-04   1.1651918E+05   -1.7586289E+00
   3.4535769E-04   1.1557901E+05   -1.7580535E+00
   3.4695259E-04   1.1464674E+05   -1.7574780E+00
   3.4855485E-04   1.1372228E+05   -1.7569024E+00
   3.5016452E-04   1.1280558E+05   -1.7563268E+00
   3.5178161E-04   1.1189656E+05   -1.7557511E+00
   3.5340618E-04   1.1099516E+05   -1.7551753E+00
   3.5503824E-04   1.1010132E+05   -1.7545995E+00
   3.5667785E-04   1.0921496E+05   -1.7540236E+00
   3.5832502E-04   1.0833603E+05   -1.7534477E+00
   3.5997981E-04   1.0746446E+05   -1.7528717E+00
   3.6164223E-04   1.0660018E+05   -1.7522957E+00
   3.6331233E-04   1.0574313E+05   -1.7517197E+00
   3.6499015E-04   1.0489325E+05   -1.7511437E+00
   3.6667571E-04   1.0405048E+05   -1.7505676E+00
   3.6836906E-04   1.0321475E+05   -1.7499916E+00
   3.7007022E-04   1.0238601E+05   -1.7494155E+00
   3.7177925E-04   1.0156419E+05   -1.7488395E+00
   3.7349616E-04   1.0074923E+05   -1.7482634E+00
   3.7522101E-04   9.9941083E+04   -1.7476874E+00
   3.7695382E-04   9.9139678E+04   -1.7471114E+00
   3.7869463E-04   9.8344961E+04   -1.7465355E+00
   3.8044348E-04   9.7556873E+04   -1.7459595E+00
   3.8220041E-04   9.6775357E+04   -1.7453836E+00
   3.8396545E-04   9.6000356E+04   -1.7448078E+00
   3.8573864E-04   9.5231815E+04   -1.7442320E+00
   3.8752002E-04   9.4469676E+04   -1.7436563E+00
   3.8930963E-04   9.3713886E+04   -1.7430806E+00
   3.9110750E-04   9.2964388E+04   -1.7425050E+00
   3.9291368E-04   9.2221130E+04   -1.7419295E+00
   3.9472820E-04   9.1484056E+04   -1.7413541E+00
   3.9655109E-04   9.0753114E+04   -1.7407788E+00
   3.9838241E-04   9.0028251E+04   -1.7402035E+00
   4.0022218E-04   8.9309414E+04   -1.7396284E+00
   4.0207045E-04   8.8596552E+04   -1.7390534E+00
   4.0392725E-04   8.7889612E+04   -1.7384785E+00
   4.0579263E-04   8.7188544E+04   -1.7379037E+00
   4.0766662E-04   8.6493298E+04   -1.7373290E+00
   4.0954927E-04   8.5803822E+04   -1.7367545E+00
   4.1144061E-04   8.5120068E+04   -1.7361801E+00
   4.1334068E-04   8.4441986E+04   -1.7356059E+00
   4.1524953E-04   8.3769528E+04   -1.7350318E+00
   4.1716720E-04   8.3102644E+04   -1.7344578E+00
   4.1909372E-04   8.2441287E+04   -1.7338841E+00
   4.2102914E-04   8.1785410E+04   -1.7333104E+00
   4.2297350E-04   8.1134965E+04   -1.7327370E+00
   4.2492683E-04   8.0489906E+04   -1.7321638E+00
   4.2688919E-04   7.9850186E+04   -1.7315907E+00
   4.2886061E-04   7.9215760E+04   -1.7310179E+00
   4.3084113E-04   7.8586582E+04   -1.7304452E+00
   4.3283080E-04   7.7962606E+04   -1.7298727E+00
   4.3482966E-04   7.7343789E+04   -1.7293005E+00
   4.3683775E-04   7.6730086E+04   -1.7287285E+00
   4.3885511E-04   7.6121454E+04   -1.7281566E+00
   4.4088179E-04   7.5517847E+04   -1.7275851E+00
   4.4291783E-04   7.4919225E+04   -1.7270137E+00
   4.4496327E-04   7.4325543E+04   -1.7264426E+00
   4.4701816E-04   7.3736760E+04   -1.7258718E+00
   4.4908253E-04   7.3152833E+04   -1.7253012E+00
   4.5115644E-04   7.2573721E+04   -1.7247308E+00
   4.5323993E-04   7.1999383E+04   -1.7241607E+00
   4.5533304E-04   7.1429778E+04   -1.7235909E+00
   4.5743582E-04   7.0864865E+04   -1.7230214E+00
   4.5954830E-04   7.0304604E+04   -1.7224521E+00
   4.6167054E-04   6.9748956E+04   -1.7218832E+00
   4.6380259E-04   6.9197880E+04   -1.7213145E+00
   4.6594448E-04   6.8651338E+04   -1.7207461E+00
   4.6809626E-04   6.8109291E+04   -1.7201781E+00
   4.7025797E-04   6.7571701E+04   -1.7196103E+00
   4.7242967E-04   6.7038529E+04   -1.7190429E+00
   4.7461140E-04   6.6509738E+04   -1.7184758E+00
   4.7680321E-04   6.5985291E+04   -1.7179090E+00
   4.7900514E-04   6.5465150E+04   -1.7173425E+00
   4.8121723E-04   6.4949278E+04   -1.7167764E+00
   4.8343954E-04   6.4437640E+04   -1.7162106E+00
   4.8567212E-04   6.3930199E+04   -1.7156452E+00
   4.8791500E-04   6.3426918E+04   -1.7150802E+00
   4.9016825E-04   6.2927764E+04   -1.7145155E+00
   4.9243189E-04   6.2432700E+04   -1.7139511E+00
   4.9470600E-04   6.1941692E+04   -1.7133872E+00
   4.9699060E-04   6.1454706E+04   -1.7128236E+00
   4.9928575E-04   6.0971706E+04   -1.7122604E+00
   5.0159151E-04   6.0492659E+04   -1.7116976E+00
   5.0390791E-04   6.0017531E+04   -1.7111352E+00
   5.0623501E-04   5.9546290E+04   -1.7105732E+00
   5.0857286E-04   5.9078901E+04   -1.7100116E+00
   5.1092150E-04   5.8615333E+04   -1.7094504E+00
   5.1328099E-04   5.8155553E+04   -1.7088896E+00
   5.1565137E-04   5.7699528E+04   -1.7083293E+00
   5.1803270E-04   5.7247227E+04   -1.7077694E+00
   5.2042503E-04   5.6798618E+04   -1.7072099E+00
   5.2282841E-04   5.6353669E+04   -1.7066509E+00
   5.2524289E-04   5.5912350E+04   -1.7060923E+00
   5.2766851E-04   5.5474630E+04   -1.7055341E+00
   5.3010534E-04   5.5040478E+04   -1.7049764E+00
   5.3255342E-04   5.4609864E+04   -1.7044192E+00
   5.3501281E-04   5.4182758E+04   -1.7038624E+00
   5.3748356E-04   5.3759131E+04   -1.7033061E+00
   5.3996571E-04   5.3338952E+04   -1.7027503E+00
   5.4245933E-04   5.2922193E+04   -1.7021950E+00
   5.4496446E-04   5.2508824E+04   -1.7016402E+00
   5.4748117E-04   5.2098817E+04   -1.7010858E+00
   5.5000949E-04   5.1692144E+04   -1.7005320E+00
   5.5254949E-04   5.1288776E+04   -1.6999786E+00
   5.5510123E-04   5.0888685E+04   -1.6994258E+00
   5.5766474E-04   5.0491844E+04   -1.6988734E+00
   5.6024010E-04   5.0098225E+04   -1.6983216E+00
   5.6282734E-04   4.9707800E+04   -1.6977704E+00
   5.6542654E-04   4.9320544E+04   -1.6972196E+00
   5.6803774E-04   4.8936428E+04   -1.6966694E+00
   5.7066099E-04   4.8555428E+04   -1.6961197E+00
   5.7329637E-04   4.8177515E+04   -1.6955706E+00
   5.7594391E-04   4.7802665E+04   -1.6950220E+00
   5.7860368E-04   4.7430851E+04   -1.6944739E+00
   5.8127573E-04   4.7062048E+04   -1.6939265E+00
   5.8396012E-04   4.6696230E+04   -1.6933796E+00
   5.8665691E-04   4.6333373E+04   -1.6928332E+00
   5.8936616E-04   4.5973451E+04   -1.6922874E+00
   5.9208791E-04   4.5616439E+04   -1.6917423E+00
   5.9482223E-04   4.5262313E+04   -1.6911977E+00
   5.9756919E-04   4.4911049E+04   -1.6906536E+00
   6.0032882E-04   4.4562623E+04   -1.6901102E+00
   6.0310120E-04   4.4217011E+04   -1.6895674E+00
   6.0588639E-04   4.3874189E+04   -1.6890252E+00
   6.0868443E-04   4.3534133E+04   -1.6884835E+00
   6.1149540E-04   4.3196821E+04   -1.6879425E+00
   6.1431935E-04   4.2862229E+04   -1.6874022E+00
   6.1715634E-04   4.2530335E+04   -1.6868624E+00
   6.2000644E-04   4.2201115E+04   -1.6863233E+00
   6.2286969E-04   4.1874548E+04   -1.6857847E+00
