#        a       HoverH0(a)       dlogHdloga_of_a(a)
   1.0000000E-04   1.1507303E+06   -1.8713761E+00
   1.0046181E-04   1.1408521E+06   -1.8709354E+00
   1.0092575E-04   1.1310611E+06   -1.8704937E+00
   1.0139184E-04   1.1213563E+06   -1.8700511E+00
   1.0186008E-04   1.1117371E+06   -1.8696074E+00
   1.0233048E-04   1.1022027E+06   -1.8691628E+00
   1.0280305E-04   1.0927523E+06   -1.8687172E+00
   1.0327781E-04   1.0833851E+06   -1.8682707E+00
   1.0375475E-04   1.0741005E+06   -1.8678231E+00
   1.0423390E-04   1.0648976E+06   -1.8673746E+00
   1.0471527E-04   1.0557757E+06   -1.8669251E+00
   1.0519885E-04   1.0467342E+06   -1.8664747E+00
   1.0568467E-04   1.0377722E+06   -1.8660233E+00
   1.0617274E-04   1.0288891E+06   -1.8655709E+00
   1.0666305E-04   1.0200842E+06   -1.8651175E+00
   1.0715563E-04   1.0113567E+06   -1.8646632E+00
   1.0765049E-04   1.0027061E+06   -1.8642079E+00
   1.0814763E-04   9.9413145E+05   -1.8637517E+00
   1.0864707E-04   9.8563224E+05   -1.8632945E+00
   1.0914881E-04   9.7720776E+05   -1.8628364E+00
   1.0965287E-04   9.6885733E+05   -1.8623773E+00
   1.1015926E-04   9.6058029E+05   -1.8619172E+00
   1.1066799E-04   9.5237599E+05   -1.8614562E+00
   1.1117906E-04   9.4424376E+05   -1.8609943E+00
   1.1169250E-04   9.3618297E+05   -1.8605314E+00
   1.1220831E-04   9.2819297E+05   -1.8600675E+00
   1.1272650E-04   9.2027313E+05   -1.8596027E+00
   1.1324708E-04   9.1242283E+05   -1.8591370E+00
   1.1377007E-04   9.0464144E+05   -1.8586704E+00
   1.1429547E-04   8.9692833E+05   -1.8582028E+00
   1.1482330E-04   8.8928291E+05   -1.8577342E+00
   1.1535356E-04   8.8170457E+05   -1.8572648E+00
   1.1588628E-04   8.7419270E+05   -1.8567944E+00
   1.1642145E-04   8.6674671E+05   -1.8563231E+00
   1.1695910E-04   8.5936600E+05   -1.8558508E+00
   1.1749923E-04   8.5205000E+05   -1.8553777E+00
   1.1804185E-04   8.4479813E+05   -1.8549036E+00
   1.1858698E-04   8.3760981E+05   -1.8544286E+00
   1.1913463E-04   8.3048448E+05   -1.8539526E+00
   1.1968481E-04   8.2342156E+05   -1.8534758E+00
   1.2023752E-04   8.1642051E+05   -1.8529981E+00
   1.2079279E-04   8.0948077E+05   -1.8525194E+00
   1.2135063E-04   8.0260179E+05   -1.8520399E+00
   1.2191104E-04   7.9578303E+05   -1.8515594E+00
   1.2247403E-04   7.8902395E+05   -1.8510781E+00
   1.2303963E-04   7.8232401E+05   -1.8505958E+00
   1.2360784E-04   7.7568269E+05   -1.8501127E+00
   1.2417868E-04   7.6909946E+05   -1.8496286E+00
   1.2475215E-04   7.6257381E+05   -1.8491437E+00
   1.2532826E-04   7.5610521E+05   -1.8486579E+00
   1.2590704E-04   7.4969317E+05   -1.8481712E+00
   1.2648850E-04   7.4333717E+05   -1.8476836E+00
   1.2707263E-04   7.3703671E+05   -1.8471951E+00
   1.2765947E-04   7.3079131E+05   -1.8467058E+00
   1.2824901E-04   7.2460046E+05   -1.8462156E+00
   1.2884128E-04   7.1846368E+05   -1.8457245E+00
   1.2943628E-04   7.1238049E+05   -1.8452325E+00
   1.3003403E-04   7.0635040E+05   -1.8447397E+00
   1.3063454E-04   7.0037295E+05   -1.8442460E+00
   1.3123783E-04   6.9444767E+05   -1.8437515E+00
   1.3184390E-04   6.8857408E+05   -1.8432561E+00
   1.3245277E-04   6.8275173E+05   -1.8427599E+00
   1.3306445E-04   6.7698017E+05   -1.8422628E+00
   1.3367895E-04   6.7125893E+05   -1.8417648E+00
   1.3429630E-04   6.6558757E+05   -1.8412661E+00
   1.3491649E-04   6.5996564E+05   -1.8407664E+00
   1.3553955E-04   6.5439271E+05   -1.8402660E+00
   1.3616548E-04   6.4886833E+05   -1.8397647E+00
   1.3679431E-04   6.4339208E+05   -1.8392626E+00
   1.3742604E-04   6.3796353E+05   -1.8387596E+00
   1.3806069E-04   6.3258224E+05   -1.8382559E+00
   1.3869827E-04   6.2724780E+05   -1.8377513E+00
   1.3933879E-04   6.2195980E+05   -1.8372459E+00
   1.3998227E-04   6.1671781E+05   -1.8367396E+00
   1.4062872E-04   6.1152143E+05   -1.8362326E+00
   1.4127816E-04   6.0637025E+05   -1.8357248E+00
   1.4193060E-04   6.0126387E+05   -1.8352161E+00
   1.4258605E-04   5.9620189E+05   -1.8347067E+00
   1.4324453E-04   5.9118392E+05   -1.8341965E+00
   1.4390605E-04   5.8620955E+05   -1.8336854E+00
   1.4457062E-04   5.8127842E+05   -1.8331736E+00
   1.4523826E-04   5.7639013E+05   -1.8326610E+00
   1.4590899E-04   5.7154429E+05   -1.8321476E+00
   1.4658281E-04   5.6674054E+05   -1.8316335E+00
   1.4725974E-04   5.6197849E+05   -1.8311185E+00
   1.4793981E-04   5.5725778E+05   -1.8306028E+00
   1.4862301E-04   5.5257804E+05   -1.8300863E+00
   1.4930936E-04   5.4793890E+05   -1.8295691E+00
   1.4999889E-04   5.4334000E+05   -1.8290511E+00
   1.5069160E-04   5.3878100E+05   -1.8285323E+00
   1.5138751E-04   5.3426152E+05   -1.8280128E+00
   1.5208663E-04   5.2978122E+05   -1.8274926E+00
   1.5278899E-04   5.2533975E+05   -1.8269716E+00
   1.5349458E-04   5.2093678E+05   -1.8264499E+00
   1.5420343E-04   5.1657194E+05   -1.8259274E+00
   1.5491556E-04   5.1224492E+05   -1.8254042E+00
   1.5563098E-04   5.0795536E+05   -1.8248802E+00
   1.5634970E-04   5.0370294E+05   -1.8243556E+00
   1.5707174E-04   4.9948733E+05   -1.8238302E+00
   1.5779711E-04   4.9530820E+05   -1.8233041E+00
   1.5852584E-04   4.9116522E+05   -1.8227773E+00
   1.5925792E-04   4.8705809E+05   -1.8222498E+00
   1.5999339E-04   4.8298647E+05   -1.8217216E+00
   1.6073226E-04   4.7895005E+05   -1.8211927E+00
   1.6147454E-04   4.7494853E+05   -1.8206631E+00
   1.6222024E-04   4.7098159E+05   -1.8201328E+00
   1.6296939E-04   4.6704892E+05   -1.8196018E+00
   1.6372200E-04   4.6315023E+05   -1.8190701E+00
   1.6447809E-04   4.5928521E+05   -1.8185378E+00
   1.6523767E-04   4.5545355E+05   -1.8180048E+00
   1.6600075E-04   4.5165498E+05   -1.8174711E+00
   1.6676736E-04   4.4788918E+05   -1.8169368E+00
   1.6753751E-04   4.4415588E+05   -1.8164017E+00
   1.6831122E-04   4.4045479E+05   -1.8158661E+00
   1.6908849E-04   4.3678561E+05   -1.8153298E+00
   1.6986936E-04   4.3314807E+05   -1.8147928E+00
   1.7065384E-04   4.2954188E+05   -1.8142552E+00
   1.7144193E-04   4.2596678E+05   -1.8137170E+00
   1.7223367E-04   4.2242248E+05   -1.8131781E+00
   1.7302906E-04   4.1890871E+05   -1.8126386E+00
   1.7382813E-04   4.1542520E+05   -1.8120985E+00
   1.7463089E-04   4.1197169E+05   -1.8115577E+00
   1.7543735E-04   4.0854790E+05   -1.8110164E+00
   1.7624754E-04   4.0515358E+05   -1.8104744E+00
   1.7706147E-04   4.0178847E+05   -1.8099318E+00
   1.7787916E-04   3.9845230E+05   -1.8093887E+00
   1.7870062E-04   3.9514482E+05   -1.8088449E+00
   1.7952588E-04   3.9186578E+05   -1.8083006E+00
   1.8035495E-04   3.8861492E+05   -1.8077556E+00
   1.8118785E-04   3.8539200E+05   -1.8072101E+00
   1.8202459E-04   3.8219677E+05   -1.8066640E+00
   1.8286520E-04   3.7902899E+05   -1.8061173E+00
   1.8370969E-04   3.7588841E+05   -1.8055701E+00
   1.8455808E-04   3.7277479E+05   -1.8050223E+00
   1.8541039E-04   3.6968790E+05   -1.8044739E+00
   1.8626663E-04   3.6662749E+05   -1.8039250E+00
   1.8712683E-04   3.6359334E+05   -1.8033756E+00
   1.8799100E-04   3.6058522E+05   -1.8028256E+00
   1.8885917E-04   3.5760289E+05   -1.8022751E+00
   1.8973134E-04   3.5464612E+05   -1.8017240E+00
   1.9060754E-04   3.5171469E+05   -1.8011724E+00
   1.9148778E-04   3.4880839E+05   -1.8006203E+00
   1.9237209E-04   3.4592697E+05   -1.8000677E+00
   1.9326049E-04   3.4307024E+05   -1.7995146E+00
   1.9415299E-04   3.4023796E+05   -1.7989610E+00
   1.9504960E-04   3.3742993E+05   -1.7984068E+00
   1.9595036E-04   3.3464593E+05   -1.7978522E+00
   1.9685528E-04   3.3188574E+05   -1.7972971E+00
   1.9776438E-04   3.2914917E+05   -1.7967415E+00
   1.9867768E-04   3.2643599E+05   -1.7961854E+00
   1.9959519E-04   3.2374601E+05   -1.7956288E+00
   2.0051694E-04   3.2107902E+05   -1.7950718E+00
   2.0144295E-04   3.1843482E+05   -1.7945143E+00
   2.0237324E-04   3.1581320E+05   -1.7939564E+00
   2.0330782E-04   3.1321398E+05   -1.7933980E+00
   2.0424671E-04   3.1063694E+05   -1.7928391E+00
   2.0518995E-04   3.0808190E+05   -1.7922798E+00
   2.0613754E-04   3.0554867E+05   -1.7917201E+00
   2.0708950E-04   3.0303704E+05   -1.7911600E+00
   2.0804586E-04   3.0054684E+05   -1.7905994E+00
   2.0900664E-04   2.9807788E+05   -1.7900384E+00
   2.0997185E-04   2.9562995E+05   -1.7894770E+00
   2.1094152E-04   2.9320290E+05   -1.7889152E+00
   2.1191567E-04   2.9079651E+05   -1.7883529E+00
   2.1289432E-04   2.8841063E+05   -1.7877903E+00
   2.1387749E-04   2.8604506E+05   -1.7872273E+00
   2.1486520E-04   2.8369964E+05   -1.7866639E+00
   2.1585747E-04   2.8137417E+05   -1.7861001E+00
   2.1685432E-04   2.7906849E+05   -1.7855359E+00
   2.1785578E-04   2.7678243E+05   -1.7849714E+00
   2.1886186E-04   2.7451580E+05   -1.7844065E+00
   2.1987259E-04   2.7226845E+05   -1.7838413E+00
   2.2088798E-04   2.7004020E+05   -1.7832757E+00
   2.2190807E-04   2.6783088E+05   -1.7827097E+00
   2.2293286E-04   2.6564033E+05   -1.7821434E+00
   2.2396239E-04   2.6346838E+05   -1.7815768E+00
   2.2499667E-04   2.6131488E+05   -1.7810098E+00
   2.2603573E-04   2.5917965E+05   -1.7804425E+00
   2.2707958E-04   2.5706255E+05   -1.7798749E+00
   2.2812826E-04   2.5496340E+05   -1.7793070E+00
   2.2918178E-04   2.5288206E+05   -1.7787388E+00
   2.3024017E-04   2.5081836E+05   -1.7781703E+00
   2.3130344E-04   2.4877216E+05   -1.7776014E+00
   2.3237162E-04   2.4674330E+05   -1.7770323E+00
   2.3344474E-04   2.4473162E+05   -1.7764629E+00
   2.3452281E-04   2.4273699E+05   -1.7758933E+00
   2.3560586E-04   2.4075924E+05   -1.7753233E+00
   2.3669392E-04   2.3879824E+05   -1.7747531E+00
   2.3778699E-04   2.3685383E+05   -1.7741826E+00
   2.3888512E-04   2.3492586E+05   -1.7736119E+00
   2.3998831E-04   2.3301421E+05   -1.7730409E+00
   2.4109661E-04   2.3111872E+05   -1.7724697E+00
   2.4221001E-04   2.2923925E+05   -1.7718983E+00
   2.4332857E-04   2.2737567E+05   -1.7713266E+00
   2.4445228E-04   2.2552782E+05   -1.7707547E+00
   2.4558119E-04   2.2369559E+05   -1.7701825E+00
   2.4671531E-04   2.2187882E+05   -1.7696102E+00
   2.4785467E-04   2.2007740E+05   -1.7690376E+00
   2.4899928E-04   2.1829117E+05   -1.7684649E+00
   2.5014919E-04   2.1652001E+05   -1.7678919E+00
   2.5130440E-04   2.1476379E+05   -1.7673188E+00
   2.5246495E-04   2.1302238E+05   -1.7667455E+00
   2.5363086E-04   2.1129565E+05   -1.7661720E+00
   2.5480216E-04   2.0958346E+05   -1.7655983E+00
   2.5597886E-04   2.0788570E+05   -1.7650245E+00
   2.5716100E-04   2.0620224E+05   -1.7644505E+00
   2.5834859E-04   2.0453295E+05   -1.7638763E+00
   2.5954168E-04   2.0287772E+05   -1.7633020E+00
   2.6074027E-04   2.0123641E+05   -1.7627276E+00
   2.6194439E-04   1.9960890E+05   -1.7621530E+00
   2.6315408E-04   1.9799509E+05   -1.7615783E+00
   2.6436935E-04   1.9639484E+05   -1.7610035E+00
   2.6559024E-04   1.9480804E+05   -1.7604285E+00
   2.6681676E-04   1.9323457E+05   -1.7598535E+00
   2.6804895E-04   1.9167432E+05   -1.7592783E+00
   2.6928683E-04   1.9012718E+05   -1.7587031E+00
   2.7053042E-04   1.8859302E+05   -1.7581277E+00
   2.7177976E-04   1.8707173E+05   -1.7575523E+00
   2.7303487E-04   1.8556321E+05   -1.7569768E+00
   2.7429577E-04   1.8406735E+05   -1.7564012E+00
   2.7556250E-04   1.8258402E+05   -1.7558255E+00
   2.7683507E-04   1.8111313E+05   -1.7552498E+00
   2.7811353E-04   1.7965456E+05   -1.7546740E+00
   2.7939788E-04   1.7820822E+05   -1.7540982E+00
   2.8068817E-04   1.7677398E+05   -1.7535223E+00
   2.8198442E-04   1.7535176E+05   -1.7529464E+00
   2.8328665E-04   1.7394144E+05   -1.7523705E+00
   2.8459490E-04   1.7254292E+05   -1.7517945E+00
   2.8590919E-04   1.7115610E+05   -1.7512185E+00
   2.8722955E-04   1.6978087E+05   -1.7506425E+00
   2.8855600E-04   1.6841715E+05   -1.7500665E+00
   2.8988859E-04   1.6706482E+05   -1.7494905E+00
   2.9122732E-04   1.6572378E+05   -1.7489145E+00
   2.9257224E-04   1.6439395E+05   -1.7483385E+00
   2.9392337E-04   1.6307522E+05   -1.7477625E+00
   2.9528074E-04   1.6176751E+05   -1.7471866E+00
   2.9664438E-04   1.6047070E+05   -1.7466107E+00
   2.9801431E-04   1.5918471E+05   -1.7460348E+00
   2.9939057E-04   1.5790945E+05   -1.7454589E+00
   3.0077319E-04   1.5664481E+05   -1.7448831E+00
   3.0216219E-04   1.5539072E+05   -1.7443074E+00
   3.0355761E-04   1.5414708E+05   -1.7437317E+00
   3.0495947E-04   1.5291380E+05   -1.7431561E+00
   3.0636780E-04   1.5169078E+05   -1.7425805E+00
   3.0778264E-04   1.5047795E+05   -1.7420051E+00
   3.0920401E-04   1.4927521E+05   -1.7414297E+00
   3.1063195E-04   1.4808247E+05   -1.7408544E+00
   3.1206648E-04   1.4689966E+05   -1.7402792E+00
   3.1350764E-04   1.4572668E+05   -1.7397041E+00
   3.1495545E-04   1.4456344E+05   -1.7391291E+00
   3.1640994E-04   1.4340988E+05   -1.7385542E+00
   3.1787116E-04   1.4226589E+05   -1.7379795E+00
   3.1933912E-04   1.4113141E+05   -1.7374049E+00
   3.2081386E-04   1.4000634E+05   -1.7368304E+00
   3.2229541E-04   1.3889061E+05   -1.7362560E+00
   3.2378381E-04   1.3778413E+05   -1.7356818E+00
   3.2527908E-04   1.3668683E+05   -1.7351077E+00
   3.2678125E-04   1.3559863E+05   -1.7345338E+00
   3.2829036E-04   1.3451944E+05   -1.7339601E+00
   3.2980644E-04   1.3344920E+05   -1.7333865E+00
   3.3132952E-04   1.3238783E+05   -1.7328131E+00
   3.3285963E-04   1.3133524E+05   -1.7322399E+00
   3.3439681E-04   1.3029136E+05   -1.7316669E+00
   3.3594109E-04   1.2925612E+05   -1.7310941E+00
   3.3749250E-04   1.2822945E+05   -1.7305214E+00
   3.3905108E-04   1.2721127E+05   -1.7299490E+00
   3.4061685E-04   1.2620150E+05   -1.7293768E+00
   3.4218986E-04   1.2520008E+05   -1.7288048E+00
   3.4377013E-04   1.2420694E+05   -1.7282330E+00
   3.4535769E-04   1.2322199E+05   -1.7276615E+00
   3.4695259E-04   1.2224518E+05   -1.7270902E+00
   3.4855485E-04   1.2127643E+05   -1.7265191E+00
   3.5016452E-04   1.2031568E+05   -1.7259483E+00
   3.5178161E-04   1.1936284E+05   -1.7253777E+00
   3.5340618E-04   1.1841787E+05   -1.7248074E+00
   3.5503824E-04   1.1748069E+05   -1.7242373E+00
   3.5667785E-04   1.1655123E+05   -1.7236675E+00
   3.5832502E-04   1.1562942E+05   -1.7230980E+00
   3.5997981E-04   1.1471521E+05   -1.7225288E+00
   3.6164223E-04   1.1380853E+05   -1.7219599E+00
   3.6331233E-04   1.1290930E+05   -1.7213912E+00
   3.6499015E-04   1.1201748E+05   -1.7208229E+00
   3.6667571E-04   1.1113299E+05   -1.7202548E+00
   3.6836906E-04   1.1025577E+05   -1.7196871E+00
   3.7007022E-04   1.0938576E+05   -1.7191197E+00
   3.7177925E-04   1.0852290E+05   -1.7185526E+00
   3.7349616E-04   1.0766713E+05   -1.7179858E+00
   3.7522101E-04   1.0681839E+05   -1.7174194E+00
   3.7695382E-04   1.0597661E+05   -1.7168533E+00
   3.7869463E-04   1.0514174E+05   -1.7162875E+00
   3.8044348E-04   1.0431372E+05   -1.7157222E+00
   3.8220041E-04   1.0349250E+05   -1.7151571E+00
   3.8396545E-04   1.0267800E+05   -1.7145924E+00
   3.8573864E-04   1.0187018E+05   -1.7140281E+00
   3.8752002E-04   1.0106897E+05   -1.7134642E+00
   3.8930963E-04   1.0027433E+05   -1.7129006E+00
   3.9110750E-04   9.9486195E+04   -1.7123375E+00
   3.9291368E-04   9.8704510E+04   -1.7117747E+00
   3.9472820E-04   9.7929220E+04   -1.7112123E+00
   3.9655109E-04   9.7160272E+04   -1.7106503E+00
   3.9838241E-04   9.6397611E+04   -1.7100887E+00
   4.0022218E-04   9.5641184E+04   -1.7095275E+00
   4.0207045E-04   9.4890938E+04   -1.7089668E+00
   4.0392725E-04   9.4146821E+04   -1.7084065E+00
   4.0579263E-04   9.3408779E+04   -1.7078466E+00
   4.0766662E-04   9.2676763E+04   -1.7072871E+00
   4.0954927E-04   9.1950720E+04   -1.7067281E+00
   4.1144061E-04   9.1230599E+04   -1.7061695E+00
   4.1334068E-04   9.0516352E+04   -1.7056114E+00
   4.1524953E-04   8.9807926E+04   -1.7050537E+00
   4.1716720E-04   8.9105275E+04   -1.7044965E+00
   4.1909372E-04   8.8408347E+04   -1.7039397E+00
   4.2102914E-04   8.7717096E+04   -1.7033835E+00
   4.2297350E-04   8.7031472E+04   -1.7028277E+00
   4.2492683E-04   8.6351428E+04   -1.7022723E+00
   4.2688919E-04   8.5676917E+04   -1.7017175E+00
   4.2886061E-04   8.5007893E+04   -1.7011632E+00
   4.3084113E-04   8.4344307E+04   -1.7006093E+00
   4.3283080E-04   8.3686116E+04   -1.7000560E+00
   4.3482966E-04   8.3033272E+04   -1.6995032E+00
   4.3683775E-04   8.2385731E+04   -1.6989509E+00
   4.3885511E-04   8.1743447E+04   -1.6983991E+00
   4.4088179E-04   8.1106377E+04   -1.6978478E+00
   4.4291783E-04   8.0474476E+04   -1.6972971E+00
   4.4496327E-04   7.9847701E+04   -1.6967468E+00
   4.4701816E-04   7.9226008E+04   -1.6961972E+00
   4.4908253E-04   7.8609355E+04   -1.6956480E+00
   4.5115644E-04   7.7997699E+04   -1.6950995E+00
   4.5323993E-04   7.7390997E+04   -1.6945514E+00
   4.5533304E-04   7.6789209E+04   -1.6940040E+00
   4.5743582E-04   7.6192292E+04   -1.6934571E+00
   4.5954830E-04   7.5600206E+04   -1.6929107E+00
   4.6167054E-04   7.5012909E+04   -1.6923650E+00
   4.6380259E-04   7.4430362E+04   -1.6918198E+00
   4.6594448E-04   7.3852524E+04   -1.6912752E+00
   4.6809626E-04   7.3279356E+04   -1.6907312E+00
   4.7025797E-04   7.2710819E+04   -1.6901878E+00
   4.7242967E-04   7.2146873E+04   -1.6896450E+00
   4.7461140E-04   7.1587480E+04   -1.6891028E+00
   4.7680321E-04   7.1032601E+04   -1.6885611E+00
   4.7900514E-04   7.0482199E+04   -1.6880201E+00
   4.8121723E-04   6.9936237E+04   -1.6874798E+00
   4.8343954E-04   6.9394676E+04   -1.6869400E+00
   4.8567212E-04   6.8857480E+04   -1.6864009E+00
   4.8791500E-04   6.8324612E+04   -1.6858624E+00
   4.9016825E-04   6.7796036E+04   -1.6853245E+00
   4.9243189E-04   6.7271716E+04   -1.6847873E+00
   4.9470600E-04   6.6751616E+04   -1.6842507E+00
   4.9699060E-04   6.6235700E+04   -1.6837148E+00
   4.9928575E-04   6.5723934E+04   -1.6831795E+00
   5.0159151E-04   6.5216283E+04   -1.6826449E+00
   5.0390791E-04   6.4712713E+04   -1.6821109E+00
   5.0623501E-04   6.4213188E+04   -1.6815776E+00
   5.0857286E-04   6.3717676E+04   -1.6810450E+00
   5.1092150E-04   6.3226143E+04   -1.6805130E+00
   5.1328099E-04   6.2738555E+04   -1.6799818E+00
   5.1565137E-04   6.2254880E+04   -1.6794512E+00
   5.1803270E-04   6.1775085E+04   -1.6789213E+00
   5.2042503E-04   6.1299137E+04   -1.6783921E+00
   5.2282841E-04   6.0827004E+04   -1.6778636E+00
   5.2524289E-04   6.0358654E+04   -1.6773358E+00
   5.2766851E-04   5.9894056E+04   -1.6768087E+00
   5.3010534E-04   5.9433178E+04   -1.6762823E+00
   5.3255342E-04   5.8975990E+04   -1.6757566E+00
   5.3501281E-04   5.8522460E+04   -1.6752316E+00
   5.3748356E-04   5.8072558E+04   -1.6747074E+00
   5.3996571E-04   5.7626254E+04   -1.6741839E+00
   5.4245933E-04   5.7183518E+04   -1.6736611E+00
   5.4496446E-04   5.6744320E+04   -1.6731391E+00
   5.4748117E-04   5.6308631E+04   -1.6726178E+00
   5.5000949E-04   5.5876421E+04   -1.6720972E+00
   5.5254949E-04   5.5447661E+04   -1.6715774E+00
   5.5510123E-04   5.5022324E+04   -1.6710583E+00
   5.5766474E-04   5.4600379E+04   -1.6705400E+00
   5.6024010E-04   5.4181799E+04   -1.6700224E+00
   5.6282734E-04   5.3766557E+04   -1.6695056E+00
   5.6542654E-04   5.3354623E+04   -1.6689896E+00
   5.6803774E-04   5.2945972E+04   -1.6684743E+00
   5.7066099E-04   5.2540575E+04   -1.6679598E+00
   5.7329637E-04   5.2138406E+04   -1.6674461E+00
   5.7594391E-04   5.1739437E+04   -1.6669332E+00
   5.7860368E-04   5.1343643E+04   -1.6664210E+00
   5.8127573E-04   5.0950997E+04   -1.6659096E+00
   5.8396012E-04   5.0561472E+04   -1.6653991E+00
   5.8665691E-04   5.0175043E+04   -1.6648893E+00
   5.8936616E-04   4.9791685E+04   -1.6643803E+00
   5.9208791E-04   4.9411371E+04   -1.6638721E+00
   5.9482223E-04   4.9034077E+04   -1.6633647E+00
   5.9756919E-04   4.8659777E+04   -1.6628582E+00
   6.0032882E-04   4.8288447E+04   -1.6623524E+00
   6.0310120E-04   4.7920063E+04   -1.6618475E+00
   6.0588639E-04   4.7554599E+04   -1.6613433E+00
   6.0868443E-04   4.7192032E+04   -1.6608400E+00
   6.1149540E-04   4.6832338E+04   -1.6603376E+00
   6.1431935E-04   4.6475493E+04   -1.6598359E+00
   6.1715634E-04   4.6121474E+04   -1.6593351E+00
   6.2000644E-04   4.5770256E+04   -1.6588351E+00
   6.2286969E-04   4.5421818E+04   -1.6583360E+00
