#        a       HoverH0(a)       dlogHdloga_of_a(a)
   1.0000000E-04   1.1269307E+06   -1.8690086E+00
   1.0046181E-04   1.1172691E+06   -1.8685627E+00
   1.0092575E-04   1.1076926E+06   -1.8681158E+00
   1.0139184E-04   1.0982004E+06   -1.8676679E+00
   1.0186008E-04   1.0887918E+06   -1.8672190E+00
   1.0233048E-04   1.0794660E+06   -1.8667692E+00
   1.0280305E-04   1.0702224E+06   -1.8663184E+00
   1.0327781E-04   1.0610601E+06   -1.8658667E+00
   1.0375475E-04   1.0519784E+06   -1.8654140E+00
   1.0423390E-04   1.0429766E+06   -1.8649603E+00
   1.0471527E-04   1.0340541E+06   -1.8645056E+00
   1.0519885E-04   1.0252100E+06   -1.8640500E+00
   1.0568467E-04   1.0164437E+06   -1.8635935E+00
   1.0617274E-04   1.0077544E+06   -1.8631359E+00
   1.0666305E-04   9.9914160E+05   -1.8626775E+00
   1.0715563E-04   9.9060447E+05   -1.8622180E+00
   1.0765049E-04   9.8214237E+05   -1.8617576E+00
   1.0814763E-04   9.7375462E+05   -1.8612963E+00
   1.0864707E-04   9.6544056E+05   -1.8608340E+00
   1.0914881E-04   9.5719952E+05   -1.8603708E+00
   1.0965287E-04   9.4903086E+05   -1.8599066E+00
   1.1015926E-04   9.4093392E+05   -1.8594415E+00
   1.1066799E-04   9.3290806E+05   -1.8589755E+00
   1.1117906E-04   9.2495266E+05   -1.8585085E+00
   1.1169250E-04   9.1706706E+05   -1.8580406E+00
   1.1220831E-04   9.0925066E+05   -1.8575717E+00
   1.1272650E-04   9.0150282E+05   -1.8571019E+00
   1.1324708E-04   8.9382294E+05   -1.8566312E+00
   1.1377007E-04   8.8621042E+05   -1.8561596E+00
   1.1429547E-04   8.7866464E+05   -1.8556870E+00
   1.1482330E-04   8.7118501E+05   -1.8552136E+00
   1.1535356E-04   8.6377093E+05   -1.8547392E+00
   1.1588628E-04   8.5642182E+05   -1.8542638E+00
   1.1642145E-04   8.4913710E+05   -1.8537876E+00
   1.1695910E-04   8.4191620E+05   -1.8533105E+00
   1.1749923E-04   8.3475854E+05   -1.8528324E+00
   1.1804185E-04   8.2766355E+05   -1.8523534E+00
   1.1858698E-04   8.2063068E+05   -1.8518736E+00
   1.1913463E-04   8.1365937E+05   -1.8513928E+00
   1.1968481E-04   8.0674907E+05   -1.8509111E+00
   1.2023752E-04   7.9989923E+05   -1.8504286E+00
   1.2079279E-04   7.9310933E+05   -1.8499451E+00
   1.2135063E-04   7.8637881E+05   -1.8494608E+00
   1.2191104E-04   7.7970715E+05   -1.8489755E+00
   1.2247403E-04   7.7309382E+05   -1.8484894E+00
   1.2303963E-04   7.6653830E+05   -1.8480024E+00
   1.2360784E-04   7.6004008E+05   -1.8475145E+00
   1.2417868E-04   7.5359864E+05   -1.8470257E+00
   1.2475215E-04   7.4721348E+05   -1.8465361E+00
   1.2532826E-04   7.4088409E+05   -1.8460456E+00
   1.2590704E-04   7.3460997E+05   -1.8455542E+00
   1.2648850E-04   7.2839064E+05   -1.8450620E+00
   1.2707263E-04   7.2222560E+05   -1.8445688E+00
   1.2765947E-04   7.1611437E+05   -1.8440749E+00
   1.2824901E-04   7.1005647E+05   -1.8435800E+00
   1.2884128E-04   7.0405143E+05   -1.8430844E+00
   1.2943628E-04   6.9809876E+05   -1.8425878E+00
   1.3003403E-04   6.9219801E+05   -1.8420904E+00
   1.3063454E-04   6.8634871E+05   -1.8415922E+00
   1.3123783E-04   6.8055040E+05   -1.8410931E+00
   1.3184390E-04   6.7480263E+05   -1.8405932E+00
   1.3245277E-04   6.6910494E+05   -1.8400925E+00
   1.3306445E-04   6.6345690E+05   -1.8395909E+00
   1.3367895E-04   6.5785805E+05   -1.8390885E+00
   1.3429630E-04   6.5230796E+05   -1.8385853E+00
   1.3491649E-04   6.4680620E+05   -1.8380812E+00
   1.3553955E-04   6.4135233E+05   -1.8375763E+00
   1.3616548E-04   6.3594593E+05   -1.8370707E+00
   1.3679431E-04   6.3058657E+05   -1.8365642E+00
   1.3742604E-04   6.2527384E+05   -1.8360568E+00
   1.3806069E-04   6.2000732E+05   -1.8355487E+00
   1.3869827E-04   6.1478660E+05   -1.8350398E+00
   1.3933879E-04   6.0961127E+05   -1.8345301E+00
   1.3998227E-04   6.0448093E+05   -1.8340196E+00
   1.4062872E-04   5.9939517E+05   -1.8335083E+00
   1.4127816E-04   5.9435361E+05   -1.8329962E+00
   1.4193060E-04   5.8935584E+05   -1.8324833E+00
   1.4258605E-04   5.8440147E+05   -1.8319697E+00
   1.4324453E-04   5.7949013E+05   -1.8314552E+00
   1.4390605E-04   5.7462143E+05   -1.8309400E+00
   1.4457062E-04   5.6979498E+05   -1.8304241E+00
   1.4523826E-04   5.6501042E+05   -1.8299073E+00
   1.4590899E-04   5.6026737E+05   -1.8293898E+00
   1.4658281E-04   5.5556546E+05   -1.8288716E+00
   1.4725974E-04   5.5090433E+05   -1.8283526E+00
   1.4793981E-04   5.4628361E+05   -1.8278328E+00
   1.4862301E-04   5.4170295E+05   -1.8273123E+00
   1.4930936E-04   5.3716198E+05   -1.8267910E+00
   1.4999889E-04   5.3266036E+05   -1.8262690E+00
   1.5069160E-04   5.2819774E+05   -1.8257463E+00
   1.5138751E-04   5.2377376E+05   -1.8252229E+00
   1.5208663E-04   5.1938810E+05   -1.8246987E+00
   1.5278899E-04   5.1504040E+05   -1.8241738E+00
   1.5349458E-04   5.1073033E+05   -1.8236482E+00
   1.5420343E-04   5.0645755E+05   -1.8231218E+00
   1.5491556E-04   5.0222175E+05   -1.8225948E+00
   1.5563098E-04   4.9802257E+05   -1.8220670E+00
   1.5634970E-04   4.9385971E+05   -1.8215386E+00
   1.5707174E-04   4.8973284E+05   -1.8210094E+00
   1.5779711E-04   4.8564164E+05   -1.8204796E+00
   1.5852584E-04   4.8158580E+05   -1.8199490E+00
   1.5925792E-04   4.7756499E+05   -1.8194178E+00
   1.5999339E-04   4.7357892E+05   -1.8188859E+00
   1.6073226E-04   4.6962726E+05   -1.8183534E+00
   1.6147454E-04   4.6570972E+05   -1.8178201E+00
   1.6222024E-04   4.6182600E+05   -1.8172862E+00
   1.6296939E-04   4.5797580E+05   -1.8167516E+00
   1.6372200E-04   4.5415881E+05   -1.8162164E+00
   1.6447809E-04   4.5037474E+05   -1.8156805E+00
   1.6523767E-04   4.4662331E+05   -1.8151440E+00
   1.6600075E-04   4.4290422E+05   -1.8146068E+00
   1.6676736E-04   4.3921719E+05   -1.8140690E+00
   1.6753751E-04   4.3556193E+05   -1.8135305E+00
   1.6831122E-04   4.3193817E+05   -1.8129914E+00
   1.6908849E-04   4.2834561E+05   -1.8124517E+00
   1.6986936E-04   4.2478400E+05   -1.8119114E+00
   1.7065384E-04   4.2125304E+05   -1.8113704E+00
   1.7144193E-04   4.1775248E+05   -1.8108288E+00
   1.7223367E-04   4.1428204E+05   -1.8102867E+00
   1.7302906E-04   4.1084147E+05   -1.8097439E+00
   1.7382813E-04   4.0743048E+05   -1.8092005E+00
   1.7463089E-04   4.0404883E+05   -1.8086566E+00
   1.7543735E-04   4.0069624E+05   -1.8081120E+00
   1.7624754E-04   3.9737248E+05   -1.8075669E+00
   1.7706147E-04   3.9407727E+05   -1.8070211E+00
   1.7787916E-04   3.9081038E+05   -1.8064748E+00
   1.7870062E-04   3.8757154E+05   -1.8059280E+00
   1.7952588E-04   3.8436051E+05   -1.8053806E+00
   1.8035495E-04   3.8117705E+05   -1.8048326E+00
   1.8118785E-04   3.7802091E+05   -1.8042840E+00
   1.8202459E-04   3.7489184E+05   -1.8037349E+00
   1.8286520E-04   3.7178963E+05   -1.8031853E+00
   1.8370969E-04   3.6871401E+05   -1.8026351E+00
   1.8455808E-04   3.6566477E+05   -1.8020844E+00
   1.8541039E-04   3.6264167E+05   -1.8015332E+00
   1.8626663E-04   3.5964447E+05   -1.8009814E+00
   1.8712683E-04   3.5667295E+05   -1.8004291E+00
   1.8799100E-04   3.5372688E+05   -1.7998763E+00
   1.8885917E-04   3.5080604E+05   -1.7993230E+00
   1.8973134E-04   3.4791021E+05   -1.7987692E+00
   1.9060754E-04   3.4503916E+05   -1.7982149E+00
   1.9148778E-04   3.4219268E+05   -1.7976601E+00
   1.9237209E-04   3.3937055E+05   -1.7971049E+00
   1.9326049E-04   3.3657256E+05   -1.7965491E+00
   1.9415299E-04   3.3379848E+05   -1.7959928E+00
   1.9504960E-04   3.3104813E+05   -1.7954361E+00
   1.9595036E-04   3.2832127E+05   -1.7948789E+00
   1.9685528E-04   3.2561772E+05   -1.7943213E+00
   1.9776438E-04   3.2293726E+05   -1.7937632E+00
   1.9867768E-04   3.2027968E+05   -1.7932046E+00
   1.9959519E-04   3.1764480E+05   -1.7926456E+00
   2.0051694E-04   3.1503240E+05   -1.7920862E+00
   2.0144295E-04   3.1244229E+05   -1.7915263E+00
   2.0237324E-04   3.0987428E+05   -1.7909660E+00
   2.0330782E-04   3.0732817E+05   -1.7904053E+00
   2.0424671E-04   3.0480376E+05   -1.7898442E+00
   2.0518995E-04   3.0230088E+05   -1.7892826E+00
   2.0613754E-04   2.9981932E+05   -1.7887207E+00
   2.0708950E-04   2.9735890E+05   -1.7881583E+00
   2.0804586E-04   2.9491944E+05   -1.7875955E+00
   2.0900664E-04   2.9250075E+05   -1.7870324E+00
   2.0997185E-04   2.9010265E+05   -1.7864689E+00
   2.1094152E-04   2.8772496E+05   -1.7859049E+00
   2.1191567E-04   2.8536750E+05   -1.7853407E+00
   2.1289432E-04   2.8303009E+05   -1.7847760E+00
   2.1387749E-04   2.8071255E+05   -1.7842110E+00
   2.1486520E-04   2.7841472E+05   -1.7836456E+00
   2.1585747E-04   2.7613641E+05   -1.7830799E+00
   2.1685432E-04   2.7387747E+05   -1.7825138E+00
   2.1785578E-04   2.7163771E+05   -1.7819474E+00
   2.1886186E-04   2.6941697E+05   -1.7813807E+00
   2.1987259E-04   2.6721508E+05   -1.7808136E+00
   2.2088798E-04   2.6503189E+05   -1.7802462E+00
   2.2190807E-04   2.6286722E+05   -1.7796785E+00
   2.2293286E-04   2.6072091E+05   -1.7791105E+00
   2.2396239E-04   2.5859280E+05   -1.7785421E+00
   2.2499667E-04   2.5648273E+05   -1.7779735E+00
   2.2603573E-04   2.5439055E+05   -1.7774046E+00
   2.2707958E-04   2.5231610E+05   -1.7768354E+00
   2.2812826E-04   2.5025921E+05   -1.7762659E+00
   2.2918178E-04   2.4821975E+05   -1.7756961E+00
   2.3024017E-04   2.4619756E+05   -1.7751261E+00
   2.3130344E-04   2.4419248E+05   -1.7745558E+00
   2.3237162E-04   2.4220436E+05   -1.7739852E+00
   2.3344474E-04   2.4023307E+05   -1.7734144E+00
   2.3452281E-04   2.3827845E+05   -1.7728434E+00
   2.3560586E-04   2.3634035E+05   -1.7722721E+00
   2.3669392E-04   2.3441863E+05   -1.7717005E+00
   2.3778699E-04   2.3251315E+05   -1.7711288E+00
   2.3888512E-04   2.3062377E+05   -1.7705568E+00
   2.3998831E-04   2.2875034E+05   -1.7699846E+00
   2.4109661E-04   2.2689273E+05   -1.7694122E+00
   2.4221001E-04   2.2505080E+05   -1.7688396E+00
   2.4332857E-04   2.2322441E+05   -1.7682667E+00
   2.4445228E-04   2.2141343E+05   -1.7676937E+00
   2.4558119E-04   2.1961772E+05   -1.7671205E+00
   2.4671531E-04   2.1783715E+05   -1.7665471E+00
   2.4785467E-04   2.1607158E+05   -1.7659736E+00
   2.4899928E-04   2.1432089E+05   -1.7653999E+00
   2.5014919E-04   2.1258495E+05   -1.7648260E+00
   2.5130440E-04   2.1086363E+05   -1.7642519E+00
   2.5246495E-04   2.0915680E+05   -1.7636777E+00
   2.5363086E-04   2.0746433E+05   -1.7631034E+00
   2.5480216E-04   2.0578610E+05   -1.7625289E+00
   2.5597886E-04   2.0412199E+05   -1.7619543E+00
   2.5716100E-04   2.0247187E+05   -1.7613796E+00
   2.5834859E-04   2.0083563E+05   -1.7608047E+00
   2.5954168E-04   1.9921313E+05   -1.7602297E+00
   2.6074027E-04   1.9760426E+05   -1.7596546E+00
   2.6194439E-04   1.9600891E+05   -1.7590794E+00
   2.6315408E-04   1.9442695E+05   -1.7585041E+00
   2.6436935E-04   1.9285828E+05   -1.7579288E+00
   2.6559024E-04   1.9130276E+05   -1.7573533E+00
   2.6681676E-04   1.8976030E+05   -1.7567778E+00
   2.6804895E-04   1.8823077E+05   -1.7562022E+00
   2.6928683E-04   1.8671406E+05   -1.7556265E+00
   2.7053042E-04   1.8521007E+05   -1.7550507E+00
   2.7177976E-04   1.8371868E+05   -1.7544750E+00
   2.7303487E-04   1.8223978E+05   -1.7538991E+00
   2.7429577E-04   1.8077327E+05   -1.7533232E+00
   2.7556250E-04   1.7931903E+05   -1.7527473E+00
   2.7683507E-04   1.7787697E+05   -1.7521714E+00
   2.7811353E-04   1.7644697E+05   -1.7515954E+00
   2.7939788E-04   1.7502893E+05   -1.7510194E+00
   2.8068817E-04   1.7362274E+05   -1.7504434E+00
   2.8198442E-04   1.7222831E+05   -1.7498674E+00
   2.8328665E-04   1.7084554E+05   -1.7492914E+00
   2.8459490E-04   1.6947431E+05   -1.7487154E+00
   2.8590919E-04   1.6811454E+05   -1.7481394E+00
   2.8722955E-04   1.6676612E+05   -1.7475635E+00
   2.8855600E-04   1.6542896E+05   -1.7469875E+00
   2.8988859E-04   1.6410295E+05   -1.7464116E+00
   2.9122732E-04   1.6278800E+05   -1.7458357E+00
   2.9257224E-04   1.6148402E+05   -1.7452599E+00
   2.9392337E-04   1.6019091E+05   -1.7446841E+00
   2.9528074E-04   1.5890857E+05   -1.7441084E+00
   2.9664438E-04   1.5763692E+05   -1.7435328E+00
   2.9801431E-04   1.5637586E+05   -1.7429572E+00
   2.9939057E-04   1.5512529E+05   -1.7423816E+00
   3.0077319E-04   1.5388514E+05   -1.7418062E+00
   3.0216219E-04   1.5265531E+05   -1.7412309E+00
   3.0355761E-04   1.5143570E+05   -1.7406556E+00
   3.0495947E-04   1.5022624E+05   -1.7400804E+00
   3.0636780E-04   1.4902683E+05   -1.7395054E+00
   3.0778264E-04   1.4783739E+05   -1.7389304E+00
   3.0920401E-04   1.4665784E+05   -1.7383556E+00
   3.1063195E-04   1.4548808E+05   -1.7377809E+00
   3.1206648E-04   1.4432803E+05   -1.7372063E+00
   3.1350764E-04   1.4317761E+05   -1.7366319E+00
   3.1495545E-04   1.4203673E+05   -1.7360576E+00
   3.1640994E-04   1.4090532E+05   -1.7354834E+00
   3.1787116E-04   1.3978329E+05   -1.7349094E+00
   3.1933912E-04   1.3867056E+05   -1.7343356E+00
   3.2081386E-04   1.3756706E+05   -1.7337619E+00
   3.2229541E-04   1.3647270E+05   -1.7331884E+00
   3.2378381E-04   1.3538739E+05   -1.7326151E+00
   3.2527908E-04   1.3431108E+05   -1.7320420E+00
   3.2678125E-04   1.3324367E+05   -1.7314690E+00
   3.2829036E-04   1.3218510E+05   -1.7308962E+00
   3.2980644E-04   1.3113528E+05   -1.7303237E+00
   3.3132952E-04   1.3009414E+05   -1.7297513E+00
   3.3285963E-04   1.2906161E+05   -1.7291792E+00
   3.3439681E-04   1.2803761E+05   -1.7286073E+00
   3.3594109E-04   1.2702207E+05   -1.7280356E+00
   3.3749250E-04   1.2601492E+05   -1.7274641E+00
   3.3905108E-04   1.2501608E+05   -1.7268929E+00
   3.4061685E-04   1.2402549E+05   -1.7263219E+00
   3.4218986E-04   1.2304306E+05   -1.7257512E+00
   3.4377013E-04   1.2206875E+05   -1.7251807E+00
   3.4535769E-04   1.2110246E+05   -1.7246105E+00
   3.4695259E-04   1.2014414E+05   -1.7240405E+00
   3.4855485E-04   1.1919371E+05   -1.7234708E+00
   3.5016452E-04   1.1825112E+05   -1.7229014E+00
   3.5178161E-04   1.1731628E+05   -1.7223323E+00
   3.5340618E-04   1.1638915E+05   -1.7217635E+00
   3.5503824E-04   1.1546964E+05   -1.7211949E+00
   3.5667785E-04   1.1455769E+05   -1.7206267E+00
   3.5832502E-04   1.1365325E+05   -1.7200588E+00
   3.5997981E-04   1.1275624E+05   -1.7194911E+00
   3.6164223E-04   1.1186660E+05   -1.7189238E+00
   3.6331233E-04   1.1098427E+05   -1.7183569E+00
   3.6499015E-04   1.1010919E+05   -1.7177902E+00
   3.6667571E-04   1.0924130E+05   -1.7172239E+00
   3.6836906E-04   1.0838052E+05   -1.7166579E+00
   3.7007022E-04   1.0752681E+05   -1.7160923E+00
   3.7177925E-04   1.0668011E+05   -1.7155271E+00
   3.7349616E-04   1.0584034E+05   -1.7149621E+00
   3.7522101E-04   1.0500746E+05   -1.7143976E+00
   3.7695382E-04   1.0418141E+05   -1.7138334E+00
   3.7869463E-04   1.0336212E+05   -1.7132696E+00
   3.8044348E-04   1.0254954E+05   -1.7127062E+00
   3.8220041E-04   1.0174361E+05   -1.7121432E+00
   3.8396545E-04   1.0094428E+05   -1.7115805E+00
   3.8573864E-04   1.0015149E+05   -1.7110183E+00
   3.8752002E-04   9.9365178E+04   -1.7104564E+00
   3.8930963E-04   9.8585298E+04   -1.7098950E+00
   3.9110750E-04   9.7811791E+04   -1.7093340E+00
   3.9291368E-04   9.7044605E+04   -1.7087734E+00
   3.9472820E-04   9.6283684E+04   -1.7082132E+00
   3.9655109E-04   9.5528976E+04   -1.7076535E+00
   3.9838241E-04   9.4780428E+04   -1.7070942E+00
   4.0022218E-04   9.4037988E+04   -1.7065353E+00
   4.0207045E-04   9.3301604E+04   -1.7059769E+00
   4.0392725E-04   9.2571225E+04   -1.7054189E+00
   4.0579263E-04   9.1846799E+04   -1.7048614E+00
   4.0766662E-04   9.1128276E+04   -1.7043043E+00
   4.0954927E-04   9.0415606E+04   -1.7037478E+00
   4.1144061E-04   8.9708739E+04   -1.7031917E+00
   4.1334068E-04   8.9007627E+04   -1.7026360E+00
   4.1524953E-04   8.8312220E+04   -1.7020809E+00
   4.1716720E-04   8.7622470E+04   -1.7015262E+00
   4.1909372E-04   8.6938330E+04   -1.7009721E+00
   4.2102914E-04   8.6259751E+04   -1.7004184E+00
   4.2297350E-04   8.5586687E+04   -1.6998653E+00
   4.2492683E-04   8.4919091E+04   -1.6993126E+00
   4.2688919E-04   8.4256917E+04   -1.6987605E+00
   4.2886061E-04   8.3600119E+04   -1.6982089E+00
   4.3084113E-04   8.2948651E+04   -1.6976578E+00
   4.3283080E-04   8.2302470E+04   -1.6971072E+00
   4.3482966E-04   8.1661529E+04   -1.6965572E+00
   4.3683775E-04   8.1025784E+04   -1.6960078E+00
   4.3885511E-04   8.0395193E+04   -1.6954588E+00
   4.4088179E-04   7.9769710E+04   -1.6949104E+00
   4.4291783E-04   7.9149294E+04   -1.6943626E+00
   4.4496327E-04   7.8533902E+04   -1.6938154E+00
   4.4701816E-04   7.7923490E+04   -1.6932687E+00
   4.4908253E-04   7.7318017E+04   -1.6927225E+00
   4.5115644E-04   7.6717442E+04   -1.6921770E+00
   4.5323993E-04   7.6121724E+04   -1.6916320E+00
   4.5533304E-04   7.5530821E+04   -1.6910876E+00
   4.5743582E-04   7.4944692E+04   -1.6905438E+00
   4.5954830E-04   7.4363299E+04   -1.6900006E+00
   4.6167054E-04   7.3786600E+04   -1.6894580E+00
   4.6380259E-04   7.3214556E+04   -1.6889160E+00
   4.6594448E-04   7.2647129E+04   -1.6883746E+00
   4.6809626E-04   7.2084279E+04   -1.6878338E+00
   4.7025797E-04   7.1525967E+04   -1.6872937E+00
   4.7242967E-04   7.0972157E+04   -1.6867541E+00
   4.7461140E-04   7.0422810E+04   -1.6862152E+00
   4.7680321E-04   6.9877888E+04   -1.6856770E+00
   4.7900514E-04   6.9337354E+04   -1.6851393E+00
   4.8121723E-04   6.8801172E+04   -1.6846023E+00
   4.8343954E-04   6.8269306E+04   -1.6840660E+00
   4.8567212E-04   6.7741718E+04   -1.6835303E+00
   4.8791500E-04   6.7218373E+04   -1.6829952E+00
   4.9016825E-04   6.6699236E+04   -1.6824608E+00
   4.9243189E-04   6.6184271E+04   -1.6819271E+00
   4.9470600E-04   6.5673443E+04   -1.6813941E+00
   4.9699060E-04   6.5166717E+04   -1.6808617E+00
   4.9928575E-04   6.4664061E+04   -1.6803300E+00
   5.0159151E-04   6.4165438E+04   -1.6797989E+00
   5.0390791E-04   6.3670816E+04   -1.6792686E+00
   5.0623501E-04   6.3180161E+04   -1.6787390E+00
   5.0857286E-04   6.2693440E+04   -1.6782100E+00
   5.1092150E-04   6.2210620E+04   -1.6776817E+00
   5.1328099E-04   6.1731668E+04   -1.6771542E+00
   5.1565137E-04   6.1256553E+04   -1.6766273E+00
   5.1803270E-04   6.0785242E+04   -1.6761012E+00
   5.2042503E-04   6.0317703E+04   -1.6755758E+00
   5.2282841E-04   5.9853906E+04   -1.6750511E+00
   5.2524289E-04   5.9393818E+04   -1.6745271E+00
   5.2766851E-04   5.8937408E+04   -1.6740039E+00
   5.3010534E-04   5.8484647E+04   -1.6734813E+00
   5.3255342E-04   5.8035504E+04   -1.6729595E+00
   5.3501281E-04   5.7589948E+04   -1.6724385E+00
   5.3748356E-04   5.7147950E+04   -1.6719182E+00
   5.3996571E-04   5.6709480E+04   -1.6713986E+00
   5.4245933E-04   5.6274509E+04   -1.6708798E+00
   5.4496446E-04   5.5843008E+04   -1.6703618E+00
   5.4748117E-04   5.5414948E+04   -1.6698445E+00
   5.5000949E-04   5.4990300E+04   -1.6693280E+00
   5.5254949E-04   5.4569035E+04   -1.6688122E+00
   5.5510123E-04   5.4151127E+04   -1.6682972E+00
   5.5766474E-04   5.3736546E+04   -1.6677830E+00
   5.6024010E-04   5.3325266E+04   -1.6672696E+00
   5.6282734E-04   5.2917258E+04   -1.6667569E+00
   5.6542654E-04   5.2512497E+04   -1.6662450E+00
   5.6803774E-04   5.2110954E+04   -1.6657339E+00
   5.7066099E-04   5.1712603E+04   -1.6652236E+00
   5.7329637E-04   5.1317417E+04   -1.6647141E+00
   5.7594391E-04   5.0925372E+04   -1.6642054E+00
   5.7860368E-04   5.0536439E+04   -1.6636975E+00
   5.8127573E-04   5.0150595E+04   -1.6631904E+00
   5.8396012E-04   4.9767812E+04   -1.6626842E+00
   5.8665691E-04   4.9388067E+04   -1.6621787E+00
   5.8936616E-04   4.9011332E+04   -1.6616740E+00
   5.9208791E-04   4.8637585E+04   -1.6611702E+00
   5.9482223E-04   4.8266800E+04   -1.6606672E+00
   5.9756919E-04   4.7898952E+04   -1.6601650E+00
   6.0032882E-04   4.7534018E+04   -1.6596637E+00
   6.0310120E-04   4.7171972E+04   -1.6591631E+00
   6.0588639E-04   4.6812792E+04   -1.6586635E+00
   6.0868443E-04   4.6456454E+04   -1.6581646E+00
   6.1149540E-04   4.6102935E+04   -1.6576666E+00
   6.1431935E-04   4.5752210E+04   -1.6571694E+00
   6.1715634E-04   4.5404257E+04   -1.6566731E+00
   6.2000644E-04   4.5059054E+04   -1.6561777E+00
   6.2286969E-04   4.4716577E+04   -1.6556831E+00
