#        a       HoverH0(a)       dlogHdloga_of_a(a)
   1.0000000E-04   1.2156664E+06   -1.8781185E+00
   1.0046181E-04   1.2051934E+06   -1.8776933E+00
   1.0092575E-04   1.1948129E+06   -1.8772671E+00
   1.0139184E-04   1.1845241E+06   -1.8768399E+00
   1.0186008E-04   1.1743263E+06   -1.8764117E+00
   1.0233048E-04   1.1642185E+06   -1.8759825E+00
   1.0280305E-04   1.1542001E+06   -1.8755524E+00
   1.0327781E-04   1.1442701E+06   -1.8751212E+00
   1.0375475E-04   1.1344278E+06   -1.8746890E+00
   1.0423390E-04   1.1246724E+06   -1.8742558E+00
   1.0471527E-04   1.1150031E+06   -1.8738216E+00
   1.0519885E-04   1.1054192E+06   -1.8733865E+00
   1.0568467E-04   1.0959199E+06   -1.8729503E+00
   1.0617274E-04   1.0865043E+06   -1.8725132E+00
   1.0666305E-04   1.0771719E+06   -1.8720750E+00
   1.0715563E-04   1.0679217E+06   -1.8716359E+00
   1.0765049E-04   1.0587531E+06   -1.8711958E+00
   1.0814763E-04   1.0496654E+06   -1.8707547E+00
   1.0864707E-04   1.0406578E+06   -1.8703127E+00
   1.0914881E-04   1.0317296E+06   -1.8698696E+00
   1.0965287E-04   1.0228801E+06   -1.8694256E+00
   1.1015926E-04   1.0141086E+06   -1.8689806E+00
   1.1066799E-04   1.0054143E+06   -1.8685346E+00
   1.1117906E-04   9.9679667E+05   -1.8680876E+00
   1.1169250E-04   9.8825491E+05   -1.8676397E+00
   1.1220831E-04   9.7978838E+05   -1.8671908E+00
   1.1272650E-04   9.7139638E+05   -1.8667409E+00
   1.1324708E-04   9.6307827E+05   -1.8662900E+00
   1.1377007E-04   9.5483337E+05   -1.8658382E+00
   1.1429547E-04   9.4666103E+05   -1.8653854E+00
   1.1482330E-04   9.3856060E+05   -1.8649317E+00
   1.1535356E-04   9.3053142E+05   -1.8644770E+00
   1.1588628E-04   9.2257287E+05   -1.8640213E+00
   1.1642145E-04   9.1468431E+05   -1.8635647E+00
   1.1695910E-04   9.0686511E+05   -1.8631071E+00
   1.1749923E-04   8.9911465E+05   -1.8626485E+00
   1.1804185E-04   8.9143231E+05   -1.8621891E+00
   1.1858698E-04   8.8381749E+05   -1.8617286E+00
   1.1913463E-04   8.7626957E+05   -1.8612672E+00
   1.1968481E-04   8.6878797E+05   -1.8608049E+00
   1.2023752E-04   8.6137208E+05   -1.8603416E+00
   1.2079279E-04   8.5402131E+05   -1.8598774E+00
   1.2135063E-04   8.4673509E+05   -1.8594122E+00
   1.2191104E-04   8.3951284E+05   -1.8589461E+00
   1.2247403E-04   8.3235397E+05   -1.8584790E+00
   1.2303963E-04   8.2525793E+05   -1.8580110E+00
   1.2360784E-04   8.1822415E+05   -1.8575421E+00
   1.2417868E-04   8.1125208E+05   -1.8570723E+00
   1.2475215E-04   8.0434116E+05   -1.8566015E+00
   1.2532826E-04   7.9749084E+05   -1.8561298E+00
   1.2590704E-04   7.9070058E+05   -1.8556572E+00
   1.2648850E-04   7.8396985E+05   -1.8551836E+00
   1.2707263E-04   7.7729811E+05   -1.8547092E+00
   1.2765947E-04   7.7068483E+05   -1.8542338E+00
   1.2824901E-04   7.6412950E+05   -1.8537575E+00
   1.2884128E-04   7.5763159E+05   -1.8532803E+00
   1.2943628E-04   7.5119059E+05   -1.8528022E+00
   1.3003403E-04   7.4480599E+05   -1.8523232E+00
   1.3063454E-04   7.3847728E+05   -1.8518432E+00
   1.3123783E-04   7.3220398E+05   -1.8513624E+00
   1.3184390E-04   7.2598557E+05   -1.8508807E+00
   1.3245277E-04   7.1982157E+05   -1.8503981E+00
   1.3306445E-04   7.1371150E+05   -1.8499145E+00
   1.3367895E-04   7.0765487E+05   -1.8494301E+00
   1.3429630E-04   7.0165120E+05   -1.8489448E+00
   1.3491649E-04   6.9570002E+05   -1.8484586E+00
   1.3553955E-04   6.8980087E+05   -1.8479716E+00
   1.3616548E-04   6.8395328E+05   -1.8474836E+00
   1.3679431E-04   6.7815678E+05   -1.8469948E+00
   1.3742604E-04   6.7241093E+05   -1.8465051E+00
   1.3806069E-04   6.6671526E+05   -1.8460145E+00
   1.3869827E-04   6.6106933E+05   -1.8455231E+00
   1.3933879E-04   6.5547270E+05   -1.8450308E+00
   1.3998227E-04   6.4992493E+05   -1.8445376E+00
   1.4062872E-04   6.4442558E+05   -1.8440436E+00
   1.4127816E-04   6.3897421E+05   -1.8435487E+00
   1.4193060E-04   6.3357041E+05   -1.8430529E+00
   1.4258605E-04   6.2821374E+05   -1.8425564E+00
   1.4324453E-04   6.2290379E+05   -1.8420589E+00
   1.4390605E-04   6.1764014E+05   -1.8415606E+00
   1.4457062E-04   6.1242237E+05   -1.8410615E+00
   1.4523826E-04   6.0725008E+05   -1.8405615E+00
   1.4590899E-04   6.0212286E+05   -1.8400607E+00
   1.4658281E-04   5.9704032E+05   -1.8395591E+00
   1.4725974E-04   5.9200204E+05   -1.8390566E+00
   1.4793981E-04   5.8700764E+05   -1.8385533E+00
   1.4862301E-04   5.8205673E+05   -1.8380492E+00
   1.4930936E-04   5.7714891E+05   -1.8375443E+00
   1.4999889E-04   5.7228381E+05   -1.8370386E+00
   1.5069160E-04   5.6746104E+05   -1.8365320E+00
   1.5138751E-04   5.6268023E+05   -1.8360246E+00
   1.5208663E-04   5.5794100E+05   -1.8355165E+00
   1.5278899E-04   5.5324298E+05   -1.8350075E+00
   1.5349458E-04   5.4858582E+05   -1.8344977E+00
   1.5420343E-04   5.4396913E+05   -1.8339872E+00
   1.5491556E-04   5.3939257E+05   -1.8334758E+00
   1.5563098E-04   5.3485577E+05   -1.8329637E+00
   1.5634970E-04   5.3035838E+05   -1.8324507E+00
   1.5707174E-04   5.2590006E+05   -1.8319370E+00
   1.5779711E-04   5.2148044E+05   -1.8314225E+00
   1.5852584E-04   5.1709920E+05   -1.8309073E+00
   1.5925792E-04   5.1275598E+05   -1.8303912E+00
   1.5999339E-04   5.0845045E+05   -1.8298745E+00
   1.6073226E-04   5.0418227E+05   -1.8293569E+00
   1.6147454E-04   4.9995112E+05   -1.8288386E+00
   1.6222024E-04   4.9575666E+05   -1.8283195E+00
   1.6296939E-04   4.9159857E+05   -1.8277997E+00
   1.6372200E-04   4.8747652E+05   -1.8272791E+00
   1.6447809E-04   4.8339020E+05   -1.8267578E+00
   1.6523767E-04   4.7933928E+05   -1.8262358E+00
   1.6600075E-04   4.7532345E+05   -1.8257130E+00
   1.6676736E-04   4.7134241E+05   -1.8251895E+00
   1.6753751E-04   4.6739583E+05   -1.8246653E+00
   1.6831122E-04   4.6348342E+05   -1.8241403E+00
   1.6908849E-04   4.5960487E+05   -1.8236147E+00
   1.6986936E-04   4.5575988E+05   -1.8230883E+00
   1.7065384E-04   4.5194816E+05   -1.8225612E+00
   1.7144193E-04   4.4816940E+05   -1.8220334E+00
   1.7223367E-04   4.4442332E+05   -1.8215049E+00
   1.7302906E-04   4.4070963E+05   -1.8209757E+00
   1.7382813E-04   4.3702803E+05   -1.8204458E+00
   1.7463089E-04   4.3337825E+05   -1.8199152E+00
   1.7543735E-04   4.2976000E+05   -1.8193839E+00
   1.7624754E-04   4.2617301E+05   -1.8188520E+00
   1.7706147E-04   4.2261699E+05   -1.8183194E+00
   1.7787916E-04   4.1909167E+05   -1.8177861E+00
   1.7870062E-04   4.1559677E+05   -1.8172521E+00
   1.7952588E-04   4.1213204E+05   -1.8167175E+00
   1.8035495E-04   4.0869720E+05   -1.8161822E+00
   1.8118785E-04   4.0529199E+05   -1.8156463E+00
   1.8202459E-04   4.0191614E+05   -1.8151097E+00
   1.8286520E-04   3.9856939E+05   -1.8145724E+00
   1.8370969E-04   3.9525150E+05   -1.8140346E+00
   1.8455808E-04   3.9196219E+05   -1.8134961E+00
   1.8541039E-04   3.8870123E+05   -1.8129569E+00
   1.8626663E-04   3.8546835E+05   -1.8124172E+00
   1.8712683E-04   3.8226331E+05   -1.8118768E+00
   1.8799100E-04   3.7908587E+05   -1.8113358E+00
   1.8885917E-04   3.7593577E+05   -1.8107942E+00
   1.8973134E-04   3.7281278E+05   -1.8102520E+00
   1.9060754E-04   3.6971666E+05   -1.8097091E+00
   1.9148778E-04   3.6664717E+05   -1.8091657E+00
   1.9237209E-04   3.6360407E+05   -1.8086217E+00
   1.9326049E-04   3.6058714E+05   -1.8080771E+00
   1.9415299E-04   3.5759613E+05   -1.8075319E+00
   1.9504960E-04   3.5463083E+05   -1.8069862E+00
   1.9595036E-04   3.5169100E+05   -1.8064398E+00
   1.9685528E-04   3.4877642E+05   -1.8058929E+00
   1.9776438E-04   3.4588686E+05   -1.8053454E+00
   1.9867768E-04   3.4302211E+05   -1.8047974E+00
   1.9959519E-04   3.4018195E+05   -1.8042488E+00
   2.0051694E-04   3.3736616E+05   -1.8036997E+00
   2.0144295E-04   3.3457452E+05   -1.8031500E+00
   2.0237324E-04   3.3180682E+05   -1.8025998E+00
   2.0330782E-04   3.2906285E+05   -1.8020491E+00
   2.0424671E-04   3.2634240E+05   -1.8014978E+00
   2.0518995E-04   3.2364526E+05   -1.8009460E+00
   2.0613754E-04   3.2097124E+05   -1.8003937E+00
   2.0708950E-04   3.1832011E+05   -1.7998408E+00
   2.0804586E-04   3.1569169E+05   -1.7992875E+00
   2.0900664E-04   3.1308577E+05   -1.7987336E+00
   2.0997185E-04   3.1050216E+05   -1.7981793E+00
   2.1094152E-04   3.0794065E+05   -1.7976244E+00
   2.1191567E-04   3.0540105E+05   -1.7970691E+00
   2.1289432E-04   3.0288317E+05   -1.7965133E+00
   2.1387749E-04   3.0038682E+05   -1.7959570E+00
   2.1486520E-04   2.9791181E+05   -1.7954003E+00
   2.1585747E-04   2.9545795E+05   -1.7948431E+00
   2.1685432E-04   2.9302506E+05   -1.7942854E+00
   2.1785578E-04   2.9061294E+05   -1.7937272E+00
   2.1886186E-04   2.8822142E+05   -1.7931686E+00
   2.1987259E-04   2.8585032E+05   -1.7926096E+00
   2.2088798E-04   2.8349946E+05   -1.7920501E+00
   2.2190807E-04   2.8116866E+05   -1.7914902E+00
   2.2293286E-04   2.7885773E+05   -1.7909299E+00
   2.2396239E-04   2.7656652E+05   -1.7903691E+00
   2.2499667E-04   2.7429484E+05   -1.7898080E+00
   2.2603573E-04   2.7204252E+05   -1.7892464E+00
   2.2707958E-04   2.6980940E+05   -1.7886844E+00
   2.2812826E-04   2.6759529E+05   -1.7881220E+00
   2.2918178E-04   2.6540005E+05   -1.7875592E+00
   2.3024017E-04   2.6322350E+05   -1.7869960E+00
   2.3130344E-04   2.6106548E+05   -1.7864324E+00
   2.3237162E-04   2.5892582E+05   -1.7858685E+00
   2.3344474E-04   2.5680436E+05   -1.7853042E+00
   2.3452281E-04   2.5470095E+05   -1.7847395E+00
   2.3560586E-04   2.5261543E+05   -1.7841744E+00
   2.3669392E-04   2.5054763E+05   -1.7836090E+00
   2.3778699E-04   2.4849741E+05   -1.7830433E+00
   2.3888512E-04   2.4646461E+05   -1.7824772E+00
   2.3998831E-04   2.4444907E+05   -1.7819107E+00
   2.4109661E-04   2.4245065E+05   -1.7813439E+00
   2.4221001E-04   2.4046919E+05   -1.7807768E+00
   2.4332857E-04   2.3850456E+05   -1.7802094E+00
   2.4445228E-04   2.3655659E+05   -1.7796417E+00
   2.4558119E-04   2.3462514E+05   -1.7790736E+00
   2.4671531E-04   2.3271008E+05   -1.7785053E+00
   2.4785467E-04   2.3081125E+05   -1.7779366E+00
   2.4899928E-04   2.2892851E+05   -1.7773677E+00
   2.5014919E-04   2.2706173E+05   -1.7767984E+00
   2.5130440E-04   2.2521076E+05   -1.7762289E+00
   2.5246495E-04   2.2337547E+05   -1.7756591E+00
   2.5363086E-04   2.2155571E+05   -1.7750890E+00
   2.5480216E-04   2.1975136E+05   -1.7745187E+00
   2.5597886E-04   2.1796227E+05   -1.7739481E+00
   2.5716100E-04   2.1618832E+05   -1.7733773E+00
   2.5834859E-04   2.1442937E+05   -1.7728062E+00
   2.5954168E-04   2.1268529E+05   -1.7722349E+00
   2.6074027E-04   2.1095595E+05   -1.7716633E+00
   2.6194439E-04   2.0924123E+05   -1.7710915E+00
   2.6315408E-04   2.0754098E+05   -1.7705195E+00
   2.6436935E-04   2.0585510E+05   -1.7699473E+00
   2.6559024E-04   2.0418345E+05   -1.7693749E+00
   2.6681676E-04   2.0252591E+05   -1.7688022E+00
   2.6804895E-04   2.0088236E+05   -1.7682294E+00
   2.6928683E-04   1.9925267E+05   -1.7676563E+00
   2.7053042E-04   1.9763672E+05   -1.7670831E+00
   2.7177976E-04   1.9603439E+05   -1.7665097E+00
   2.7303487E-04   1.9444557E+05   -1.7659361E+00
   2.7429577E-04   1.9287014E+05   -1.7653624E+00
   2.7556250E-04   1.9130798E+05   -1.7647885E+00
   2.7683507E-04   1.8975897E+05   -1.7642144E+00
   2.7811353E-04   1.8822300E+05   -1.7636402E+00
   2.7939788E-04   1.8669996E+05   -1.7630658E+00
   2.8068817E-04   1.8518973E+05   -1.7624913E+00
   2.8198442E-04   1.8369221E+05   -1.7619167E+00
   2.8328665E-04   1.8220727E+05   -1.7613419E+00
   2.8459490E-04   1.8073482E+05   -1.7607670E+00
   2.8590919E-04   1.7927475E+05   -1.7601920E+00
   2.8722955E-04   1.7782694E+05   -1.7596169E+00
   2.8855600E-04   1.7639129E+05   -1.7590417E+00
   2.8988859E-04   1.7496769E+05   -1.7584664E+00
   2.9122732E-04   1.7355604E+05   -1.7578910E+00
   2.9257224E-04   1.7215624E+05   -1.7573155E+00
   2.9392337E-04   1.7076819E+05   -1.7567400E+00
   2.9528074E-04   1.6939177E+05   -1.7561643E+00
   2.9664438E-04   1.6802689E+05   -1.7555886E+00
   2.9801431E-04   1.6667345E+05   -1.7550129E+00
   2.9939057E-04   1.6533136E+05   -1.7544371E+00
   3.0077319E-04   1.6400050E+05   -1.7538612E+00
   3.0216219E-04   1.6268079E+05   -1.7532853E+00
   3.0355761E-04   1.6137213E+05   -1.7527094E+00
   3.0495947E-04   1.6007442E+05   -1.7521334E+00
   3.0636780E-04   1.5878757E+05   -1.7515574E+00
   3.0778264E-04   1.5751148E+05   -1.7509814E+00
   3.0920401E-04   1.5624605E+05   -1.7504054E+00
   3.1063195E-04   1.5499121E+05   -1.7498294E+00
   3.1206648E-04   1.5374685E+05   -1.7492534E+00
   3.1350764E-04   1.5251289E+05   -1.7486774E+00
   3.1495545E-04   1.5128924E+05   -1.7481014E+00
   3.1640994E-04   1.5007580E+05   -1.7475254E+00
   3.1787116E-04   1.4887248E+05   -1.7469494E+00
   3.1933912E-04   1.4767921E+05   -1.7463735E+00
   3.2081386E-04   1.4649589E+05   -1.7457976E+00
   3.2229541E-04   1.4532244E+05   -1.7452218E+00
   3.2378381E-04   1.4415877E+05   -1.7446460E+00
   3.2527908E-04   1.4300480E+05   -1.7440703E+00
   3.2678125E-04   1.4186044E+05   -1.7434946E+00
   3.2829036E-04   1.4072561E+05   -1.7429190E+00
   3.2980644E-04   1.3960023E+05   -1.7423435E+00
   3.3132952E-04   1.3848422E+05   -1.7417680E+00
   3.3285963E-04   1.3737749E+05   -1.7411927E+00
   3.3439681E-04   1.3627997E+05   -1.7406174E+00
   3.3594109E-04   1.3519157E+05   -1.7400422E+00
   3.3749250E-04   1.3411223E+05   -1.7394672E+00
   3.3905108E-04   1.3304185E+05   -1.7388922E+00
   3.4061685E-04   1.3198036E+05   -1.7383174E+00
   3.4218986E-04   1.3092770E+05   -1.7377427E+00
   3.4377013E-04   1.2988377E+05   -1.7371681E+00
   3.4535769E-04   1.2884850E+05   -1.7365936E+00
   3.4695259E-04   1.2782183E+05   -1.7360193E+00
   3.4855485E-04   1.2680367E+05   -1.7354452E+00
   3.5016452E-04   1.2579396E+05   -1.7348711E+00
   3.5178161E-04   1.2479261E+05   -1.7342973E+00
   3.5340618E-04   1.2379956E+05   -1.7337236E+00
   3.5503824E-04   1.2281474E+05   -1.7331501E+00
   3.5667785E-04   1.2183808E+05   -1.7325768E+00
   3.5832502E-04   1.2086950E+05   -1.7320036E+00
   3.5997981E-04   1.1990894E+05   -1.7314307E+00
   3.6164223E-04   1.1895633E+05   -1.7308579E+00
   3.6331233E-04   1.1801159E+05   -1.7302853E+00
   3.6499015E-04   1.1707467E+05   -1.7297130E+00
   3.6667571E-04   1.1614549E+05   -1.7291408E+00
   3.6836906E-04   1.1522399E+05   -1.7285689E+00
   3.7007022E-04   1.1431010E+05   -1.7279972E+00
   3.7177925E-04   1.1340376E+05   -1.7274257E+00
   3.7349616E-04   1.1250491E+05   -1.7268545E+00
   3.7522101E-04   1.1161347E+05   -1.7262835E+00
   3.7695382E-04   1.1072938E+05   -1.7257128E+00
   3.7869463E-04   1.0985259E+05   -1.7251423E+00
   3.8044348E-04   1.0898302E+05   -1.7245721E+00
   3.8220041E-04   1.0812063E+05   -1.7240021E+00
   3.8396545E-04   1.0726534E+05   -1.7234324E+00
   3.8573864E-04   1.0641709E+05   -1.7228630E+00
   3.8752002E-04   1.0557583E+05   -1.7222939E+00
   3.8930963E-04   1.0474149E+05   -1.7217251E+00
   3.9110750E-04   1.0391402E+05   -1.7211565E+00
   3.9291368E-04   1.0309336E+05   -1.7205883E+00
   3.9472820E-04   1.0227944E+05   -1.7200204E+00
   3.9655109E-04   1.0147222E+05   -1.7194527E+00
   3.9838241E-04   1.0067163E+05   -1.7188854E+00
   4.0022218E-04   9.9877618E+04   -1.7183185E+00
   4.0207045E-04   9.9090128E+04   -1.7177518E+00
   4.0392725E-04   9.8309103E+04   -1.7171855E+00
   4.0579263E-04   9.7534489E+04   -1.7166195E+00
   4.0766662E-04   9.6766230E+04   -1.7160539E+00
   4.0954927E-04   9.6004273E+04   -1.7154887E+00
   4.1144061E-04   9.5248564E+04   -1.7149238E+00
   4.1334068E-04   9.4499049E+04   -1.7143592E+00
   4.1524953E-04   9.3755676E+04   -1.7137950E+00
   4.1716720E-04   9.3018392E+04   -1.7132312E+00
   4.1909372E-04   9.2287146E+04   -1.7126678E+00
   4.2102914E-04   9.1561886E+04   -1.7121048E+00
   4.2297350E-04   9.0842561E+04   -1.7115421E+00
   4.2492683E-04   9.0129120E+04   -1.7109799E+00
   4.2688919E-04   8.9421515E+04   -1.7104181E+00
   4.2886061E-04   8.8719695E+04   -1.7098566E+00
   4.3084113E-04   8.8023610E+04   -1.7092956E+00
   4.3283080E-04   8.7333213E+04   -1.7087350E+00
   4.3482966E-04   8.6648454E+04   -1.7081749E+00
   4.3683775E-04   8.5969286E+04   -1.7076151E+00
   4.3885511E-04   8.5295661E+04   -1.7070558E+00
   4.4088179E-04   8.4627533E+04   -1.7064970E+00
   4.4291783E-04   8.3964854E+04   -1.7059385E+00
   4.4496327E-04   8.3307579E+04   -1.7053806E+00
   4.4701816E-04   8.2655661E+04   -1.7048231E+00
   4.4908253E-04   8.2009055E+04   -1.7042660E+00
   4.5115644E-04   8.1367716E+04   -1.7037095E+00
   4.5323993E-04   8.0731600E+04   -1.7031534E+00
   4.5533304E-04   8.0100662E+04   -1.7025978E+00
   4.5743582E-04   7.9474858E+04   -1.7020426E+00
   4.5954830E-04   7.8854145E+04   -1.7014880E+00
   4.6167054E-04   7.8238480E+04   -1.7009338E+00
   4.6380259E-04   7.7627820E+04   -1.7003802E+00
   4.6594448E-04   7.7022123E+04   -1.6998270E+00
   4.6809626E-04   7.6421346E+04   -1.6992744E+00
   4.7025797E-04   7.5825448E+04   -1.6987223E+00
   4.7242967E-04   7.5234388E+04   -1.6981707E+00
   4.7461140E-04   7.4648125E+04   -1.6976196E+00
   4.7680321E-04   7.4066618E+04   -1.6970690E+00
   4.7900514E-04   7.3489828E+04   -1.6965190E+00
   4.8121723E-04   7.2917714E+04   -1.6959696E+00
   4.8343954E-04   7.2350237E+04   -1.6954206E+00
   4.8567212E-04   7.1787358E+04   -1.6948723E+00
   4.8791500E-04   7.1229038E+04   -1.6943245E+00
   4.9016825E-04   7.0675238E+04   -1.6937772E+00
   4.9243189E-04   7.0125921E+04   -1.6932305E+00
   4.9470600E-04   6.9581049E+04   -1.6926844E+00
   4.9699060E-04   6.9040584E+04   -1.6921389E+00
   4.9928575E-04   6.8504489E+04   -1.6915939E+00
   5.0159151E-04   6.7972727E+04   -1.6910495E+00
   5.0390791E-04   6.7445262E+04   -1.6905057E+00
   5.0623501E-04   6.6922058E+04   -1.6899625E+00
   5.0857286E-04   6.6403078E+04   -1.6894200E+00
   5.1092150E-04   6.5888288E+04   -1.6888780E+00
   5.1328099E-04   6.5377653E+04   -1.6883366E+00
   5.1565137E-04   6.4871136E+04   -1.6877958E+00
   5.1803270E-04   6.4368704E+04   -1.6872557E+00
   5.2042503E-04   6.3870322E+04   -1.6867162E+00
   5.2282841E-04   6.3375956E+04   -1.6861773E+00
   5.2524289E-04   6.2885573E+04   -1.6856390E+00
   5.2766851E-04   6.2399139E+04   -1.6851014E+00
   5.3010534E-04   6.1916620E+04   -1.6845644E+00
   5.3255342E-04   6.1437985E+04   -1.6840280E+00
   5.3501281E-04   6.0963201E+04   -1.6834924E+00
   5.3748356E-04   6.0492234E+04   -1.6829573E+00
   5.3996571E-04   6.0025054E+04   -1.6824230E+00
   5.4245933E-04   5.9561629E+04   -1.6818892E+00
   5.4496446E-04   5.9101927E+04   -1.6813562E+00
   5.4748117E-04   5.8645917E+04   -1.6808238E+00
   5.5000949E-04   5.8193567E+04   -1.6802921E+00
   5.5254949E-04   5.7744849E+04   -1.6797611E+00
   5.5510123E-04   5.7299730E+04   -1.6792308E+00
   5.5766474E-04   5.6858181E+04   -1.6787012E+00
   5.6024010E-04   5.6420173E+04   -1.6781722E+00
   5.6282734E-04   5.5985675E+04   -1.6776440E+00
   5.6542654E-04   5.5554658E+04   -1.6771165E+00
   5.6803774E-04   5.5127093E+04   -1.6765896E+00
   5.7066099E-04   5.4702952E+04   -1.6760635E+00
   5.7329637E-04   5.4282205E+04   -1.6755381E+00
   5.7594391E-04   5.3864825E+04   -1.6750134E+00
   5.7860368E-04   5.3450784E+04   -1.6744894E+00
   5.8127573E-04   5.3040053E+04   -1.6739662E+00
   5.8396012E-04   5.2632605E+04   -1.6734437E+00
   5.8665691E-04   5.2228413E+04   -1.6729219E+00
   5.8936616E-04   5.1827449E+04   -1.6724009E+00
   5.9208791E-04   5.1429686E+04   -1.6718806E+00
   5.9482223E-04   5.1035099E+04   -1.6713611E+00
   5.9756919E-04   5.0643660E+04   -1.6708423E+00
   6.0032882E-04   5.0255344E+04   -1.6703243E+00
   6.0310120E-04   4.9870124E+04   -1.6698070E+00
   6.0588639E-04   4.9487974E+04   -1.6692905E+00
   6.0868443E-04   4.9108870E+04   -1.6687747E+00
   6.1149540E-04   4.8732786E+04   -1.6682598E+00
   6.1431935E-04   4.8359696E+04   -1.6677456E+00
   6.1715634E-04   4.7989577E+04   -1.6672321E+00
   6.2000644E-04   4.7622403E+04   -1.6667195E+00
   6.2286969E-04   4.7258149E+04   -1.6662076E+00
