#        a       HoverH0(a)       dlogHdloga_of_a(a)
   1.0000000E-04   1.1270089E+06   -1.8763597E+00
   1.0046181E-04   1.1173087E+06   -1.8759304E+00
   1.0092575E-04   1.1076941E+06   -1.8755000E+00
   1.0139184E-04   1.0981645E+06   -1.8750687E+00
   1.0186008E-04   1.0887191E+06   -1.8746364E+00
   1.0233048E-04   1.0793570E+06   -1.8742031E+00
   1.0280305E-04   1.0700776E+06   -1.8737688E+00
   1.0327781E-04   1.0608801E+06   -1.8733336E+00
   1.0375475E-04   1.0517637E+06   -1.8728973E+00
   1.0423390E-04   1.0427278E+06   -1.8724600E+00
   1.0471527E-04   1.0337716E+06   -1.8720218E+00
   1.0519885E-04   1.0248944E+06   -1.8715825E+00
   1.0568467E-04   1.0160955E+06   -1.8711423E+00
   1.0617274E-04   1.0073742E+06   -1.8707011E+00
   1.0666305E-04   9.9872974E+05   -1.8702589E+00
   1.0715563E-04   9.9016150E+05   -1.8698157E+00
   1.0765049E-04   9.8166878E+05   -1.8693716E+00
   1.0814763E-04   9.7325090E+05   -1.8689265E+00
   1.0864707E-04   9.6490717E+05   -1.8684804E+00
   1.0914881E-04   9.5663695E+05   -1.8680333E+00
   1.0965287E-04   9.4843957E+05   -1.8675852E+00
   1.1015926E-04   9.4031438E+05   -1.8671362E+00
   1.1066799E-04   9.3226072E+05   -1.8666862E+00
   1.1117906E-04   9.2427796E+05   -1.8662352E+00
   1.1169250E-04   9.1636546E+05   -1.8657833E+00
   1.1220831E-04   9.0852259E+05   -1.8653304E+00
   1.1272650E-04   9.0074872E+05   -1.8648765E+00
   1.1324708E-04   8.9304325E+05   -1.8644217E+00
   1.1377007E-04   8.8540555E+05   -1.8639659E+00
   1.1429547E-04   8.7783502E+05   -1.8635092E+00
   1.1482330E-04   8.7033105E+05   -1.8630515E+00
   1.1535356E-04   8.6289304E+05   -1.8625928E+00
   1.1588628E-04   8.5552042E+05   -1.8621332E+00
   1.1642145E-04   8.4821258E+05   -1.8616727E+00
   1.1695910E-04   8.4096895E+05   -1.8612111E+00
   1.1749923E-04   8.3378896E+05   -1.8607487E+00
   1.1804185E-04   8.2667203E+05   -1.8602853E+00
   1.1858698E-04   8.1961760E+05   -1.8598209E+00
   1.1913463E-04   8.1262511E+05   -1.8593557E+00
   1.1968481E-04   8.0569401E+05   -1.8588894E+00
   1.2023752E-04   7.9882374E+05   -1.8584223E+00
   1.2079279E-04   7.9201376E+05   -1.8579542E+00
   1.2135063E-04   7.8526353E+05   -1.8574852E+00
   1.2191104E-04   7.7857252E+05   -1.8570152E+00
   1.2247403E-04   7.7194019E+05   -1.8565443E+00
   1.2303963E-04   7.6536603E+05   -1.8560725E+00
   1.2360784E-04   7.5884950E+05   -1.8555998E+00
   1.2417868E-04   7.5239010E+05   -1.8551261E+00
   1.2475215E-04   7.4598730E+05   -1.8546515E+00
   1.2532826E-04   7.3964062E+05   -1.8541760E+00
   1.2590704E-04   7.3334954E+05   -1.8536996E+00
   1.2648850E-04   7.2711356E+05   -1.8532223E+00
   1.2707263E-04   7.2093220E+05   -1.8527441E+00
   1.2765947E-04   7.1480497E+05   -1.8522650E+00
   1.2824901E-04   7.0873137E+05   -1.8517849E+00
   1.2884128E-04   7.0271094E+05   -1.8513040E+00
   1.2943628E-04   6.9674320E+05   -1.8508222E+00
   1.3003403E-04   6.9082767E+05   -1.8503394E+00
   1.3063454E-04   6.8496390E+05   -1.8498558E+00
   1.3123783E-04   6.7915141E+05   -1.8493713E+00
   1.3184390E-04   6.7338974E+05   -1.8488859E+00
   1.3245277E-04   6.6767845E+05   -1.8483996E+00
   1.3306445E-04   6.6201709E+05   -1.8479124E+00
   1.3367895E-04   6.5640520E+05   -1.8474244E+00
   1.3429630E-04   6.5084235E+05   -1.8469354E+00
   1.3491649E-04   6.4532810E+05   -1.8464456E+00
   1.3553955E-04   6.3986201E+05   -1.8459550E+00
   1.3616548E-04   6.3444366E+05   -1.8454634E+00
   1.3679431E-04   6.2907262E+05   -1.8449710E+00
   1.3742604E-04   6.2374846E+05   -1.8444777E+00
   1.3806069E-04   6.1847078E+05   -1.8439836E+00
   1.3869827E-04   6.1323914E+05   -1.8434886E+00
   1.3933879E-04   6.0805315E+05   -1.8429927E+00
   1.3998227E-04   6.0291239E+05   -1.8424961E+00
   1.4062872E-04   5.9781646E+05   -1.8419985E+00
   1.4127816E-04   5.9276497E+05   -1.8415001E+00
   1.4193060E-04   5.8775751E+05   -1.8410009E+00
   1.4258605E-04   5.8279369E+05   -1.8405008E+00
   1.4324453E-04   5.7787313E+05   -1.8399999E+00
   1.4390605E-04   5.7299543E+05   -1.8394982E+00
   1.4457062E-04   5.6816022E+05   -1.8389956E+00
   1.4523826E-04   5.6336712E+05   -1.8384922E+00
   1.4590899E-04   5.5861575E+05   -1.8379880E+00
   1.4658281E-04   5.5390575E+05   -1.8374830E+00
   1.4725974E-04   5.4923673E+05   -1.8369772E+00
   1.4793981E-04   5.4460834E+05   -1.8364705E+00
   1.4862301E-04   5.4002021E+05   -1.8359630E+00
   1.4930936E-04   5.3547199E+05   -1.8354548E+00
   1.4999889E-04   5.3096333E+05   -1.8349457E+00
   1.5069160E-04   5.2649386E+05   -1.8344358E+00
   1.5138751E-04   5.2206323E+05   -1.8339252E+00
   1.5208663E-04   5.1767112E+05   -1.8334137E+00
   1.5278899E-04   5.1331716E+05   -1.8329015E+00
   1.5349458E-04   5.0900103E+05   -1.8323885E+00
   1.5420343E-04   5.0472239E+05   -1.8318747E+00
   1.5491556E-04   5.0048089E+05   -1.8313601E+00
   1.5563098E-04   4.9627622E+05   -1.8308447E+00
   1.5634970E-04   4.9210804E+05   -1.8303286E+00
   1.5707174E-04   4.8797603E+05   -1.8298117E+00
   1.5779711E-04   4.8387987E+05   -1.8292941E+00
   1.5852584E-04   4.7981923E+05   -1.8287757E+00
   1.5925792E-04   4.7579381E+05   -1.8282565E+00
   1.5999339E-04   4.7180329E+05   -1.8277366E+00
   1.6073226E-04   4.6784736E+05   -1.8272160E+00
   1.6147454E-04   4.6392572E+05   -1.8266946E+00
   1.6222024E-04   4.6003805E+05   -1.8261725E+00
   1.6296939E-04   4.5618406E+05   -1.8256496E+00
   1.6372200E-04   4.5236344E+05   -1.8251260E+00
   1.6447809E-04   4.4857591E+05   -1.8246017E+00
   1.6523767E-04   4.4482117E+05   -1.8240766E+00
   1.6600075E-04   4.4109892E+05   -1.8235509E+00
   1.6676736E-04   4.3740888E+05   -1.8230244E+00
   1.6753751E-04   4.3375076E+05   -1.8224972E+00
   1.6831122E-04   4.3012428E+05   -1.8219693E+00
   1.6908849E-04   4.2652916E+05   -1.8214407E+00
   1.6986936E-04   4.2296512E+05   -1.8209115E+00
   1.7065384E-04   4.1943188E+05   -1.8203815E+00
   1.7144193E-04   4.1592917E+05   -1.8198508E+00
   1.7223367E-04   4.1245673E+05   -1.8193195E+00
   1.7302906E-04   4.0901427E+05   -1.8187874E+00
   1.7382813E-04   4.0560155E+05   -1.8182547E+00
   1.7463089E-04   4.0221828E+05   -1.8177214E+00
   1.7543735E-04   3.9886422E+05   -1.8171873E+00
   1.7624754E-04   3.9553910E+05   -1.8166526E+00
   1.7706147E-04   3.9224267E+05   -1.8161173E+00
   1.7787916E-04   3.8897467E+05   -1.8155813E+00
   1.7870062E-04   3.8573485E+05   -1.8150446E+00
   1.7952588E-04   3.8252296E+05   -1.8145073E+00
   1.8035495E-04   3.7933876E+05   -1.8139693E+00
   1.8118785E-04   3.7618199E+05   -1.8134308E+00
   1.8202459E-04   3.7305243E+05   -1.8128916E+00
   1.8286520E-04   3.6994981E+05   -1.8123517E+00
   1.8370969E-04   3.6687392E+05   -1.8118113E+00
   1.8455808E-04   3.6382450E+05   -1.8112702E+00
   1.8541039E-04   3.6080133E+05   -1.8107285E+00
   1.8626663E-04   3.5780418E+05   -1.8101862E+00
   1.8712683E-04   3.5483281E+05   -1.8096433E+00
   1.8799100E-04   3.5188699E+05   -1.8090998E+00
   1.8885917E-04   3.4896651E+05   -1.8085558E+00
   1.8973134E-04   3.4607113E+05   -1.8080111E+00
   1.9060754E-04   3.4320064E+05   -1.8074658E+00
   1.9148778E-04   3.4035481E+05   -1.8069200E+00
   1.9237209E-04   3.3753343E+05   -1.8063736E+00
   1.9326049E-04   3.3473628E+05   -1.8058266E+00
   1.9415299E-04   3.3196314E+05   -1.8052791E+00
   1.9504960E-04   3.2921382E+05   -1.8047310E+00
   1.9595036E-04   3.2648808E+05   -1.8041823E+00
   1.9685528E-04   3.2378574E+05   -1.8036331E+00
   1.9776438E-04   3.2110657E+05   -1.8030834E+00
   1.9867768E-04   3.1845038E+05   -1.8025331E+00
   1.9959519E-04   3.1581697E+05   -1.8019823E+00
   2.0051694E-04   3.1320612E+05   -1.8014310E+00
   2.0144295E-04   3.1061765E+05   -1.8008791E+00
   2.0237324E-04   3.0805135E+05   -1.8003267E+00
   2.0330782E-04   3.0550704E+05   -1.7997738E+00
   2.0424671E-04   3.0298451E+05   -1.7992204E+00
   2.0518995E-04   3.0048357E+05   -1.7986665E+00
   2.0613754E-04   2.9800404E+05   -1.7981121E+00
   2.0708950E-04   2.9554573E+05   -1.7975572E+00
   2.0804586E-04   2.9310845E+05   -1.7970018E+00
   2.0900664E-04   2.9069201E+05   -1.7964460E+00
   2.0997185E-04   2.8829623E+05   -1.7958896E+00
   2.1094152E-04   2.8592092E+05   -1.7953328E+00
   2.1191567E-04   2.8356592E+05   -1.7947756E+00
   2.1289432E-04   2.8123103E+05   -1.7942178E+00
   2.1387749E-04   2.7891609E+05   -1.7936596E+00
   2.1486520E-04   2.7662092E+05   -1.7931010E+00
   2.1585747E-04   2.7434533E+05   -1.7925419E+00
   2.1685432E-04   2.7208917E+05   -1.7919824E+00
   2.1785578E-04   2.6985226E+05   -1.7914224E+00
   2.1886186E-04   2.6763443E+05   -1.7908620E+00
   2.1987259E-04   2.6543552E+05   -1.7903012E+00
   2.2088798E-04   2.6325535E+05   -1.7897400E+00
   2.2190807E-04   2.6109376E+05   -1.7891784E+00
   2.2293286E-04   2.5895059E+05   -1.7886163E+00
   2.2396239E-04   2.5682568E+05   -1.7880539E+00
   2.2499667E-04   2.5471887E+05   -1.7874910E+00
   2.2603573E-04   2.5262999E+05   -1.7869278E+00
   2.2707958E-04   2.5055890E+05   -1.7863642E+00
   2.2812826E-04   2.4850543E+05   -1.7858002E+00
   2.2918178E-04   2.4646943E+05   -1.7852358E+00
   2.3024017E-04   2.4445074E+05   -1.7846711E+00
   2.3130344E-04   2.4244922E+05   -1.7841060E+00
   2.3237162E-04   2.4046472E+05   -1.7835406E+00
   2.3344474E-04   2.3849708E+05   -1.7829748E+00
   2.3452281E-04   2.3654616E+05   -1.7824086E+00
   2.3560586E-04   2.3461181E+05   -1.7818422E+00
   2.3669392E-04   2.3269388E+05   -1.7812753E+00
   2.3778699E-04   2.3079224E+05   -1.7807082E+00
   2.3888512E-04   2.2890674E+05   -1.7801407E+00
   2.3998831E-04   2.2703723E+05   -1.7795730E+00
   2.4109661E-04   2.2518358E+05   -1.7790049E+00
   2.4221001E-04   2.2334565E+05   -1.7784365E+00
   2.4332857E-04   2.2152330E+05   -1.7778678E+00
   2.4445228E-04   2.1971640E+05   -1.7772988E+00
   2.4558119E-04   2.1792480E+05   -1.7767295E+00
   2.4671531E-04   2.1614839E+05   -1.7761600E+00
   2.4785467E-04   2.1438701E+05   -1.7755902E+00
   2.4899928E-04   2.1264055E+05   -1.7750201E+00
   2.5014919E-04   2.1090887E+05   -1.7744497E+00
   2.5130440E-04   2.0919184E+05   -1.7738791E+00
   2.5246495E-04   2.0748933E+05   -1.7733082E+00
   2.5363086E-04   2.0580122E+05   -1.7727371E+00
   2.5480216E-04   2.0412739E+05   -1.7721658E+00
   2.5597886E-04   2.0246770E+05   -1.7715942E+00
   2.5716100E-04   2.0082203E+05   -1.7710224E+00
   2.5834859E-04   1.9919027E+05   -1.7704503E+00
   2.5954168E-04   1.9757228E+05   -1.7698781E+00
   2.6074027E-04   1.9596795E+05   -1.7693056E+00
   2.6194439E-04   1.9437717E+05   -1.7687330E+00
   2.6315408E-04   1.9279980E+05   -1.7681601E+00
   2.6436935E-04   1.9123574E+05   -1.7675870E+00
   2.6559024E-04   1.8968488E+05   -1.7670138E+00
   2.6681676E-04   1.8814708E+05   -1.7664404E+00
   2.6804895E-04   1.8662224E+05   -1.7658668E+00
   2.6928683E-04   1.8511026E+05   -1.7652930E+00
   2.7053042E-04   1.8361100E+05   -1.7647191E+00
   2.7177976E-04   1.8212438E+05   -1.7641450E+00
   2.7303487E-04   1.8065026E+05   -1.7635708E+00
   2.7429577E-04   1.7918855E+05   -1.7629964E+00
   2.7556250E-04   1.7773914E+05   -1.7624219E+00
   2.7683507E-04   1.7630192E+05   -1.7618472E+00
   2.7811353E-04   1.7487679E+05   -1.7612724E+00
   2.7939788E-04   1.7346363E+05   -1.7606975E+00
   2.8068817E-04   1.7206235E+05   -1.7601225E+00
   2.8198442E-04   1.7067284E+05   -1.7595474E+00
   2.8328665E-04   1.6929500E+05   -1.7589722E+00
   2.8459490E-04   1.6792873E+05   -1.7583969E+00
   2.8590919E-04   1.6657393E+05   -1.7578215E+00
   2.8722955E-04   1.6523050E+05   -1.7572460E+00
   2.8855600E-04   1.6389833E+05   -1.7566704E+00
   2.8988859E-04   1.6257734E+05   -1.7560948E+00
   2.9122732E-04   1.6126742E+05   -1.7555191E+00
   2.9257224E-04   1.5996848E+05   -1.7549433E+00
   2.9392337E-04   1.5868043E+05   -1.7543675E+00
   2.9528074E-04   1.5740316E+05   -1.7537917E+00
   2.9664438E-04   1.5613659E+05   -1.7532158E+00
   2.9801431E-04   1.5488062E+05   -1.7526398E+00
   2.9939057E-04   1.5363516E+05   -1.7520639E+00
   3.0077319E-04   1.5240012E+05   -1.7514879E+00
   3.0216219E-04   1.5117541E+05   -1.7509119E+00
   3.0355761E-04   1.4996094E+05   -1.7503359E+00
   3.0495947E-04   1.4875662E+05   -1.7497598E+00
   3.0636780E-04   1.4756237E+05   -1.7491838E+00
   3.0778264E-04   1.4637809E+05   -1.7486078E+00
   3.0920401E-04   1.4520370E+05   -1.7480318E+00
   3.1063195E-04   1.4403912E+05   -1.7474559E+00
   3.1206648E-04   1.4288425E+05   -1.7468799E+00
   3.1350764E-04   1.4173902E+05   -1.7463040E+00
   3.1495545E-04   1.4060335E+05   -1.7457281E+00
   3.1640994E-04   1.3947714E+05   -1.7451523E+00
   3.1787116E-04   1.3836032E+05   -1.7445765E+00
   3.1933912E-04   1.3725281E+05   -1.7440008E+00
   3.2081386E-04   1.3615452E+05   -1.7434251E+00
   3.2229541E-04   1.3506538E+05   -1.7428495E+00
   3.2378381E-04   1.3398531E+05   -1.7422740E+00
   3.2527908E-04   1.3291423E+05   -1.7416986E+00
   3.2678125E-04   1.3185205E+05   -1.7411232E+00
   3.2829036E-04   1.3079872E+05   -1.7405480E+00
   3.2980644E-04   1.2975414E+05   -1.7399728E+00
   3.3132952E-04   1.2871825E+05   -1.7393978E+00
   3.3285963E-04   1.2769096E+05   -1.7388229E+00
   3.3439681E-04   1.2667221E+05   -1.7382480E+00
   3.3594109E-04   1.2566192E+05   -1.7376733E+00
   3.3749250E-04   1.2466002E+05   -1.7370988E+00
   3.3905108E-04   1.2366643E+05   -1.7365243E+00
   3.4061685E-04   1.2268108E+05   -1.7359501E+00
   3.4218986E-04   1.2170391E+05   -1.7353759E+00
   3.4377013E-04   1.2073484E+05   -1.7348019E+00
   3.4535769E-04   1.1977381E+05   -1.7342281E+00
   3.4695259E-04   1.1882074E+05   -1.7336545E+00
   3.4855485E-04   1.1787556E+05   -1.7330810E+00
   3.5016452E-04   1.1693821E+05   -1.7325077E+00
   3.5178161E-04   1.1600862E+05   -1.7319345E+00
   3.5340618E-04   1.1508673E+05   -1.7313616E+00
   3.5503824E-04   1.1417246E+05   -1.7307889E+00
   3.5667785E-04   1.1326576E+05   -1.7302163E+00
   3.5832502E-04   1.1236655E+05   -1.7296440E+00
   3.5997981E-04   1.1147477E+05   -1.7290719E+00
   3.6164223E-04   1.1059037E+05   -1.7285000E+00
   3.6331233E-04   1.0971326E+05   -1.7279283E+00
   3.6499015E-04   1.0884341E+05   -1.7273569E+00
   3.6667571E-04   1.0798073E+05   -1.7267857E+00
   3.6836906E-04   1.0712517E+05   -1.7262147E+00
   3.7007022E-04   1.0627667E+05   -1.7256440E+00
   3.7177925E-04   1.0543517E+05   -1.7250736E+00
   3.7349616E-04   1.0460060E+05   -1.7245034E+00
   3.7522101E-04   1.0377292E+05   -1.7239335E+00
   3.7695382E-04   1.0295205E+05   -1.7233638E+00
   3.7869463E-04   1.0213795E+05   -1.7227945E+00
   3.8044348E-04   1.0133055E+05   -1.7222254E+00
   3.8220041E-04   1.0052979E+05   -1.7216566E+00
   3.8396545E-04   9.9735624E+04   -1.7210881E+00
   3.8573864E-04   9.8947991E+04   -1.7205199E+00
   3.8752002E-04   9.8166835E+04   -1.7199520E+00
   3.8930963E-04   9.7392100E+04   -1.7193844E+00
   3.9110750E-04   9.6623733E+04   -1.7188172E+00
   3.9291368E-04   9.5861677E+04   -1.7182502E+00
   3.9472820E-04   9.5105880E+04   -1.7176836E+00
   3.9655109E-04   9.4356289E+04   -1.7171174E+00
   3.9838241E-04   9.3612849E+04   -1.7165515E+00
   4.0022218E-04   9.2875509E+04   -1.7159859E+00
   4.0207045E-04   9.2144218E+04   -1.7154207E+00
   4.0392725E-04   9.1418922E+04   -1.7148558E+00
   4.0579263E-04   9.0699571E+04   -1.7142913E+00
   4.0766662E-04   8.9986115E+04   -1.7137272E+00
   4.0954927E-04   8.9278502E+04   -1.7131634E+00
   4.1144061E-04   8.8576684E+04   -1.7126001E+00
   4.1334068E-04   8.7880611E+04   -1.7120371E+00
   4.1524953E-04   8.7190234E+04   -1.7114745E+00
   4.1716720E-04   8.6505505E+04   -1.7109123E+00
   4.1909372E-04   8.5826375E+04   -1.7103505E+00
   4.2102914E-04   8.5152797E+04   -1.7097892E+00
   4.2297350E-04   8.4484724E+04   -1.7092282E+00
   4.2492683E-04   8.3822109E+04   -1.7086677E+00
   4.2688919E-04   8.3164906E+04   -1.7081075E+00
   4.2886061E-04   8.2513069E+04   -1.7075479E+00
   4.3084113E-04   8.1866551E+04   -1.7069886E+00
   4.3283080E-04   8.1225308E+04   -1.7064298E+00
   4.3482966E-04   8.0589296E+04   -1.7058715E+00
   4.3683775E-04   7.9958469E+04   -1.7053136E+00
   4.3885511E-04   7.9332784E+04   -1.7047561E+00
   4.4088179E-04   7.8712197E+04   -1.7041991E+00
   4.4291783E-04   7.8096665E+04   -1.7036426E+00
   4.4496327E-04   7.7486145E+04   -1.7030866E+00
   4.4701816E-04   7.6880594E+04   -1.7025310E+00
   4.4908253E-04   7.6279971E+04   -1.7019760E+00
   4.5115644E-04   7.5684234E+04   -1.7014214E+00
   4.5323993E-04   7.5093342E+04   -1.7008673E+00
   4.5533304E-04   7.4507253E+04   -1.7003137E+00
   4.5743582E-04   7.3925926E+04   -1.6997606E+00
   4.5954830E-04   7.3349322E+04   -1.6992081E+00
   4.6167054E-04   7.2777401E+04   -1.6986560E+00
   4.6380259E-04   7.2210123E+04   -1.6981045E+00
   4.6594448E-04   7.1647448E+04   -1.6975535E+00
   4.6809626E-04   7.1089338E+04   -1.6970030E+00
   4.7025797E-04   7.0535755E+04   -1.6964531E+00
   4.7242967E-04   6.9986659E+04   -1.6959037E+00
   4.7461140E-04   6.9442014E+04   -1.6953548E+00
   4.7680321E-04   6.8901782E+04   -1.6948065E+00
   4.7900514E-04   6.8365924E+04   -1.6942588E+00
   4.8121723E-04   6.7834406E+04   -1.6937116E+00
   4.8343954E-04   6.7307189E+04   -1.6931650E+00
   4.8567212E-04   6.6784238E+04   -1.6926189E+00
   4.8791500E-04   6.6265517E+04   -1.6920735E+00
   4.9016825E-04   6.5750990E+04   -1.6915286E+00
   4.9243189E-04   6.5240622E+04   -1.6909843E+00
   4.9470600E-04   6.4734378E+04   -1.6904406E+00
   4.9699060E-04   6.4232222E+04   -1.6898975E+00
   4.9928575E-04   6.3734122E+04   -1.6893550E+00
   5.0159151E-04   6.3240042E+04   -1.6888131E+00
   5.0390791E-04   6.2749948E+04   -1.6882718E+00
   5.0623501E-04   6.2263808E+04   -1.6877311E+00
   5.0857286E-04   6.1781588E+04   -1.6871910E+00
   5.1092150E-04   6.1303256E+04   -1.6866516E+00
   5.1328099E-04   6.0828778E+04   -1.6861127E+00
   5.1565137E-04   6.0358122E+04   -1.6855746E+00
   5.1803270E-04   5.9891256E+04   -1.6850370E+00
   5.2042503E-04   5.9428148E+04   -1.6845001E+00
   5.2282841E-04   5.8968767E+04   -1.6839639E+00
   5.2524289E-04   5.8513082E+04   -1.6834283E+00
   5.2766851E-04   5.8061061E+04   -1.6828933E+00
   5.3010534E-04   5.7612674E+04   -1.6823590E+00
   5.3255342E-04   5.7167890E+04   -1.6818254E+00
   5.3501281E-04   5.6726679E+04   -1.6812925E+00
   5.3748356E-04   5.6289012E+04   -1.6807602E+00
   5.3996571E-04   5.5854859E+04   -1.6802286E+00
   5.4245933E-04   5.5424189E+04   -1.6796977E+00
   5.4496446E-04   5.4996975E+04   -1.6791674E+00
   5.4748117E-04   5.4573188E+04   -1.6786379E+00
   5.5000949E-04   5.4152797E+04   -1.6781090E+00
   5.5254949E-04   5.3735776E+04   -1.6775809E+00
   5.5510123E-04   5.3322096E+04   -1.6770534E+00
   5.5766474E-04   5.2911730E+04   -1.6765267E+00
   5.6024010E-04   5.2504648E+04   -1.6760007E+00
   5.6282734E-04   5.2100825E+04   -1.6754753E+00
   5.6542654E-04   5.1700233E+04   -1.6749508E+00
   5.6803774E-04   5.1302845E+04   -1.6744269E+00
   5.7066099E-04   5.0908633E+04   -1.6739037E+00
   5.7329637E-04   5.0517573E+04   -1.6733813E+00
   5.7594391E-04   5.0129638E+04   -1.6728597E+00
   5.7860368E-04   4.9744801E+04   -1.6723387E+00
   5.8127573E-04   4.9363036E+04   -1.6718185E+00
   5.8396012E-04   4.8984319E+04   -1.6712991E+00
   5.8665691E-04   4.8608624E+04   -1.6707804E+00
   5.8936616E-04   4.8235925E+04   -1.6702625E+00
   5.9208791E-04   4.7866198E+04   -1.6697453E+00
   5.9482223E-04   4.7499418E+04   -1.6692289E+00
   5.9756919E-04   4.7135560E+04   -1.6687132E+00
   6.0032882E-04   4.6774601E+04   -1.6681984E+00
   6.0310120E-04   4.6416516E+04   -1.6676843E+00
   6.0588639E-04   4.6061282E+04   -1.6671709E+00
   6.0868443E-04   4.5708874E+04   -1.6666584E+00
   6.1149540E-04   4.5359269E+04   -1.6661467E+00
   6.1431935E-04   4.5012445E+04   -1.6656357E+00
   6.1715634E-04   4.4668377E+04   -1.6651255E+00
   6.2000644E-04   4.4327044E+04   -1.6646161E+00
   6.2286969E-04   4.3988422E+04   -1.6641076E+00
