#        a       HoverH0(a)       dlogHdloga_of_a(a)
   1.0000000E-04   1.2072594E+06   -1.8671971E+00
   1.0046181E-04   1.1969191E+06   -1.8667472E+00
   1.0092575E-04   1.1866698E+06   -1.8662964E+00
   1.0139184E-04   1.1765107E+06   -1.8658446E+00
   1.0186008E-04   1.1664410E+06   -1.8653918E+00
   1.0233048E-04   1.1564599E+06   -1.8649381E+00
   1.0280305E-04   1.1465666E+06   -1.8644834E+00
   1.0327781E-04   1.1367603E+06   -1.8640278E+00
   1.0375475E-04   1.1270403E+06   -1.8635712E+00
   1.0423390E-04   1.1174057E+06   -1.8631136E+00
   1.0471527E-04   1.1078559E+06   -1.8626551E+00
   1.0519885E-04   1.0983900E+06   -1.8621956E+00
   1.0568467E-04   1.0890072E+06   -1.8617352E+00
   1.0617274E-04   1.0797069E+06   -1.8612738E+00
   1.0666305E-04   1.0704883E+06   -1.8608115E+00
   1.0715563E-04   1.0613507E+06   -1.8603482E+00
   1.0765049E-04   1.0522933E+06   -1.8598840E+00
   1.0814763E-04   1.0433155E+06   -1.8594188E+00
   1.0864707E-04   1.0344165E+06   -1.8589527E+00
   1.0914881E-04   1.0255956E+06   -1.8584857E+00
   1.0965287E-04   1.0168521E+06   -1.8580177E+00
   1.1015926E-04   1.0081853E+06   -1.8575488E+00
   1.1066799E-04   9.9959450E+05   -1.8570790E+00
   1.1117906E-04   9.9107909E+05   -1.8566083E+00
   1.1169250E-04   9.8263835E+05   -1.8561366E+00
   1.1220831E-04   9.7427162E+05   -1.8556640E+00
   1.1272650E-04   9.6597823E+05   -1.8551904E+00
   1.1324708E-04   9.5775754E+05   -1.8547160E+00
   1.1377007E-04   9.4960888E+05   -1.8542406E+00
   1.1429547E-04   9.4153161E+05   -1.8537644E+00
   1.1482330E-04   9.3352510E+05   -1.8532872E+00
   1.1535356E-04   9.2558872E+05   -1.8528091E+00
   1.1588628E-04   9.1772182E+05   -1.8523301E+00
   1.1642145E-04   9.0992380E+05   -1.8518502E+00
   1.1695910E-04   9.0219404E+05   -1.8513693E+00
   1.1749923E-04   8.9453193E+05   -1.8508876E+00
   1.1804185E-04   8.8693685E+05   -1.8504050E+00
   1.1858698E-04   8.7940822E+05   -1.8499215E+00
   1.1913463E-04   8.7194544E+05   -1.8494371E+00
   1.1968481E-04   8.6454792E+05   -1.8489519E+00
   1.2023752E-04   8.5721508E+05   -1.8484657E+00
   1.2079279E-04   8.4994635E+05   -1.8479786E+00
   1.2135063E-04   8.4274114E+05   -1.8474907E+00
   1.2191104E-04   8.3559889E+05   -1.8470019E+00
   1.2247403E-04   8.2851904E+05   -1.8465122E+00
   1.2303963E-04   8.2150103E+05   -1.8460217E+00
   1.2360784E-04   8.1454431E+05   -1.8455302E+00
   1.2417868E-04   8.0764833E+05   -1.8450379E+00
   1.2475215E-04   8.0081255E+05   -1.8445448E+00
   1.2532826E-04   7.9403643E+05   -1.8440508E+00
   1.2590704E-04   7.8731944E+05   -1.8435559E+00
   1.2648850E-04   7.8066106E+05   -1.8430602E+00
   1.2707263E-04   7.7406075E+05   -1.8425636E+00
   1.2765947E-04   7.6751801E+05   -1.8420662E+00
   1.2824901E-04   7.6103231E+05   -1.8415679E+00
   1.2884128E-04   7.5460316E+05   -1.8410688E+00
   1.2943628E-04   7.4823004E+05   -1.8405689E+00
   1.3003403E-04   7.4191246E+05   -1.8400681E+00
   1.3063454E-04   7.3564991E+05   -1.8395665E+00
   1.3123783E-04   7.2944192E+05   -1.8390640E+00
   1.3184390E-04   7.2328799E+05   -1.8385607E+00
   1.3245277E-04   7.1718764E+05   -1.8380566E+00
   1.3306445E-04   7.1114039E+05   -1.8375517E+00
   1.3367895E-04   7.0514578E+05   -1.8370460E+00
   1.3429630E-04   6.9920333E+05   -1.8365395E+00
   1.3491649E-04   6.9331258E+05   -1.8360321E+00
   1.3553955E-04   6.8747306E+05   -1.8355240E+00
   1.3616548E-04   6.8168433E+05   -1.8350150E+00
   1.3679431E-04   6.7594593E+05   -1.8345053E+00
   1.3742604E-04   6.7025740E+05   -1.8339947E+00
   1.3806069E-04   6.6461832E+05   -1.8334834E+00
   1.3869827E-04   6.5902823E+05   -1.8329712E+00
   1.3933879E-04   6.5348670E+05   -1.8324583E+00
   1.3998227E-04   6.4799331E+05   -1.8319446E+00
   1.4062872E-04   6.4254761E+05   -1.8314302E+00
   1.4127816E-04   6.3714919E+05   -1.8309149E+00
   1.4193060E-04   6.3179762E+05   -1.8303989E+00
   1.4258605E-04   6.2649250E+05   -1.8298821E+00
   1.4324453E-04   6.2123340E+05   -1.8293646E+00
   1.4390605E-04   6.1601992E+05   -1.8288463E+00
   1.4457062E-04   6.1085165E+05   -1.8283273E+00
   1.4523826E-04   6.0572820E+05   -1.8278075E+00
   1.4590899E-04   6.0064915E+05   -1.8272869E+00
   1.4658281E-04   5.9561413E+05   -1.8267656E+00
   1.4725974E-04   5.9062272E+05   -1.8262436E+00
   1.4793981E-04   5.8567456E+05   -1.8257209E+00
   1.4862301E-04   5.8076925E+05   -1.8251974E+00
   1.4930936E-04   5.7590642E+05   -1.8246731E+00
   1.4999889E-04   5.7108568E+05   -1.8241482E+00
   1.5069160E-04   5.6630667E+05   -1.8236226E+00
   1.5138751E-04   5.6156901E+05   -1.8230962E+00
   1.5208663E-04   5.5687234E+05   -1.8225691E+00
   1.5278899E-04   5.5221628E+05   -1.8220413E+00
   1.5349458E-04   5.4760050E+05   -1.8215128E+00
   1.5420343E-04   5.4302461E+05   -1.8209837E+00
   1.5491556E-04   5.3848828E+05   -1.8204538E+00
   1.5563098E-04   5.3399115E+05   -1.8199232E+00
   1.5634970E-04   5.2953287E+05   -1.8193920E+00
   1.5707174E-04   5.2511310E+05   -1.8188600E+00
   1.5779711E-04   5.2073149E+05   -1.8183274E+00
   1.5852584E-04   5.1638772E+05   -1.8177942E+00
   1.5925792E-04   5.1208143E+05   -1.8172602E+00
   1.5999339E-04   5.0781231E+05   -1.8167256E+00
   1.6073226E-04   5.0358002E+05   -1.8161903E+00
   1.6147454E-04   4.9938424E+05   -1.8156544E+00
   1.6222024E-04   4.9522463E+05   -1.8151179E+00
   1.6296939E-04   4.9110090E+05   -1.8145806E+00
   1.6372200E-04   4.8701270E+05   -1.8140428E+00
   1.6447809E-04   4.8295974E+05   -1.8135043E+00
   1.6523767E-04   4.7894169E+05   -1.8129652E+00
   1.6600075E-04   4.7495825E+05   -1.8124254E+00
   1.6676736E-04   4.7100912E+05   -1.8118851E+00
   1.6753751E-04   4.6709399E+05   -1.8113441E+00
   1.6831122E-04   4.6321255E+05   -1.8108025E+00
   1.6908849E-04   4.5936451E+05   -1.8102603E+00
   1.6986936E-04   4.5554958E+05   -1.8097175E+00
   1.7065384E-04   4.5176746E+05   -1.8091741E+00
   1.7144193E-04   4.4801787E+05   -1.8086301E+00
   1.7223367E-04   4.4430051E+05   -1.8080855E+00
   1.7302906E-04   4.4061510E+05   -1.8075403E+00
   1.7382813E-04   4.3696136E+05   -1.8069946E+00
   1.7463089E-04   4.3333901E+05   -1.8064483E+00
   1.7543735E-04   4.2974777E+05   -1.8059014E+00
   1.7624754E-04   4.2618736E+05   -1.8053539E+00
   1.7706147E-04   4.2265752E+05   -1.8048059E+00
   1.7787916E-04   4.1915797E+05   -1.8042574E+00
   1.7870062E-04   4.1568845E+05   -1.8037082E+00
   1.7952588E-04   4.1224869E+05   -1.8031586E+00
   1.8035495E-04   4.0883844E+05   -1.8026084E+00
   1.8118785E-04   4.0545742E+05   -1.8020577E+00
   1.8202459E-04   4.0210538E+05   -1.8015064E+00
   1.8286520E-04   3.9878206E+05   -1.8009546E+00
   1.8370969E-04   3.9548722E+05   -1.8004023E+00
   1.8455808E-04   3.9222061E+05   -1.7998495E+00
   1.8541039E-04   3.8898196E+05   -1.7992962E+00
   1.8626663E-04   3.8577104E+05   -1.7987423E+00
   1.8712683E-04   3.8258760E+05   -1.7981880E+00
   1.8799100E-04   3.7943140E+05   -1.7976332E+00
   1.8885917E-04   3.7630221E+05   -1.7970779E+00
   1.8973134E-04   3.7319977E+05   -1.7965221E+00
   1.9060754E-04   3.7012386E+05   -1.7959658E+00
   1.9148778E-04   3.6707424E+05   -1.7954091E+00
   1.9237209E-04   3.6405068E+05   -1.7948519E+00
   1.9326049E-04   3.6105296E+05   -1.7942942E+00
   1.9415299E-04   3.5808084E+05   -1.7937361E+00
   1.9504960E-04   3.5513410E+05   -1.7931775E+00
   1.9595036E-04   3.5221252E+05   -1.7926185E+00
   1.9685528E-04   3.4931587E+05   -1.7920591E+00
   1.9776438E-04   3.4644394E+05   -1.7914992E+00
   1.9867768E-04   3.4359650E+05   -1.7909388E+00
   1.9959519E-04   3.4077335E+05   -1.7903781E+00
   2.0051694E-04   3.3797427E+05   -1.7898169E+00
   2.0144295E-04   3.3519905E+05   -1.7892554E+00
   2.0237324E-04   3.3244748E+05   -1.7886934E+00
   2.0330782E-04   3.2971934E+05   -1.7881310E+00
   2.0424671E-04   3.2701445E+05   -1.7875682E+00
   2.0518995E-04   3.2433258E+05   -1.7870051E+00
   2.0613754E-04   3.2167354E+05   -1.7864415E+00
   2.0708950E-04   3.1903713E+05   -1.7858776E+00
   2.0804586E-04   3.1642316E+05   -1.7853133E+00
   2.0900664E-04   3.1383141E+05   -1.7847486E+00
   2.0997185E-04   3.1126171E+05   -1.7841836E+00
   2.1094152E-04   3.0871385E+05   -1.7836182E+00
   2.1191567E-04   3.0618764E+05   -1.7830525E+00
   2.1289432E-04   3.0368289E+05   -1.7824864E+00
   2.1387749E-04   3.0119943E+05   -1.7819199E+00
   2.1486520E-04   2.9873705E+05   -1.7813532E+00
   2.1585747E-04   2.9629557E+05   -1.7807861E+00
   2.1685432E-04   2.9387482E+05   -1.7802187E+00
   2.1785578E-04   2.9147461E+05   -1.7796510E+00
   2.1886186E-04   2.8909475E+05   -1.7790829E+00
   2.1987259E-04   2.8673508E+05   -1.7785146E+00
   2.2088798E-04   2.8439542E+05   -1.7779460E+00
   2.2190807E-04   2.8207558E+05   -1.7773770E+00
   2.2293286E-04   2.7977540E+05   -1.7768078E+00
   2.2396239E-04   2.7749471E+05   -1.7762383E+00
   2.2499667E-04   2.7523333E+05   -1.7756685E+00
   2.2603573E-04   2.7299110E+05   -1.7750985E+00
   2.2707958E-04   2.7076784E+05   -1.7745282E+00
   2.2812826E-04   2.6856339E+05   -1.7739576E+00
   2.2918178E-04   2.6637760E+05   -1.7733868E+00
   2.3024017E-04   2.6421029E+05   -1.7728157E+00
   2.3130344E-04   2.6206130E+05   -1.7722444E+00
   2.3237162E-04   2.5993047E+05   -1.7716729E+00
   2.3344474E-04   2.5781765E+05   -1.7711011E+00
   2.3452281E-04   2.5572268E+05   -1.7705291E+00
   2.3560586E-04   2.5364540E+05   -1.7699569E+00
   2.3669392E-04   2.5158566E+05   -1.7693845E+00
   2.3778699E-04   2.4954330E+05   -1.7688118E+00
   2.3888512E-04   2.4751818E+05   -1.7682390E+00
   2.3998831E-04   2.4551013E+05   -1.7676660E+00
   2.4109661E-04   2.4351902E+05   -1.7670928E+00
   2.4221001E-04   2.4154470E+05   -1.7665194E+00
   2.4332857E-04   2.3958702E+05   -1.7659458E+00
   2.4445228E-04   2.3764583E+05   -1.7653721E+00
   2.4558119E-04   2.3572099E+05   -1.7647982E+00
   2.4671531E-04   2.3381236E+05   -1.7642242E+00
   2.4785467E-04   2.3191980E+05   -1.7636500E+00
   2.4899928E-04   2.3004317E+05   -1.7630756E+00
   2.5014919E-04   2.2818233E+05   -1.7625011E+00
   2.5130440E-04   2.2633713E+05   -1.7619265E+00
   2.5246495E-04   2.2450746E+05   -1.7613518E+00
   2.5363086E-04   2.2269316E+05   -1.7607769E+00
   2.5480216E-04   2.2089411E+05   -1.7602019E+00
   2.5597886E-04   2.1911018E+05   -1.7596268E+00
   2.5716100E-04   2.1734123E+05   -1.7590516E+00
   2.5834859E-04   2.1558713E+05   -1.7584763E+00
   2.5954168E-04   2.1384775E+05   -1.7579010E+00
   2.6074027E-04   2.1212297E+05   -1.7573255E+00
   2.6194439E-04   2.1041266E+05   -1.7567500E+00
   2.6315408E-04   2.0871670E+05   -1.7561743E+00
   2.6436935E-04   2.0703495E+05   -1.7555987E+00
   2.6559024E-04   2.0536730E+05   -1.7550229E+00
   2.6681676E-04   2.0371362E+05   -1.7544471E+00
   2.6804895E-04   2.0207379E+05   -1.7538713E+00
   2.6928683E-04   2.0044769E+05   -1.7532954E+00
   2.7053042E-04   1.9883521E+05   -1.7527195E+00
   2.7177976E-04   1.9723622E+05   -1.7521436E+00
   2.7303487E-04   1.9565061E+05   -1.7515676E+00
   2.7429577E-04   1.9407827E+05   -1.7509916E+00
   2.7556250E-04   1.9251907E+05   -1.7504156E+00
   2.7683507E-04   1.9097290E+05   -1.7498396E+00
   2.7811353E-04   1.8943965E+05   -1.7492636E+00
   2.7939788E-04   1.8791921E+05   -1.7486876E+00
   2.8068817E-04   1.8641147E+05   -1.7481116E+00
   2.8198442E-04   1.8491632E+05   -1.7475357E+00
   2.8328665E-04   1.8343364E+05   -1.7469597E+00
   2.8459490E-04   1.8196334E+05   -1.7463838E+00
   2.8590919E-04   1.8050530E+05   -1.7458080E+00
   2.8722955E-04   1.7905942E+05   -1.7452321E+00
   2.8855600E-04   1.7762560E+05   -1.7446564E+00
   2.8988859E-04   1.7620372E+05   -1.7440807E+00
   2.9122732E-04   1.7479368E+05   -1.7435050E+00
   2.9257224E-04   1.7339539E+05   -1.7429294E+00
   2.9392337E-04   1.7200874E+05   -1.7423539E+00
   2.9528074E-04   1.7063364E+05   -1.7417785E+00
   2.9664438E-04   1.6926997E+05   -1.7412031E+00
   2.9801431E-04   1.6791765E+05   -1.7406279E+00
   2.9939057E-04   1.6657658E+05   -1.7400527E+00
   3.0077319E-04   1.6524665E+05   -1.7394777E+00
   3.0216219E-04   1.6392777E+05   -1.7389028E+00
   3.0355761E-04   1.6261986E+05   -1.7383279E+00
   3.0495947E-04   1.6132280E+05   -1.7377532E+00
   3.0636780E-04   1.6003651E+05   -1.7371787E+00
   3.0778264E-04   1.5876090E+05   -1.7366042E+00
   3.0920401E-04   1.5749588E+05   -1.7360300E+00
   3.1063195E-04   1.5624134E+05   -1.7354558E+00
   3.1206648E-04   1.5499721E+05   -1.7348818E+00
   3.1350764E-04   1.5376340E+05   -1.7343080E+00
   3.1495545E-04   1.5253981E+05   -1.7337343E+00
   3.1640994E-04   1.5132635E+05   -1.7331608E+00
   3.1787116E-04   1.5012295E+05   -1.7325875E+00
   3.1933912E-04   1.4892951E+05   -1.7320144E+00
   3.2081386E-04   1.4774594E+05   -1.7314414E+00
   3.2229541E-04   1.4657217E+05   -1.7308687E+00
   3.2378381E-04   1.4540811E+05   -1.7302962E+00
   3.2527908E-04   1.4425367E+05   -1.7297238E+00
   3.2678125E-04   1.4310877E+05   -1.7291517E+00
   3.2829036E-04   1.4197334E+05   -1.7285798E+00
   3.2980644E-04   1.4084729E+05   -1.7280081E+00
   3.3132952E-04   1.3973053E+05   -1.7274367E+00
   3.3285963E-04   1.3862300E+05   -1.7268654E+00
   3.3439681E-04   1.3752460E+05   -1.7262945E+00
   3.3594109E-04   1.3643527E+05   -1.7257237E+00
   3.3749250E-04   1.3535492E+05   -1.7251533E+00
   3.3905108E-04   1.3428348E+05   -1.7245831E+00
   3.4061685E-04   1.3322087E+05   -1.7240131E+00
   3.4218986E-04   1.3216702E+05   -1.7234435E+00
   3.4377013E-04   1.3112184E+05   -1.7228741E+00
   3.4535769E-04   1.3008527E+05   -1.7223050E+00
   3.4695259E-04   1.2905724E+05   -1.7217362E+00
   3.4855485E-04   1.2803767E+05   -1.7211676E+00
   3.5016452E-04   1.2702648E+05   -1.7205994E+00
   3.5178161E-04   1.2602361E+05   -1.7200315E+00
   3.5340618E-04   1.2502898E+05   -1.7194639E+00
   3.5503824E-04   1.2404253E+05   -1.7188966E+00
   3.5667785E-04   1.2306418E+05   -1.7183297E+00
   3.5832502E-04   1.2209387E+05   -1.7177631E+00
   3.5997981E-04   1.2113152E+05   -1.7171968E+00
   3.6164223E-04   1.2017708E+05   -1.7166308E+00
   3.6331233E-04   1.1923046E+05   -1.7160652E+00
   3.6499015E-04   1.1829161E+05   -1.7155000E+00
   3.6667571E-04   1.1736046E+05   -1.7149351E+00
   3.6836906E-04   1.1643693E+05   -1.7143706E+00
   3.7007022E-04   1.1552098E+05   -1.7138064E+00
   3.7177925E-04   1.1461253E+05   -1.7132426E+00
   3.7349616E-04   1.1371152E+05   -1.7126792E+00
   3.7522101E-04   1.1281789E+05   -1.7121162E+00
   3.7695382E-04   1.1193157E+05   -1.7115536E+00
   3.7869463E-04   1.1105250E+05   -1.7109914E+00
   3.8044348E-04   1.1018062E+05   -1.7104296E+00
   3.8220041E-04   1.0931586E+05   -1.7098681E+00
   3.8396545E-04   1.0845818E+05   -1.7093072E+00
   3.8573864E-04   1.0760750E+05   -1.7087466E+00
   3.8752002E-04   1.0676377E+05   -1.7081864E+00
   3.8930963E-04   1.0592693E+05   -1.7076267E+00
   3.9110750E-04   1.0509692E+05   -1.7070674E+00
   3.9291368E-04   1.0427368E+05   -1.7065086E+00
   3.9472820E-04   1.0345715E+05   -1.7059502E+00
   3.9655109E-04   1.0264729E+05   -1.7053922E+00
   3.9838241E-04   1.0184402E+05   -1.7048348E+00
   4.0022218E-04   1.0104730E+05   -1.7042777E+00
   4.0207045E-04   1.0025707E+05   -1.7037212E+00
   4.0392725E-04   9.9473277E+04   -1.7031651E+00
   4.0579263E-04   9.8695863E+04   -1.7026095E+00
   4.0766662E-04   9.7924775E+04   -1.7020544E+00
   4.0954927E-04   9.7159959E+04   -1.7014998E+00
   4.1144061E-04   9.6401364E+04   -1.7009456E+00
   4.1334068E-04   9.5648935E+04   -1.7003920E+00
   4.1524953E-04   9.4902621E+04   -1.6998389E+00
   4.1716720E-04   9.4162370E+04   -1.6992863E+00
   4.1909372E-04   9.3428131E+04   -1.6987342E+00
   4.2102914E-04   9.2699853E+04   -1.6981826E+00
   4.2297350E-04   9.1977485E+04   -1.6976315E+00
   4.2492683E-04   9.1260978E+04   -1.6970810E+00
   4.2688919E-04   9.0550283E+04   -1.6965310E+00
   4.2886061E-04   8.9845349E+04   -1.6959816E+00
   4.3084113E-04   8.9146129E+04   -1.6954327E+00
   4.3283080E-04   8.8452575E+04   -1.6948843E+00
   4.3482966E-04   8.7764637E+04   -1.6943365E+00
   4.3683775E-04   8.7082270E+04   -1.6937893E+00
   4.3885511E-04   8.6405426E+04   -1.6932426E+00
   4.4088179E-04   8.5734059E+04   -1.6926965E+00
   4.4291783E-04   8.5068122E+04   -1.6921510E+00
   4.4496327E-04   8.4407569E+04   -1.6916061E+00
   4.4701816E-04   8.3752356E+04   -1.6910617E+00
   4.4908253E-04   8.3102437E+04   -1.6905180E+00
   4.5115644E-04   8.2457768E+04   -1.6899748E+00
   4.5323993E-04   8.1818305E+04   -1.6894322E+00
   4.5533304E-04   8.1184004E+04   -1.6888903E+00
   4.5743582E-04   8.0554821E+04   -1.6883489E+00
   4.5954830E-04   7.9930714E+04   -1.6878082E+00
   4.6167054E-04   7.9311640E+04   -1.6872680E+00
   4.6380259E-04   7.8697556E+04   -1.6867285E+00
   4.6594448E-04   7.8088421E+04   -1.6861897E+00
   4.6809626E-04   7.7484193E+04   -1.6856514E+00
   4.7025797E-04   7.6884831E+04   -1.6851138E+00
   4.7242967E-04   7.6290293E+04   -1.6845769E+00
   4.7461140E-04   7.5700541E+04   -1.6840405E+00
   4.7680321E-04   7.5115533E+04   -1.6835049E+00
   4.7900514E-04   7.4535229E+04   -1.6829699E+00
   4.8121723E-04   7.3959591E+04   -1.6824355E+00
   4.8343954E-04   7.3388580E+04   -1.6819018E+00
   4.8567212E-04   7.2822156E+04   -1.6813688E+00
   4.8791500E-04   7.2260281E+04   -1.6808365E+00
   4.9016825E-04   7.1702917E+04   -1.6803048E+00
   4.9243189E-04   7.1150026E+04   -1.6797738E+00
   4.9470600E-04   7.0601571E+04   -1.6792435E+00
   4.9699060E-04   7.0057515E+04   -1.6787139E+00
   4.9928575E-04   6.9517821E+04   -1.6781850E+00
   5.0159151E-04   6.8982452E+04   -1.6776568E+00
   5.0390791E-04   6.8451373E+04   -1.6771293E+00
   5.0623501E-04   6.7924548E+04   -1.6766024E+00
   5.0857286E-04   6.7401940E+04   -1.6760763E+00
   5.1092150E-04   6.6883516E+04   -1.6755510E+00
   5.1328099E-04   6.6369240E+04   -1.6750263E+00
   5.1565137E-04   6.5859077E+04   -1.6745024E+00
   5.1803270E-04   6.5352993E+04   -1.6739792E+00
   5.2042503E-04   6.4850955E+04   -1.6734567E+00
   5.2282841E-04   6.4352928E+04   -1.6729349E+00
   5.2524289E-04   6.3858878E+04   -1.6724139E+00
   5.2766851E-04   6.3368774E+04   -1.6718937E+00
   5.3010534E-04   6.2882582E+04   -1.6713742E+00
   5.3255342E-04   6.2400269E+04   -1.6708554E+00
   5.3501281E-04   6.1921804E+04   -1.6703374E+00
   5.3748356E-04   6.1447154E+04   -1.6698201E+00
   5.3996571E-04   6.0976287E+04   -1.6693036E+00
   5.4245933E-04   6.0509173E+04   -1.6687879E+00
   5.4496446E-04   6.0045779E+04   -1.6682730E+00
   5.4748117E-04   5.9586076E+04   -1.6677588E+00
   5.5000949E-04   5.9130032E+04   -1.6672454E+00
   5.5254949E-04   5.8677617E+04   -1.6667328E+00
   5.5510123E-04   5.8228801E+04   -1.6662210E+00
   5.5766474E-04   5.7783554E+04   -1.6657099E+00
   5.6024010E-04   5.7341847E+04   -1.6651997E+00
   5.6282734E-04   5.6903649E+04   -1.6646902E+00
   5.6542654E-04   5.6468933E+04   -1.6641816E+00
   5.6803774E-04   5.6037669E+04   -1.6636737E+00
   5.7066099E-04   5.5609829E+04   -1.6631667E+00
   5.7329637E-04   5.5185384E+04   -1.6626604E+00
   5.7594391E-04   5.4764306E+04   -1.6621550E+00
   5.7860368E-04   5.4346567E+04   -1.6616504E+00
   5.8127573E-04   5.3932141E+04   -1.6611466E+00
   5.8396012E-04   5.3520999E+04   -1.6606436E+00
   5.8665691E-04   5.3113114E+04   -1.6601415E+00
   5.8936616E-04   5.2708459E+04   -1.6596402E+00
   5.9208791E-04   5.2307008E+04   -1.6591397E+00
   5.9482223E-04   5.1908735E+04   -1.6586401E+00
   5.9756919E-04   5.1513612E+04   -1.6581413E+00
   6.0032882E-04   5.1121614E+04   -1.6576433E+00
   6.0310120E-04   5.0732716E+04   -1.6571462E+00
   6.0588639E-04   5.0346891E+04   -1.6566499E+00
   6.0868443E-04   4.9964114E+04   -1.6561545E+00
   6.1149540E-04   4.9584361E+04   -1.6556600E+00
   6.1431935E-04   4.9207606E+04   -1.6551663E+00
   6.1715634E-04   4.8833825E+04   -1.6546734E+00
   6.2000644E-04   4.8462994E+04   -1.6541815E+00
   6.2286969E-04   4.8095087E+04   -1.6536904E+00
