#        a       HoverH0(a)       dlogHdloga_of_a(a)
   1.0000000E-04   1.0532550E+06   -1.8771077E+00
   1.0046181E-04   1.0441860E+06   -1.8766801E+00
   1.0092575E-04   1.0351972E+06   -1.8762516E+00
   1.0139184E-04   1.0262877E+06   -1.8758220E+00
   1.0186008E-04   1.0174569E+06   -1.8753914E+00
   1.0233048E-04   1.0087041E+06   -1.8749599E+00
   1.0280305E-04   1.0000287E+06   -1.8745273E+00
   1.0327781E-04   9.9142975E+05   -1.8740938E+00
   1.0375475E-04   9.8290675E+05   -1.8736592E+00
   1.0423390E-04   9.7445898E+05   -1.8732237E+00
   1.0471527E-04   9.6608575E+05   -1.8727872E+00
   1.0519885E-04   9.5778640E+05   -1.8723497E+00
   1.0568467E-04   9.4956026E+05   -1.8719112E+00
   1.0617274E-04   9.4140668E+05   -1.8714717E+00
   1.0666305E-04   9.3332500E+05   -1.8710312E+00
   1.0715563E-04   9.2531458E+05   -1.8705898E+00
   1.0765049E-04   9.1737479E+05   -1.8701473E+00
   1.0814763E-04   9.0950497E+05   -1.8697039E+00
   1.0864707E-04   9.0170451E+05   -1.8692595E+00
   1.0914881E-04   8.9397279E+05   -1.8688141E+00
   1.0965287E-04   8.8630918E+05   -1.8683678E+00
   1.1015926E-04   8.7871308E+05   -1.8679204E+00
   1.1066799E-04   8.7118388E+05   -1.8674721E+00
   1.1117906E-04   8.6372098E+05   -1.8670229E+00
   1.1169250E-04   8.5632378E+05   -1.8665726E+00
   1.1220831E-04   8.4899169E+05   -1.8661214E+00
   1.1272650E-04   8.4172414E+05   -1.8656692E+00
   1.1324708E-04   8.3452054E+05   -1.8652161E+00
   1.1377007E-04   8.2738032E+05   -1.8647620E+00
   1.1429547E-04   8.2030291E+05   -1.8643069E+00
   1.1482330E-04   8.1328775E+05   -1.8638509E+00
   1.1535356E-04   8.0633428E+05   -1.8633939E+00
   1.1588628E-04   7.9944194E+05   -1.8629360E+00
   1.1642145E-04   7.9261019E+05   -1.8624771E+00
   1.1695910E-04   7.8583848E+05   -1.8620172E+00
   1.1749923E-04   7.7912629E+05   -1.8615564E+00
   1.1804185E-04   7.7247306E+05   -1.8610947E+00
   1.1858698E-04   7.6587828E+05   -1.8606320E+00
   1.1913463E-04   7.5934142E+05   -1.8601683E+00
   1.1968481E-04   7.5286197E+05   -1.8597038E+00
   1.2023752E-04   7.4643940E+05   -1.8592382E+00
   1.2079279E-04   7.4007321E+05   -1.8587718E+00
   1.2135063E-04   7.3376290E+05   -1.8583044E+00
   1.2191104E-04   7.2750796E+05   -1.8578361E+00
   1.2247403E-04   7.2130790E+05   -1.8573668E+00
   1.2303963E-04   7.1516223E+05   -1.8568966E+00
   1.2360784E-04   7.0907045E+05   -1.8564255E+00
   1.2417868E-04   7.0303210E+05   -1.8559534E+00
   1.2475215E-04   6.9704668E+05   -1.8554805E+00
   1.2532826E-04   6.9111373E+05   -1.8550066E+00
   1.2590704E-04   6.8523277E+05   -1.8545318E+00
   1.2648850E-04   6.7940335E+05   -1.8540561E+00
   1.2707263E-04   6.7362499E+05   -1.8535794E+00
   1.2765947E-04   6.6789725E+05   -1.8531019E+00
   1.2824901E-04   6.6221967E+05   -1.8526234E+00
   1.2884128E-04   6.5659180E+05   -1.8521441E+00
   1.2943628E-04   6.5101320E+05   -1.8516638E+00
   1.3003403E-04   6.4548343E+05   -1.8511826E+00
   1.3063454E-04   6.4000204E+05   -1.8507006E+00
   1.3123783E-04   6.3456862E+05   -1.8502176E+00
   1.3184390E-04   6.2918272E+05   -1.8497338E+00
   1.3245277E-04   6.2384393E+05   -1.8492490E+00
   1.3306445E-04   6.1855183E+05   -1.8487634E+00
   1.3367895E-04   6.1330599E+05   -1.8482769E+00
   1.3429630E-04   6.0810600E+05   -1.8477895E+00
   1.3491649E-04   6.0295145E+05   -1.8473012E+00
   1.3553955E-04   5.9784195E+05   -1.8468121E+00
   1.3616548E-04   5.9277708E+05   -1.8463220E+00
   1.3679431E-04   5.8775645E+05   -1.8458311E+00
   1.3742604E-04   5.8277966E+05   -1.8453394E+00
   1.3806069E-04   5.7784633E+05   -1.8448467E+00
   1.3869827E-04   5.7295605E+05   -1.8443532E+00
   1.3933879E-04   5.6810846E+05   -1.8438589E+00
   1.3998227E-04   5.6330316E+05   -1.8433637E+00
   1.4062872E-04   5.5853978E+05   -1.8428676E+00
   1.4127816E-04   5.5381795E+05   -1.8423707E+00
   1.4193060E-04   5.4913730E+05   -1.8418730E+00
   1.4258605E-04   5.4449745E+05   -1.8413744E+00
   1.4324453E-04   5.3989805E+05   -1.8408749E+00
   1.4390605E-04   5.3533873E+05   -1.8403746E+00
   1.4457062E-04   5.3081915E+05   -1.8398735E+00
   1.4523826E-04   5.2633893E+05   -1.8393716E+00
   1.4590899E-04   5.2189774E+05   -1.8388688E+00
   1.4658281E-04   5.1749522E+05   -1.8383652E+00
   1.4725974E-04   5.1313103E+05   -1.8378608E+00
   1.4793981E-04   5.0880482E+05   -1.8373556E+00
   1.4862301E-04   5.0451627E+05   -1.8368495E+00
   1.4930936E-04   5.0026503E+05   -1.8363427E+00
   1.4999889E-04   4.9605078E+05   -1.8358350E+00
   1.5069160E-04   4.9187317E+05   -1.8353265E+00
   1.5138751E-04   4.8773189E+05   -1.8348173E+00
   1.5208663E-04   4.8362662E+05   -1.8343072E+00
   1.5278899E-04   4.7955702E+05   -1.8337963E+00
   1.5349458E-04   4.7552279E+05   -1.8332847E+00
   1.5420343E-04   4.7152362E+05   -1.8327722E+00
   1.5491556E-04   4.6755918E+05   -1.8322590E+00
   1.5563098E-04   4.6362917E+05   -1.8317450E+00
   1.5634970E-04   4.5973328E+05   -1.8312302E+00
   1.5707174E-04   4.5587121E+05   -1.8307147E+00
   1.5779711E-04   4.5204266E+05   -1.8301984E+00
   1.5852584E-04   4.4824733E+05   -1.8296813E+00
   1.5925792E-04   4.4448492E+05   -1.8291635E+00
   1.5999339E-04   4.4075515E+05   -1.8286449E+00
   1.6073226E-04   4.3705772E+05   -1.8281255E+00
   1.6147454E-04   4.3339234E+05   -1.8276054E+00
   1.6222024E-04   4.2975874E+05   -1.8270846E+00
   1.6296939E-04   4.2615662E+05   -1.8265630E+00
   1.6372200E-04   4.2258571E+05   -1.8260407E+00
   1.6447809E-04   4.1904574E+05   -1.8255177E+00
   1.6523767E-04   4.1553641E+05   -1.8249939E+00
   1.6600075E-04   4.1205748E+05   -1.8244694E+00
   1.6676736E-04   4.0860865E+05   -1.8239442E+00
   1.6753751E-04   4.0518968E+05   -1.8234182E+00
   1.6831122E-04   4.0180028E+05   -1.8228916E+00
   1.6908849E-04   3.9844021E+05   -1.8223642E+00
   1.6986936E-04   3.9510919E+05   -1.8218361E+00
   1.7065384E-04   3.9180698E+05   -1.8213074E+00
   1.7144193E-04   3.8853331E+05   -1.8207779E+00
   1.7223367E-04   3.8528794E+05   -1.8202478E+00
   1.7302906E-04   3.8207061E+05   -1.8197169E+00
   1.7382813E-04   3.7888107E+05   -1.8191854E+00
   1.7463089E-04   3.7571908E+05   -1.8186532E+00
   1.7543735E-04   3.7258439E+05   -1.8181203E+00
   1.7624754E-04   3.6947676E+05   -1.8175868E+00
   1.7706147E-04   3.6639596E+05   -1.8170526E+00
   1.7787916E-04   3.6334173E+05   -1.8165177E+00
   1.7870062E-04   3.6031386E+05   -1.8159822E+00
   1.7952588E-04   3.5731210E+05   -1.8154460E+00
   1.8035495E-04   3.5433622E+05   -1.8149092E+00
   1.8118785E-04   3.5138600E+05   -1.8143717E+00
   1.8202459E-04   3.4846120E+05   -1.8138336E+00
   1.8286520E-04   3.4556161E+05   -1.8132949E+00
   1.8370969E-04   3.4268700E+05   -1.8127555E+00
   1.8455808E-04   3.3983714E+05   -1.8122155E+00
   1.8541039E-04   3.3701182E+05   -1.8116749E+00
   1.8626663E-04   3.3421083E+05   -1.8111337E+00
   1.8712683E-04   3.3143394E+05   -1.8105918E+00
   1.8799100E-04   3.2868095E+05   -1.8100494E+00
   1.8885917E-04   3.2595163E+05   -1.8095064E+00
   1.8973134E-04   3.2324579E+05   -1.8089627E+00
   1.9060754E-04   3.2056322E+05   -1.8084185E+00
   1.9148778E-04   3.1790371E+05   -1.8078737E+00
   1.9237209E-04   3.1526705E+05   -1.8073283E+00
   1.9326049E-04   3.1265304E+05   -1.8067823E+00
   1.9415299E-04   3.1006149E+05   -1.8062357E+00
   1.9504960E-04   3.0749220E+05   -1.8056886E+00
   1.9595036E-04   3.0494497E+05   -1.8051409E+00
   1.9685528E-04   3.0241960E+05   -1.8045927E+00
   1.9776438E-04   2.9991590E+05   -1.8040439E+00
   1.9867768E-04   2.9743368E+05   -1.8034946E+00
   1.9959519E-04   2.9497275E+05   -1.8029447E+00
   2.0051694E-04   2.9253293E+05   -1.8023943E+00
   2.0144295E-04   2.9011402E+05   -1.8018433E+00
   2.0237324E-04   2.8771585E+05   -1.8012919E+00
   2.0330782E-04   2.8533822E+05   -1.8007399E+00
   2.0424671E-04   2.8298096E+05   -1.8001874E+00
   2.0518995E-04   2.8064389E+05   -1.7996343E+00
   2.0613754E-04   2.7832683E+05   -1.7990808E+00
   2.0708950E-04   2.7602961E+05   -1.7985268E+00
   2.0804586E-04   2.7375205E+05   -1.7979722E+00
   2.0900664E-04   2.7149397E+05   -1.7974172E+00
   2.0997185E-04   2.6925521E+05   -1.7968617E+00
   2.1094152E-04   2.6703559E+05   -1.7963057E+00
   2.1191567E-04   2.6483495E+05   -1.7957493E+00
   2.1289432E-04   2.6265311E+05   -1.7951923E+00
   2.1387749E-04   2.6048993E+05   -1.7946350E+00
   2.1486520E-04   2.5834522E+05   -1.7940771E+00
   2.1585747E-04   2.5621882E+05   -1.7935188E+00
   2.1685432E-04   2.5411059E+05   -1.7929600E+00
   2.1785578E-04   2.5202035E+05   -1.7924008E+00
   2.1886186E-04   2.4994794E+05   -1.7918412E+00
   2.1987259E-04   2.4789322E+05   -1.7912811E+00
   2.2088798E-04   2.4585603E+05   -1.7907206E+00
   2.2190807E-04   2.4383620E+05   -1.7901597E+00
   2.2293286E-04   2.4183360E+05   -1.7895984E+00
   2.2396239E-04   2.3984806E+05   -1.7890367E+00
   2.2499667E-04   2.3787944E+05   -1.7884745E+00
   2.2603573E-04   2.3592759E+05   -1.7879120E+00
   2.2707958E-04   2.3399237E+05   -1.7873490E+00
   2.2812826E-04   2.3207362E+05   -1.7867857E+00
   2.2918178E-04   2.3017119E+05   -1.7862220E+00
   2.3024017E-04   2.2828496E+05   -1.7856579E+00
   2.3130344E-04   2.2641478E+05   -1.7850935E+00
   2.3237162E-04   2.2456050E+05   -1.7845286E+00
   2.3344474E-04   2.2272198E+05   -1.7839635E+00
   2.3452281E-04   2.2089909E+05   -1.7833979E+00
   2.3560586E-04   2.1909170E+05   -1.7828320E+00
   2.3669392E-04   2.1729966E+05   -1.7822658E+00
   2.3778699E-04   2.1552284E+05   -1.7816992E+00
   2.3888512E-04   2.1376110E+05   -1.7811323E+00
   2.3998831E-04   2.1201432E+05   -1.7805651E+00
   2.4109661E-04   2.1028237E+05   -1.7799976E+00
   2.4221001E-04   2.0856511E+05   -1.7794297E+00
   2.4332857E-04   2.0686241E+05   -1.7788616E+00
   2.4445228E-04   2.0517415E+05   -1.7782931E+00
   2.4558119E-04   2.0350020E+05   -1.7777243E+00
   2.4671531E-04   2.0184044E+05   -1.7771553E+00
   2.4785467E-04   2.0019474E+05   -1.7765859E+00
   2.4899928E-04   1.9856298E+05   -1.7760163E+00
   2.5014919E-04   1.9694504E+05   -1.7754464E+00
   2.5130440E-04   1.9534080E+05   -1.7748762E+00
   2.5246495E-04   1.9375013E+05   -1.7743058E+00
   2.5363086E-04   1.9217292E+05   -1.7737351E+00
   2.5480216E-04   1.9060905E+05   -1.7731642E+00
   2.5597886E-04   1.8905840E+05   -1.7725930E+00
   2.5716100E-04   1.8752086E+05   -1.7720216E+00
   2.5834859E-04   1.8599632E+05   -1.7714500E+00
   2.5954168E-04   1.8448465E+05   -1.7708781E+00
   2.6074027E-04   1.8298576E+05   -1.7703060E+00
   2.6194439E-04   1.8149952E+05   -1.7697337E+00
   2.6315408E-04   1.8002583E+05   -1.7691612E+00
   2.6436935E-04   1.7856457E+05   -1.7685885E+00
   2.6559024E-04   1.7711564E+05   -1.7680156E+00
   2.6681676E-04   1.7567894E+05   -1.7674425E+00
   2.6804895E-04   1.7425434E+05   -1.7668692E+00
   2.6928683E-04   1.7284176E+05   -1.7662957E+00
   2.7053042E-04   1.7144108E+05   -1.7657221E+00
   2.7177976E-04   1.7005220E+05   -1.7651482E+00
   2.7303487E-04   1.6867502E+05   -1.7645743E+00
   2.7429577E-04   1.6730943E+05   -1.7640002E+00
   2.7556250E-04   1.6595534E+05   -1.7634259E+00
   2.7683507E-04   1.6461265E+05   -1.7628515E+00
   2.7811353E-04   1.6328125E+05   -1.7622769E+00
   2.7939788E-04   1.6196104E+05   -1.7617022E+00
   2.8068817E-04   1.6065194E+05   -1.7611274E+00
   2.8198442E-04   1.5935384E+05   -1.7605525E+00
   2.8328665E-04   1.5806665E+05   -1.7599775E+00
   2.8459490E-04   1.5679027E+05   -1.7594023E+00
   2.8590919E-04   1.5552461E+05   -1.7588271E+00
   2.8722955E-04   1.5426957E+05   -1.7582517E+00
   2.8855600E-04   1.5302507E+05   -1.7576763E+00
   2.8988859E-04   1.5179101E+05   -1.7571008E+00
   2.9122732E-04   1.5056730E+05   -1.7565252E+00
   2.9257224E-04   1.4935385E+05   -1.7559496E+00
   2.9392337E-04   1.4815058E+05   -1.7553738E+00
   2.9528074E-04   1.4695739E+05   -1.7547981E+00
   2.9664438E-04   1.4577419E+05   -1.7542222E+00
   2.9801431E-04   1.4460091E+05   -1.7536464E+00
   2.9939057E-04   1.4343745E+05   -1.7530705E+00
   3.0077319E-04   1.4228373E+05   -1.7524945E+00
   3.0216219E-04   1.4113966E+05   -1.7519185E+00
   3.0355761E-04   1.4000517E+05   -1.7513425E+00
   3.0495947E-04   1.3888016E+05   -1.7507665E+00
   3.0636780E-04   1.3776455E+05   -1.7501905E+00
   3.0778264E-04   1.3665828E+05   -1.7496145E+00
   3.0920401E-04   1.3556124E+05   -1.7490385E+00
   3.1063195E-04   1.3447337E+05   -1.7484625E+00
   3.1206648E-04   1.3339458E+05   -1.7478865E+00
   3.1350764E-04   1.3232480E+05   -1.7473105E+00
   3.1495545E-04   1.3126394E+05   -1.7467346E+00
   3.1640994E-04   1.3021194E+05   -1.7461587E+00
   3.1787116E-04   1.2916871E+05   -1.7455828E+00
   3.1933912E-04   1.2813418E+05   -1.7450070E+00
   3.2081386E-04   1.2710827E+05   -1.7444312E+00
   3.2229541E-04   1.2609091E+05   -1.7438555E+00
   3.2378381E-04   1.2508202E+05   -1.7432799E+00
   3.2527908E-04   1.2408154E+05   -1.7427043E+00
   3.2678125E-04   1.2308938E+05   -1.7421288E+00
   3.2829036E-04   1.2210548E+05   -1.7415534E+00
   3.2980644E-04   1.2112977E+05   -1.7409781E+00
   3.3132952E-04   1.2016217E+05   -1.7404028E+00
   3.3285963E-04   1.1920262E+05   -1.7398277E+00
   3.3439681E-04   1.1825104E+05   -1.7392527E+00
   3.3594109E-04   1.1730737E+05   -1.7386778E+00
   3.3749250E-04   1.1637154E+05   -1.7381030E+00
   3.3905108E-04   1.1544348E+05   -1.7375283E+00
   3.4061685E-04   1.1452312E+05   -1.7369538E+00
   3.4218986E-04   1.1361041E+05   -1.7363794E+00
   3.4377013E-04   1.1270526E+05   -1.7358052E+00
   3.4535769E-04   1.1180763E+05   -1.7352311E+00
   3.4695259E-04   1.1091743E+05   -1.7346571E+00
   3.4855485E-04   1.1003461E+05   -1.7340833E+00
   3.5016452E-04   1.0915911E+05   -1.7335097E+00
   3.5178161E-04   1.0829086E+05   -1.7329363E+00
   3.5340618E-04   1.0742980E+05   -1.7323630E+00
   3.5503824E-04   1.0657587E+05   -1.7317899E+00
   3.5667785E-04   1.0572901E+05   -1.7312170E+00
   3.5832502E-04   1.0488915E+05   -1.7306443E+00
   3.5997981E-04   1.0405624E+05   -1.7300719E+00
   3.6164223E-04   1.0323021E+05   -1.7294996E+00
   3.6331233E-04   1.0241101E+05   -1.7289275E+00
   3.6499015E-04   1.0159858E+05   -1.7283557E+00
   3.6667571E-04   1.0079286E+05   -1.7277841E+00
   3.6836906E-04   9.9993795E+04   -1.7272127E+00
   3.7007022E-04   9.9201324E+04   -1.7266416E+00
   3.7177925E-04   9.8415393E+04   -1.7260707E+00
   3.7349616E-04   9.7635945E+04   -1.7255000E+00
   3.7522101E-04   9.6862924E+04   -1.7249296E+00
   3.7695382E-04   9.6096277E+04   -1.7243595E+00
   3.7869463E-04   9.5335948E+04   -1.7237897E+00
   3.8044348E-04   9.4581883E+04   -1.7232201E+00
   3.8220041E-04   9.3834028E+04   -1.7226508E+00
   3.8396545E-04   9.3092331E+04   -1.7220818E+00
   3.8573864E-04   9.2356739E+04   -1.7215130E+00
   3.8752002E-04   9.1627199E+04   -1.7209446E+00
   3.8930963E-04   9.0903659E+04   -1.7203765E+00
   3.9110750E-04   9.0186070E+04   -1.7198087E+00
   3.9291368E-04   8.9474378E+04   -1.7192412E+00
   3.9472820E-04   8.8768535E+04   -1.7186740E+00
   3.9655109E-04   8.8068491E+04   -1.7181072E+00
   3.9838241E-04   8.7374195E+04   -1.7175406E+00
   4.0022218E-04   8.6685599E+04   -1.7169745E+00
   4.0207045E-04   8.6002654E+04   -1.7164086E+00
   4.0392725E-04   8.5325312E+04   -1.7158431E+00
   4.0579263E-04   8.4653525E+04   -1.7152780E+00
   4.0766662E-04   8.3987246E+04   -1.7147132E+00
   4.0954927E-04   8.3326428E+04   -1.7141488E+00
   4.1144061E-04   8.2671024E+04   -1.7135848E+00
   4.1334068E-04   8.2020988E+04   -1.7130212E+00
   4.1524953E-04   8.1376275E+04   -1.7124579E+00
   4.1716720E-04   8.0736838E+04   -1.7118950E+00
   4.1909372E-04   8.0102634E+04   -1.7113325E+00
   4.2102914E-04   7.9473618E+04   -1.7107704E+00
   4.2297350E-04   7.8849745E+04   -1.7102087E+00
   4.2492683E-04   7.8230972E+04   -1.7096475E+00
   4.2688919E-04   7.7617255E+04   -1.7090866E+00
   4.2886061E-04   7.7008552E+04   -1.7085262E+00
   4.3084113E-04   7.6404820E+04   -1.7079662E+00
   4.3283080E-04   7.5806017E+04   -1.7074066E+00
   4.3482966E-04   7.5212100E+04   -1.7068475E+00
   4.3683775E-04   7.4623029E+04   -1.7062888E+00
   4.3885511E-04   7.4038762E+04   -1.7057305E+00
   4.4088179E-04   7.3459258E+04   -1.7051727E+00
   4.4291783E-04   7.2884477E+04   -1.7046154E+00
   4.4496327E-04   7.2314379E+04   -1.7040586E+00
   4.4701816E-04   7.1748925E+04   -1.7035022E+00
   4.4908253E-04   7.1188074E+04   -1.7029462E+00
   4.5115644E-04   7.0631788E+04   -1.7023908E+00
   4.5323993E-04   7.0080029E+04   -1.7018359E+00
   4.5533304E-04   6.9532758E+04   -1.7012814E+00
   4.5743582E-04   6.8989937E+04   -1.7007274E+00
   4.5954830E-04   6.8451527E+04   -1.7001740E+00
   4.6167054E-04   6.7917493E+04   -1.6996210E+00
   4.6380259E-04   6.7387797E+04   -1.6990686E+00
   4.6594448E-04   6.6862402E+04   -1.6985167E+00
   4.6809626E-04   6.6341272E+04   -1.6979653E+00
   4.7025797E-04   6.5824370E+04   -1.6974144E+00
   4.7242967E-04   6.5311662E+04   -1.6968640E+00
   4.7461140E-04   6.4803112E+04   -1.6963142E+00
   4.7680321E-04   6.4298684E+04   -1.6957650E+00
   4.7900514E-04   6.3798344E+04   -1.6952163E+00
   4.8121723E-04   6.3302058E+04   -1.6946681E+00
   4.8343954E-04   6.2809790E+04   -1.6941205E+00
   4.8567212E-04   6.2321508E+04   -1.6935735E+00
   4.8791500E-04   6.1837178E+04   -1.6930270E+00
   4.9016825E-04   6.1356766E+04   -1.6924811E+00
   4.9243189E-04   6.0880239E+04   -1.6919358E+00
   4.9470600E-04   6.0407565E+04   -1.6913910E+00
   4.9699060E-04   5.9938712E+04   -1.6908469E+00
   4.9928575E-04   5.9473646E+04   -1.6903033E+00
   5.0159151E-04   5.9012336E+04   -1.6897603E+00
   5.0390791E-04   5.8554751E+04   -1.6892180E+00
   5.0623501E-04   5.8100859E+04   -1.6886762E+00
   5.0857286E-04   5.7650629E+04   -1.6881351E+00
   5.1092150E-04   5.7204031E+04   -1.6875945E+00
   5.1328099E-04   5.6761034E+04   -1.6870546E+00
   5.1565137E-04   5.6321607E+04   -1.6865153E+00
   5.1803270E-04   5.5885722E+04   -1.6859767E+00
   5.2042503E-04   5.5453347E+04   -1.6854387E+00
   5.2282841E-04   5.5024453E+04   -1.6849013E+00
   5.2524289E-04   5.4599012E+04   -1.6843645E+00
   5.2766851E-04   5.4176994E+04   -1.6838284E+00
   5.3010534E-04   5.3758371E+04   -1.6832930E+00
   5.3255342E-04   5.3343114E+04   -1.6827582E+00
   5.3501281E-04   5.2931195E+04   -1.6822241E+00
   5.3748356E-04   5.2522586E+04   -1.6816906E+00
   5.3996571E-04   5.2117259E+04   -1.6811579E+00
   5.4245933E-04   5.1715188E+04   -1.6806257E+00
   5.4496446E-04   5.1316344E+04   -1.6800943E+00
   5.4748117E-04   5.0920700E+04   -1.6795636E+00
   5.5000949E-04   5.0528231E+04   -1.6790335E+00
   5.5254949E-04   5.0138908E+04   -1.6785041E+00
   5.5510123E-04   4.9752707E+04   -1.6779754E+00
   5.5766474E-04   4.9369601E+04   -1.6774475E+00
   5.6024010E-04   4.8989563E+04   -1.6769202E+00
   5.6282734E-04   4.8612569E+04   -1.6763936E+00
   5.6542654E-04   4.8238594E+04   -1.6758678E+00
   5.6803774E-04   4.7867611E+04   -1.6753427E+00
   5.7066099E-04   4.7499596E+04   -1.6748182E+00
   5.7329637E-04   4.7134524E+04   -1.6742945E+00
   5.7594391E-04   4.6772371E+04   -1.6737716E+00
   5.7860368E-04   4.6413112E+04   -1.6732494E+00
   5.8127573E-04   4.6056724E+04   -1.6727279E+00
   5.8396012E-04   4.5703181E+04   -1.6722071E+00
   5.8665691E-04   4.5352462E+04   -1.6716871E+00
   5.8936616E-04   4.5004541E+04   -1.6711679E+00
   5.9208791E-04   4.4659396E+04   -1.6706494E+00
   5.9482223E-04   4.4317005E+04   -1.6701316E+00
   5.9756919E-04   4.3977342E+04   -1.6696146E+00
   6.0032882E-04   4.3640387E+04   -1.6690984E+00
   6.0310120E-04   4.3306117E+04   -1.6685830E+00
   6.0588639E-04   4.2974509E+04   -1.6680683E+00
   6.0868443E-04   4.2645542E+04   -1.6675544E+00
   6.1149540E-04   4.2319192E+04   -1.6670412E+00
   6.1431935E-04   4.1995440E+04   -1.6665289E+00
   6.1715634E-04   4.1674262E+04   -1.6660173E+00
   6.2000644E-04   4.1355639E+04   -1.6655066E+00
   6.2286969E-04   4.1039547E+04   -1.6649966E+00
