#        a       HoverH0(a)       dlogHdloga_of_a(a)
   1.0000000E-04   1.1725110E+06   -1.8747536E+00
   1.0046181E-04   1.1624278E+06   -1.8743206E+00
   1.0092575E-04   1.1524336E+06   -1.8738865E+00
   1.0139184E-04   1.1425276E+06   -1.8734515E+00
   1.0186008E-04   1.1327090E+06   -1.8730155E+00
   1.0233048E-04   1.1229771E+06   -1.8725785E+00
   1.0280305E-04   1.1133310E+06   -1.8721405E+00
   1.0327781E-04   1.1037700E+06   -1.8717016E+00
   1.0375475E-04   1.0942933E+06   -1.8712616E+00
   1.0423390E-04   1.0849002E+06   -1.8708207E+00
   1.0471527E-04   1.0755899E+06   -1.8703787E+00
   1.0519885E-04   1.0663617E+06   -1.8699358E+00
   1.0568467E-04   1.0572148E+06   -1.8694919E+00
   1.0617274E-04   1.0481485E+06   -1.8690471E+00
   1.0666305E-04   1.0391621E+06   -1.8686012E+00
   1.0715563E-04   1.0302549E+06   -1.8681544E+00
   1.0765049E-04   1.0214261E+06   -1.8677066E+00
   1.0814763E-04   1.0126751E+06   -1.8672579E+00
   1.0864707E-04   1.0040011E+06   -1.8668081E+00
   1.0914881E-04   9.9540347E+05   -1.8663574E+00
   1.0965287E-04   9.8688153E+05   -1.8659058E+00
   1.1015926E-04   9.7843459E+05   -1.8654531E+00
   1.1066799E-04   9.7006196E+05   -1.8649995E+00
   1.1117906E-04   9.6176300E+05   -1.8645450E+00
   1.1169250E-04   9.5353704E+05   -1.8640894E+00
   1.1220831E-04   9.4538341E+05   -1.8636329E+00
   1.1272650E-04   9.3730148E+05   -1.8631755E+00
   1.1324708E-04   9.2929061E+05   -1.8627171E+00
   1.1377007E-04   9.2135015E+05   -1.8622578E+00
   1.1429547E-04   9.1347947E+05   -1.8617975E+00
   1.1482330E-04   9.0567795E+05   -1.8613362E+00
   1.1535356E-04   8.9794498E+05   -1.8608740E+00
   1.1588628E-04   8.9027992E+05   -1.8604109E+00
   1.1642145E-04   8.8268218E+05   -1.8599468E+00
   1.1695910E-04   8.7515115E+05   -1.8594817E+00
   1.1749923E-04   8.6768624E+05   -1.8590158E+00
   1.1804185E-04   8.6028686E+05   -1.8585489E+00
   1.1858698E-04   8.5295240E+05   -1.8580810E+00
   1.1913463E-04   8.4568231E+05   -1.8576123E+00
   1.1968481E-04   8.3847599E+05   -1.8571425E+00
   1.2023752E-04   8.3133288E+05   -1.8566719E+00
   1.2079279E-04   8.2425242E+05   -1.8562004E+00
   1.2135063E-04   8.1723403E+05   -1.8557279E+00
   1.2191104E-04   8.1027718E+05   -1.8552545E+00
   1.2247403E-04   8.0338130E+05   -1.8547801E+00
   1.2303963E-04   7.9654584E+05   -1.8543049E+00
   1.2360784E-04   7.8977028E+05   -1.8538287E+00
   1.2417868E-04   7.8305407E+05   -1.8533517E+00
   1.2475215E-04   7.7639669E+05   -1.8528737E+00
   1.2532826E-04   7.6979760E+05   -1.8523948E+00
   1.2590704E-04   7.6325628E+05   -1.8519150E+00
   1.2648850E-04   7.5677222E+05   -1.8514343E+00
   1.2707263E-04   7.5034492E+05   -1.8509527E+00
   1.2765947E-04   7.4397385E+05   -1.8504702E+00
   1.2824901E-04   7.3765852E+05   -1.8499869E+00
   1.2884128E-04   7.3139843E+05   -1.8495026E+00
   1.2943628E-04   7.2519308E+05   -1.8490174E+00
   1.3003403E-04   7.1904199E+05   -1.8485314E+00
   1.3063454E-04   7.1294467E+05   -1.8480444E+00
   1.3123783E-04   7.0690065E+05   -1.8475566E+00
   1.3184390E-04   7.0090944E+05   -1.8470679E+00
   1.3245277E-04   6.9497057E+05   -1.8465784E+00
   1.3306445E-04   6.8908357E+05   -1.8460879E+00
   1.3367895E-04   6.8324800E+05   -1.8455966E+00
   1.3429630E-04   6.7746337E+05   -1.8451044E+00
   1.3491649E-04   6.7172924E+05   -1.8446114E+00
   1.3553955E-04   6.6604517E+05   -1.8441175E+00
   1.3616548E-04   6.6041069E+05   -1.8436227E+00
   1.3679431E-04   6.5482538E+05   -1.8431271E+00
   1.3742604E-04   6.4928879E+05   -1.8426307E+00
   1.3806069E-04   6.4380048E+05   -1.8421333E+00
   1.3869827E-04   6.3836003E+05   -1.8416352E+00
   1.3933879E-04   6.3296700E+05   -1.8411362E+00
   1.3998227E-04   6.2762098E+05   -1.8406363E+00
   1.4062872E-04   6.2232155E+05   -1.8401357E+00
   1.4127816E-04   6.1706829E+05   -1.8396342E+00
   1.4193060E-04   6.1186079E+05   -1.8391318E+00
   1.4258605E-04   6.0669864E+05   -1.8386287E+00
   1.4324453E-04   6.0158144E+05   -1.8381247E+00
   1.4390605E-04   5.9650879E+05   -1.8376199E+00
   1.4457062E-04   5.9148029E+05   -1.8371143E+00
   1.4523826E-04   5.8649554E+05   -1.8366078E+00
   1.4590899E-04   5.8155416E+05   -1.8361006E+00
   1.4658281E-04   5.7665577E+05   -1.8355925E+00
   1.4725974E-04   5.7179997E+05   -1.8350837E+00
   1.4793981E-04   5.6698639E+05   -1.8345740E+00
   1.4862301E-04   5.6221466E+05   -1.8340636E+00
   1.4930936E-04   5.5748439E+05   -1.8335523E+00
   1.4999889E-04   5.5279523E+05   -1.8330403E+00
   1.5069160E-04   5.4814680E+05   -1.8325275E+00
   1.5138751E-04   5.4353874E+05   -1.8320139E+00
   1.5208663E-04   5.3897070E+05   -1.8314995E+00
   1.5278899E-04   5.3444232E+05   -1.8309844E+00
   1.5349458E-04   5.2995325E+05   -1.8304685E+00
   1.5420343E-04   5.2550313E+05   -1.8299518E+00
   1.5491556E-04   5.2109162E+05   -1.8294344E+00
   1.5563098E-04   5.1671838E+05   -1.8289162E+00
   1.5634970E-04   5.1238307E+05   -1.8283972E+00
   1.5707174E-04   5.0808534E+05   -1.8278775E+00
   1.5779711E-04   5.0382487E+05   -1.8273571E+00
   1.5852584E-04   4.9960132E+05   -1.8268359E+00
   1.5925792E-04   4.9541437E+05   -1.8263140E+00
   1.5999339E-04   4.9126369E+05   -1.8257913E+00
   1.6073226E-04   4.8714896E+05   -1.8252679E+00
   1.6147454E-04   4.8306986E+05   -1.8247438E+00
   1.6222024E-04   4.7902608E+05   -1.8242189E+00
   1.6296939E-04   4.7501729E+05   -1.8236934E+00
   1.6372200E-04   4.7104320E+05   -1.8231671E+00
   1.6447809E-04   4.6710348E+05   -1.8226401E+00
   1.6523767E-04   4.6319784E+05   -1.8221124E+00
   1.6600075E-04   4.5932598E+05   -1.8215840E+00
   1.6676736E-04   4.5548759E+05   -1.8210549E+00
   1.6753751E-04   4.5168238E+05   -1.8205251E+00
   1.6831122E-04   4.4791005E+05   -1.8199947E+00
   1.6908849E-04   4.4417031E+05   -1.8194635E+00
   1.6986936E-04   4.4046288E+05   -1.8189317E+00
   1.7065384E-04   4.3678746E+05   -1.8183991E+00
   1.7144193E-04   4.3314377E+05   -1.8178659E+00
   1.7223367E-04   4.2953154E+05   -1.8173321E+00
   1.7302906E-04   4.2595048E+05   -1.8167976E+00
   1.7382813E-04   4.2240032E+05   -1.8162624E+00
   1.7463089E-04   4.1888078E+05   -1.8157265E+00
   1.7543735E-04   4.1539159E+05   -1.8151901E+00
   1.7624754E-04   4.1193248E+05   -1.8146529E+00
   1.7706147E-04   4.0850319E+05   -1.8141152E+00
   1.7787916E-04   4.0510346E+05   -1.8135768E+00
   1.7870062E-04   4.0173301E+05   -1.8130377E+00
   1.7952588E-04   3.9839160E+05   -1.8124981E+00
   1.8035495E-04   3.9507896E+05   -1.8119578E+00
   1.8118785E-04   3.9179484E+05   -1.8114169E+00
   1.8202459E-04   3.8853899E+05   -1.8108753E+00
   1.8286520E-04   3.8531116E+05   -1.8103332E+00
   1.8370969E-04   3.8211110E+05   -1.8097905E+00
   1.8455808E-04   3.7893856E+05   -1.8092472E+00
   1.8541039E-04   3.7579331E+05   -1.8087032E+00
   1.8626663E-04   3.7267510E+05   -1.8081587E+00
   1.8712683E-04   3.6958369E+05   -1.8076136E+00
   1.8799100E-04   3.6651884E+05   -1.8070680E+00
   1.8885917E-04   3.6348032E+05   -1.8065217E+00
   1.8973134E-04   3.6046791E+05   -1.8059749E+00
   1.9060754E-04   3.5748135E+05   -1.8054275E+00
   1.9148778E-04   3.5452044E+05   -1.8048796E+00
   1.9237209E-04   3.5158494E+05   -1.8043311E+00
   1.9326049E-04   3.4867463E+05   -1.8037820E+00
   1.9415299E-04   3.4578928E+05   -1.8032324E+00
   1.9504960E-04   3.4292868E+05   -1.8026823E+00
   1.9595036E-04   3.4009261E+05   -1.8021316E+00
   1.9685528E-04   3.3728084E+05   -1.8015804E+00
   1.9776438E-04   3.3449318E+05   -1.8010287E+00
   1.9867768E-04   3.3172940E+05   -1.8004765E+00
   1.9959519E-04   3.2898929E+05   -1.7999237E+00
   2.0051694E-04   3.2627264E+05   -1.7993705E+00
   2.0144295E-04   3.2357926E+05   -1.7988167E+00
   2.0237324E-04   3.2090893E+05   -1.7982624E+00
   2.0330782E-04   3.1826144E+05   -1.7977077E+00
   2.0424671E-04   3.1563661E+05   -1.7971524E+00
   2.0518995E-04   3.1303422E+05   -1.7965967E+00
   2.0613754E-04   3.1045409E+05   -1.7960405E+00
   2.0708950E-04   3.0789601E+05   -1.7954838E+00
   2.0804586E-04   3.0535980E+05   -1.7949266E+00
   2.0900664E-04   3.0284525E+05   -1.7943690E+00
   2.0997185E-04   3.0035218E+05   -1.7938110E+00
   2.1094152E-04   2.9788041E+05   -1.7932524E+00
   2.1191567E-04   2.9542973E+05   -1.7926935E+00
   2.1289432E-04   2.9299997E+05   -1.7921341E+00
   2.1387749E-04   2.9059094E+05   -1.7915742E+00
   2.1486520E-04   2.8820247E+05   -1.7910140E+00
   2.1585747E-04   2.8583436E+05   -1.7904533E+00
   2.1685432E-04   2.8348645E+05   -1.7898922E+00
   2.1785578E-04   2.8115854E+05   -1.7893306E+00
   2.1886186E-04   2.7885048E+05   -1.7887687E+00
   2.1987259E-04   2.7656208E+05   -1.7882064E+00
   2.2088798E-04   2.7429317E+05   -1.7876436E+00
   2.2190807E-04   2.7204358E+05   -1.7870805E+00
   2.2293286E-04   2.6981314E+05   -1.7865170E+00
   2.2396239E-04   2.6760168E+05   -1.7859531E+00
   2.2499667E-04   2.6540904E+05   -1.7853889E+00
   2.2603573E-04   2.6323505E+05   -1.7848242E+00
   2.2707958E-04   2.6107954E+05   -1.7842592E+00
   2.2812826E-04   2.5894236E+05   -1.7836939E+00
   2.2918178E-04   2.5682334E+05   -1.7831282E+00
   2.3024017E-04   2.5472233E+05   -1.7825621E+00
   2.3130344E-04   2.5263917E+05   -1.7819958E+00
   2.3237162E-04   2.5057369E+05   -1.7814290E+00
   2.3344474E-04   2.4852575E+05   -1.7808620E+00
   2.3452281E-04   2.4649520E+05   -1.7802946E+00
   2.3560586E-04   2.4448187E+05   -1.7797269E+00
   2.3669392E-04   2.4248562E+05   -1.7791589E+00
   2.3778699E-04   2.4050631E+05   -1.7785906E+00
   2.3888512E-04   2.3854377E+05   -1.7780220E+00
   2.3998831E-04   2.3659786E+05   -1.7774531E+00
   2.4109661E-04   2.3466845E+05   -1.7768839E+00
   2.4221001E-04   2.3275538E+05   -1.7763144E+00
   2.4332857E-04   2.3085851E+05   -1.7757447E+00
   2.4445228E-04   2.2897770E+05   -1.7751747E+00
   2.4558119E-04   2.2711282E+05   -1.7746044E+00
   2.4671531E-04   2.2526371E+05   -1.7740338E+00
   2.4785467E-04   2.2343024E+05   -1.7734631E+00
   2.4899928E-04   2.2161228E+05   -1.7728920E+00
   2.5014919E-04   2.1980969E+05   -1.7723207E+00
   2.5130440E-04   2.1802234E+05   -1.7717492E+00
   2.5246495E-04   2.1625009E+05   -1.7711775E+00
   2.5363086E-04   2.1449281E+05   -1.7706055E+00
   2.5480216E-04   2.1275038E+05   -1.7700333E+00
   2.5597886E-04   2.1102265E+05   -1.7694609E+00
   2.5716100E-04   2.0930951E+05   -1.7688883E+00
   2.5834859E-04   2.0761082E+05   -1.7683155E+00
   2.5954168E-04   2.0592646E+05   -1.7677425E+00
   2.6074027E-04   2.0425631E+05   -1.7671693E+00
   2.6194439E-04   2.0260023E+05   -1.7665959E+00
   2.6315408E-04   2.0095812E+05   -1.7660223E+00
   2.6436935E-04   1.9932984E+05   -1.7654486E+00
   2.6559024E-04   1.9771528E+05   -1.7648747E+00
   2.6681676E-04   1.9611431E+05   -1.7643007E+00
   2.6804895E-04   1.9452682E+05   -1.7637265E+00
   2.6928683E-04   1.9295270E+05   -1.7631522E+00
   2.7053042E-04   1.9139181E+05   -1.7625777E+00
   2.7177976E-04   1.8984406E+05   -1.7620031E+00
   2.7303487E-04   1.8830932E+05   -1.7614283E+00
   2.7429577E-04   1.8678749E+05   -1.7608535E+00
   2.7556250E-04   1.8527844E+05   -1.7602785E+00
   2.7683507E-04   1.8378207E+05   -1.7597034E+00
   2.7811353E-04   1.8229827E+05   -1.7591282E+00
   2.7939788E-04   1.8082693E+05   -1.7585529E+00
   2.8068817E-04   1.7936794E+05   -1.7579776E+00
   2.8198442E-04   1.7792119E+05   -1.7574021E+00
   2.8328665E-04   1.7648658E+05   -1.7568266E+00
   2.8459490E-04   1.7506400E+05   -1.7562510E+00
   2.8590919E-04   1.7365335E+05   -1.7556753E+00
   2.8722955E-04   1.7225453E+05   -1.7550995E+00
   2.8855600E-04   1.7086742E+05   -1.7545237E+00
   2.8988859E-04   1.6949194E+05   -1.7539479E+00
   2.9122732E-04   1.6812797E+05   -1.7533720E+00
   2.9257224E-04   1.6677542E+05   -1.7527961E+00
   2.9392337E-04   1.6543419E+05   -1.7522201E+00
   2.9528074E-04   1.6410418E+05   -1.7516441E+00
   2.9664438E-04   1.6278530E+05   -1.7510682E+00
   2.9801431E-04   1.6147745E+05   -1.7504921E+00
   2.9939057E-04   1.6018053E+05   -1.7499161E+00
   3.0077319E-04   1.5889444E+05   -1.7493401E+00
   3.0216219E-04   1.5761911E+05   -1.7487641E+00
   3.0355761E-04   1.5635442E+05   -1.7481881E+00
   3.0495947E-04   1.5510029E+05   -1.7476121E+00
   3.0636780E-04   1.5385663E+05   -1.7470362E+00
   3.0778264E-04   1.5262335E+05   -1.7464603E+00
   3.0920401E-04   1.5140035E+05   -1.7458844E+00
   3.1063195E-04   1.5018755E+05   -1.7453085E+00
   3.1206648E-04   1.4898486E+05   -1.7447328E+00
   3.1350764E-04   1.4779220E+05   -1.7441570E+00
   3.1495545E-04   1.4660947E+05   -1.7435813E+00
   3.1640994E-04   1.4543660E+05   -1.7430057E+00
   3.1787116E-04   1.4427348E+05   -1.7424302E+00
   3.1933912E-04   1.4312005E+05   -1.7418548E+00
   3.2081386E-04   1.4197622E+05   -1.7412794E+00
   3.2229541E-04   1.4084191E+05   -1.7407041E+00
   3.2378381E-04   1.3971702E+05   -1.7401289E+00
   3.2527908E-04   1.3860149E+05   -1.7395539E+00
   3.2678125E-04   1.3749523E+05   -1.7389789E+00
   3.2829036E-04   1.3639816E+05   -1.7384040E+00
   3.2980644E-04   1.3531020E+05   -1.7378293E+00
   3.3132952E-04   1.3423127E+05   -1.7372547E+00
   3.3285963E-04   1.3316130E+05   -1.7366803E+00
   3.3439681E-04   1.3210021E+05   -1.7361059E+00
   3.3594109E-04   1.3104792E+05   -1.7355318E+00
   3.3749250E-04   1.3000436E+05   -1.7349577E+00
   3.3905108E-04   1.2896944E+05   -1.7343839E+00
   3.4061685E-04   1.2794311E+05   -1.7338102E+00
   3.4218986E-04   1.2692528E+05   -1.7332366E+00
   3.4377013E-04   1.2591587E+05   -1.7326633E+00
   3.4535769E-04   1.2491483E+05   -1.7320901E+00
   3.4695259E-04   1.2392207E+05   -1.7315171E+00
   3.4855485E-04   1.2293753E+05   -1.7309444E+00
   3.5016452E-04   1.2196112E+05   -1.7303718E+00
   3.5178161E-04   1.2099280E+05   -1.7297994E+00
   3.5340618E-04   1.2003247E+05   -1.7292272E+00
   3.5503824E-04   1.1908009E+05   -1.7286553E+00
   3.5667785E-04   1.1813557E+05   -1.7280835E+00
   3.5832502E-04   1.1719885E+05   -1.7275120E+00
   3.5997981E-04   1.1626987E+05   -1.7269408E+00
   3.6164223E-04   1.1534855E+05   -1.7263698E+00
   3.6331233E-04   1.1443483E+05   -1.7257990E+00
   3.6499015E-04   1.1352865E+05   -1.7252285E+00
   3.6667571E-04   1.1262995E+05   -1.7246582E+00
   3.6836906E-04   1.1173865E+05   -1.7240882E+00
   3.7007022E-04   1.1085469E+05   -1.7235185E+00
   3.7177925E-04   1.0997802E+05   -1.7229491E+00
   3.7349616E-04   1.0910856E+05   -1.7223799E+00
   3.7522101E-04   1.0824626E+05   -1.7218110E+00
   3.7695382E-04   1.0739106E+05   -1.7212425E+00
   3.7869463E-04   1.0654290E+05   -1.7206742E+00
   3.8044348E-04   1.0570171E+05   -1.7201062E+00
   3.8220041E-04   1.0486743E+05   -1.7195386E+00
   3.8396545E-04   1.0404001E+05   -1.7189712E+00
   3.8573864E-04   1.0321940E+05   -1.7184042E+00
   3.8752002E-04   1.0240552E+05   -1.7178375E+00
   3.8930963E-04   1.0159832E+05   -1.7172712E+00
   3.9110750E-04   1.0079775E+05   -1.7167052E+00
   3.9291368E-04   1.0000375E+05   -1.7161395E+00
   3.9472820E-04   9.9216256E+04   -1.7155742E+00
   3.9655109E-04   9.8435224E+04   -1.7150092E+00
   3.9838241E-04   9.7660595E+04   -1.7144446E+00
   4.0022218E-04   9.6892313E+04   -1.7138804E+00
   4.0207045E-04   9.6130326E+04   -1.7133166E+00
   4.0392725E-04   9.5374578E+04   -1.7127531E+00
   4.0579263E-04   9.4625018E+04   -1.7121900E+00
   4.0766662E-04   9.3881592E+04   -1.7116273E+00
   4.0954927E-04   9.3144248E+04   -1.7110651E+00
   4.1144061E-04   9.2412935E+04   -1.7105032E+00
   4.1334068E-04   9.1687600E+04   -1.7099417E+00
   4.1524953E-04   9.0968194E+04   -1.7093806E+00
   4.1716720E-04   9.0254666E+04   -1.7088200E+00
   4.1909372E-04   8.9546966E+04   -1.7082597E+00
   4.2102914E-04   8.8845044E+04   -1.7076999E+00
   4.2297350E-04   8.8148851E+04   -1.7071406E+00
   4.2492683E-04   8.7458339E+04   -1.7065817E+00
   4.2688919E-04   8.6773460E+04   -1.7060232E+00
   4.2886061E-04   8.6094165E+04   -1.7054652E+00
   4.3084113E-04   8.5420408E+04   -1.7049076E+00
   4.3283080E-04   8.4752141E+04   -1.7043505E+00
   4.3482966E-04   8.4089318E+04   -1.7037939E+00
   4.3683775E-04   8.3431892E+04   -1.7032377E+00
   4.3885511E-04   8.2779819E+04   -1.7026820E+00
   4.4088179E-04   8.2133051E+04   -1.7021268E+00
   4.4291783E-04   8.1491546E+04   -1.7015721E+00
   4.4496327E-04   8.0855257E+04   -1.7010179E+00
   4.4701816E-04   8.0224142E+04   -1.7004642E+00
   4.4908253E-04   7.9598155E+04   -1.6999110E+00
   4.5115644E-04   7.8977255E+04   -1.6993583E+00
   4.5323993E-04   7.8361397E+04   -1.6988061E+00
   4.5533304E-04   7.7750539E+04   -1.6982544E+00
   4.5743582E-04   7.7144640E+04   -1.6977033E+00
   4.5954830E-04   7.6543656E+04   -1.6971527E+00
   4.6167054E-04   7.5947546E+04   -1.6966026E+00
   4.6380259E-04   7.5356270E+04   -1.6960530E+00
   4.6594448E-04   7.4769787E+04   -1.6955041E+00
   4.6809626E-04   7.4188055E+04   -1.6949556E+00
   4.7025797E-04   7.3611036E+04   -1.6944077E+00
   4.7242967E-04   7.3038688E+04   -1.6938604E+00
   4.7461140E-04   7.2470973E+04   -1.6933136E+00
   4.7680321E-04   7.1907853E+04   -1.6927674E+00
   4.7900514E-04   7.1349287E+04   -1.6922218E+00
   4.8121723E-04   7.0795238E+04   -1.6916768E+00
   4.8343954E-04   7.0245668E+04   -1.6911323E+00
   4.8567212E-04   6.9700538E+04   -1.6905885E+00
   4.8791500E-04   6.9159813E+04   -1.6900452E+00
   4.9016825E-04   6.8623454E+04   -1.6895025E+00
   4.9243189E-04   6.8091424E+04   -1.6889605E+00
   4.9470600E-04   6.7563688E+04   -1.6884190E+00
   4.9699060E-04   6.7040210E+04   -1.6878781E+00
   4.9928575E-04   6.6520952E+04   -1.6873379E+00
   5.0159151E-04   6.6005881E+04   -1.6867983E+00
   5.0390791E-04   6.5494961E+04   -1.6862593E+00
   5.0623501E-04   6.4988157E+04   -1.6857210E+00
   5.0857286E-04   6.4485435E+04   -1.6851833E+00
   5.1092150E-04   6.3986759E+04   -1.6846462E+00
   5.1328099E-04   6.3492098E+04   -1.6841098E+00
   5.1565137E-04   6.3001416E+04   -1.6835740E+00
   5.1803270E-04   6.2514680E+04   -1.6830389E+00
   5.2042503E-04   6.2031857E+04   -1.6825044E+00
   5.2282841E-04   6.1552915E+04   -1.6819706E+00
   5.2524289E-04   6.1077821E+04   -1.6814375E+00
   5.2766851E-04   6.0606543E+04   -1.6809050E+00
   5.3010534E-04   6.0139048E+04   -1.6803733E+00
   5.3255342E-04   5.9675306E+04   -1.6798422E+00
   5.3501281E-04   5.9215285E+04   -1.6793117E+00
   5.3748356E-04   5.8758953E+04   -1.6787820E+00
   5.3996571E-04   5.8306280E+04   -1.6782530E+00
   5.4245933E-04   5.7857235E+04   -1.6777246E+00
   5.4496446E-04   5.7411789E+04   -1.6771970E+00
   5.4748117E-04   5.6969910E+04   -1.6766701E+00
   5.5000949E-04   5.6531569E+04   -1.6761439E+00
   5.5254949E-04   5.6096737E+04   -1.6756184E+00
   5.5510123E-04   5.5665385E+04   -1.6750936E+00
   5.5766474E-04   5.5237483E+04   -1.6745695E+00
   5.6024010E-04   5.4813002E+04   -1.6740462E+00
   5.6282734E-04   5.4391914E+04   -1.6735236E+00
   5.6542654E-04   5.3974191E+04   -1.6730017E+00
   5.6803774E-04   5.3559805E+04   -1.6724806E+00
   5.7066099E-04   5.3148728E+04   -1.6719602E+00
   5.7329637E-04   5.2740932E+04   -1.6714406E+00
   5.7594391E-04   5.2336390E+04   -1.6709217E+00
   5.7860368E-04   5.1935076E+04   -1.6704036E+00
   5.8127573E-04   5.1536961E+04   -1.6698862E+00
   5.8396012E-04   5.1142021E+04   -1.6693696E+00
   5.8665691E-04   5.0750227E+04   -1.6688537E+00
   5.8936616E-04   5.0361555E+04   -1.6683386E+00
   5.9208791E-04   4.9975977E+04   -1.6678243E+00
   5.9482223E-04   4.9593470E+04   -1.6673108E+00
   5.9756919E-04   4.9214006E+04   -1.6667981E+00
   6.0032882E-04   4.8837561E+04   -1.6662861E+00
   6.0310120E-04   4.8464109E+04   -1.6657749E+00
   6.0588639E-04   4.8093627E+04   -1.6652645E+00
   6.0868443E-04   4.7726089E+04   -1.6647550E+00
   6.1149540E-04   4.7361471E+04   -1.6642462E+00
   6.1431935E-04   4.6999748E+04   -1.6637382E+00
   6.1715634E-04   4.6640897E+04   -1.6632310E+00
   6.2000644E-04   4.6284895E+04   -1.6627246E+00
   6.2286969E-04   4.5931716E+04   -1.6622191E+00
