#        a       HoverH0(a)       dlogHdloga_of_a(a)
   1.0000000E-04   1.0783820E+06   -1.8942559E+00
   1.0046181E-04   1.0690121E+06   -1.8938712E+00
   1.0092575E-04   1.0597254E+06   -1.8934855E+00
   1.0139184E-04   1.0505213E+06   -1.8930988E+00
   1.0186008E-04   1.0413990E+06   -1.8927110E+00
   1.0233048E-04   1.0323578E+06   -1.8923222E+00
   1.0280305E-04   1.0233969E+06   -1.8919324E+00
   1.0327781E-04   1.0145156E+06   -1.8915416E+00
   1.0375475E-04   1.0057132E+06   -1.8911498E+00
   1.0423390E-04   9.9698897E+05   -1.8907569E+00
   1.0471527E-04   9.8834221E+05   -1.8903630E+00
   1.0519885E-04   9.7977221E+05   -1.8899681E+00
   1.0568467E-04   9.7127830E+05   -1.8895722E+00
   1.0617274E-04   9.6285979E+05   -1.8891752E+00
   1.0666305E-04   9.5451599E+05   -1.8887772E+00
   1.0715563E-04   9.4624623E+05   -1.8883783E+00
   1.0765049E-04   9.3804985E+05   -1.8879782E+00
   1.0814763E-04   9.2992618E+05   -1.8875772E+00
   1.0864707E-04   9.2187456E+05   -1.8871752E+00
   1.0914881E-04   9.1389436E+05   -1.8867721E+00
   1.0965287E-04   9.0598492E+05   -1.8863680E+00
   1.1015926E-04   8.9814561E+05   -1.8859629E+00
   1.1066799E-04   8.9037579E+05   -1.8855568E+00
   1.1117906E-04   8.8267485E+05   -1.8851497E+00
   1.1169250E-04   8.7504215E+05   -1.8847416E+00
   1.1220831E-04   8.6747709E+05   -1.8843324E+00
   1.1272650E-04   8.5997905E+05   -1.8839222E+00
   1.1324708E-04   8.5254744E+05   -1.8835110E+00
   1.1377007E-04   8.4518165E+05   -1.8830988E+00
   1.1429547E-04   8.3788110E+05   -1.8826856E+00
   1.1482330E-04   8.3064519E+05   -1.8822714E+00
   1.1535356E-04   8.2347334E+05   -1.8818562E+00
   1.1588628E-04   8.1636498E+05   -1.8814399E+00
   1.1642145E-04   8.0931953E+05   -1.8810227E+00
   1.1695910E-04   8.0233643E+05   -1.8806044E+00
   1.1749923E-04   7.9541512E+05   -1.8801851E+00
   1.1804185E-04   7.8855503E+05   -1.8797648E+00
   1.1858698E-04   7.8175563E+05   -1.8793436E+00
   1.1913463E-04   7.7501637E+05   -1.8789213E+00
   1.1968481E-04   7.6833669E+05   -1.8784980E+00
   1.2023752E-04   7.6171608E+05   -1.8780737E+00
   1.2079279E-04   7.5515399E+05   -1.8776484E+00
   1.2135063E-04   7.4864991E+05   -1.8772221E+00
   1.2191104E-04   7.4220330E+05   -1.8767948E+00
   1.2247403E-04   7.3581365E+05   -1.8763664E+00
   1.2303963E-04   7.2948046E+05   -1.8759371E+00
   1.2360784E-04   7.2320320E+05   -1.8755068E+00
   1.2417868E-04   7.1698139E+05   -1.8750755E+00
   1.2475215E-04   7.1081451E+05   -1.8746432E+00
   1.2532826E-04   7.0470209E+05   -1.8742100E+00
   1.2590704E-04   6.9864362E+05   -1.8737757E+00
   1.2648850E-04   6.9263862E+05   -1.8733404E+00
   1.2707263E-04   6.8668662E+05   -1.8729041E+00
   1.2765947E-04   6.8078714E+05   -1.8724669E+00
   1.2824901E-04   6.7493970E+05   -1.8720286E+00
   1.2884128E-04   6.6914384E+05   -1.8715894E+00
   1.2943628E-04   6.6339909E+05   -1.8711492E+00
   1.3003403E-04   6.5770500E+05   -1.8707080E+00
   1.3063454E-04   6.5206111E+05   -1.8702658E+00
   1.3123783E-04   6.4646697E+05   -1.8698226E+00
   1.3184390E-04   6.4092213E+05   -1.8693785E+00
   1.3245277E-04   6.3542615E+05   -1.8689334E+00
   1.3306445E-04   6.2997860E+05   -1.8684873E+00
   1.3367895E-04   6.2457903E+05   -1.8680402E+00
   1.3429630E-04   6.1922701E+05   -1.8675922E+00
   1.3491649E-04   6.1392213E+05   -1.8671431E+00
   1.3553955E-04   6.0866396E+05   -1.8666931E+00
   1.3616548E-04   6.0345207E+05   -1.8662422E+00
   1.3679431E-04   5.9828606E+05   -1.8657903E+00
   1.3742604E-04   5.9316551E+05   -1.8653374E+00
   1.3806069E-04   5.8809001E+05   -1.8648835E+00
   1.3869827E-04   5.8305917E+05   -1.8644287E+00
   1.3933879E-04   5.7807257E+05   -1.8639729E+00
   1.3998227E-04   5.7312982E+05   -1.8635162E+00
   1.4062872E-04   5.6823053E+05   -1.8630585E+00
   1.4127816E-04   5.6337432E+05   -1.8625998E+00
   1.4193060E-04   5.5856078E+05   -1.8621402E+00
   1.4258605E-04   5.5378955E+05   -1.8616797E+00
   1.4324453E-04   5.4906024E+05   -1.8612182E+00
   1.4390605E-04   5.4437248E+05   -1.8607557E+00
   1.4457062E-04   5.3972589E+05   -1.8602923E+00
   1.4523826E-04   5.3512011E+05   -1.8598280E+00
   1.4590899E-04   5.3055477E+05   -1.8593627E+00
   1.4658281E-04   5.2602950E+05   -1.8588965E+00
   1.4725974E-04   5.2154395E+05   -1.8584293E+00
   1.4793981E-04   5.1709777E+05   -1.8579612E+00
   1.4862301E-04   5.1269060E+05   -1.8574922E+00
   1.4930936E-04   5.0832209E+05   -1.8570223E+00
   1.4999889E-04   5.0399189E+05   -1.8565514E+00
   1.5069160E-04   4.9969967E+05   -1.8560796E+00
   1.5138751E-04   4.9544508E+05   -1.8556068E+00
   1.5208663E-04   4.9122778E+05   -1.8551332E+00
   1.5278899E-04   4.8704745E+05   -1.8546586E+00
   1.5349458E-04   4.8290375E+05   -1.8541831E+00
   1.5420343E-04   4.7879635E+05   -1.8537067E+00
   1.5491556E-04   4.7472493E+05   -1.8532294E+00
   1.5563098E-04   4.7068917E+05   -1.8527512E+00
   1.5634970E-04   4.6668875E+05   -1.8522721E+00
   1.5707174E-04   4.6272335E+05   -1.8517920E+00
   1.5779711E-04   4.5879266E+05   -1.8513111E+00
   1.5852584E-04   4.5489636E+05   -1.8508293E+00
   1.5925792E-04   4.5103416E+05   -1.8503465E+00
   1.5999339E-04   4.4720575E+05   -1.8498629E+00
   1.6073226E-04   4.4341082E+05   -1.8493784E+00
   1.6147454E-04   4.3964907E+05   -1.8488930E+00
   1.6222024E-04   4.3592022E+05   -1.8484067E+00
   1.6296939E-04   4.3222396E+05   -1.8479195E+00
   1.6372200E-04   4.2856000E+05   -1.8474315E+00
   1.6447809E-04   4.2492807E+05   -1.8469426E+00
   1.6523767E-04   4.2132786E+05   -1.8464528E+00
   1.6600075E-04   4.1775909E+05   -1.8459621E+00
   1.6676736E-04   4.1422150E+05   -1.8454705E+00
   1.6753751E-04   4.1071479E+05   -1.8449781E+00
   1.6831122E-04   4.0723869E+05   -1.8444849E+00
   1.6908849E-04   4.0379293E+05   -1.8439907E+00
   1.6986936E-04   4.0037723E+05   -1.8434957E+00
   1.7065384E-04   3.9699134E+05   -1.8429999E+00
   1.7144193E-04   3.9363498E+05   -1.8425032E+00
   1.7223367E-04   3.9030789E+05   -1.8420056E+00
   1.7302906E-04   3.8700982E+05   -1.8415073E+00
   1.7382813E-04   3.8374049E+05   -1.8410080E+00
   1.7463089E-04   3.8049965E+05   -1.8405080E+00
   1.7543735E-04   3.7728706E+05   -1.8400071E+00
   1.7624754E-04   3.7410245E+05   -1.8395053E+00
   1.7706147E-04   3.7094559E+05   -1.8390028E+00
   1.7787916E-04   3.6781621E+05   -1.8384994E+00
   1.7870062E-04   3.6471408E+05   -1.8379952E+00
   1.7952588E-04   3.6163896E+05   -1.8374901E+00
   1.8035495E-04   3.5859060E+05   -1.8369843E+00
   1.8118785E-04   3.5556876E+05   -1.8364776E+00
   1.8202459E-04   3.5257321E+05   -1.8359702E+00
   1.8286520E-04   3.4960372E+05   -1.8354619E+00
   1.8370969E-04   3.4666005E+05   -1.8349528E+00
   1.8455808E-04   3.4374197E+05   -1.8344430E+00
   1.8541039E-04   3.4084926E+05   -1.8339323E+00
   1.8626663E-04   3.3798168E+05   -1.8334208E+00
   1.8712683E-04   3.3513902E+05   -1.8329086E+00
   1.8799100E-04   3.3232106E+05   -1.8323956E+00
   1.8885917E-04   3.2952757E+05   -1.8318818E+00
   1.8973134E-04   3.2675833E+05   -1.8313672E+00
   1.9060754E-04   3.2401314E+05   -1.8308518E+00
   1.9148778E-04   3.2129177E+05   -1.8303357E+00
   1.9237209E-04   3.1859401E+05   -1.8298188E+00
   1.9326049E-04   3.1591967E+05   -1.8293012E+00
   1.9415299E-04   3.1326851E+05   -1.8287828E+00
   1.9504960E-04   3.1064035E+05   -1.8282636E+00
   1.9595036E-04   3.0803498E+05   -1.8277437E+00
   1.9685528E-04   3.0545219E+05   -1.8272230E+00
   1.9776438E-04   3.0289178E+05   -1.8267016E+00
   1.9867768E-04   3.0035356E+05   -1.8261795E+00
   1.9959519E-04   2.9783732E+05   -1.8256566E+00
   2.0051694E-04   2.9534288E+05   -1.8251330E+00
   2.0144295E-04   2.9287003E+05   -1.8246087E+00
   2.0237324E-04   2.9041859E+05   -1.8240837E+00
   2.0330782E-04   2.8798837E+05   -1.8235579E+00
   2.0424671E-04   2.8557918E+05   -1.8230314E+00
   2.0518995E-04   2.8319082E+05   -1.8225042E+00
   2.0613754E-04   2.8082313E+05   -1.8219763E+00
   2.0708950E-04   2.7847591E+05   -1.8214477E+00
   2.0804586E-04   2.7614898E+05   -1.8209185E+00
   2.0900664E-04   2.7384216E+05   -1.8203885E+00
   2.0997185E-04   2.7155527E+05   -1.8198578E+00
   2.1094152E-04   2.6928815E+05   -1.8193264E+00
   2.1191567E-04   2.6704060E+05   -1.8187944E+00
   2.1289432E-04   2.6481246E+05   -1.8182617E+00
   2.1387749E-04   2.6260356E+05   -1.8177283E+00
   2.1486520E-04   2.6041373E+05   -1.8171943E+00
   2.1585747E-04   2.5824279E+05   -1.8166595E+00
   2.1685432E-04   2.5609058E+05   -1.8161242E+00
   2.1785578E-04   2.5395693E+05   -1.8155882E+00
   2.1886186E-04   2.5184168E+05   -1.8150515E+00
   2.1987259E-04   2.4974467E+05   -1.8145142E+00
   2.2088798E-04   2.4766573E+05   -1.8139762E+00
   2.2190807E-04   2.4560471E+05   -1.8134376E+00
   2.2293286E-04   2.4356145E+05   -1.8128984E+00
   2.2396239E-04   2.4153578E+05   -1.8123586E+00
   2.2499667E-04   2.3952756E+05   -1.8118181E+00
   2.2603573E-04   2.3753662E+05   -1.8112770E+00
   2.2707958E-04   2.3556283E+05   -1.8107353E+00
   2.2812826E-04   2.3360601E+05   -1.8101930E+00
   2.2918178E-04   2.3166603E+05   -1.8096501E+00
   2.3024017E-04   2.2974274E+05   -1.8091066E+00
   2.3130344E-04   2.2783598E+05   -1.8085625E+00
   2.3237162E-04   2.2594562E+05   -1.8080178E+00
   2.3344474E-04   2.2407150E+05   -1.8074726E+00
   2.3452281E-04   2.2221349E+05   -1.8069267E+00
   2.3560586E-04   2.2037144E+05   -1.8063803E+00
   2.3669392E-04   2.1854521E+05   -1.8058333E+00
   2.3778699E-04   2.1673466E+05   -1.8052858E+00
   2.3888512E-04   2.1493965E+05   -1.8047376E+00
   2.3998831E-04   2.1316004E+05   -1.8041890E+00
   2.4109661E-04   2.1139571E+05   -1.8036398E+00
   2.4221001E-04   2.0964651E+05   -1.8030900E+00
   2.4332857E-04   2.0791231E+05   -1.8025397E+00
   2.4445228E-04   2.0619297E+05   -1.8019889E+00
   2.4558119E-04   2.0448838E+05   -1.8014375E+00
   2.4671531E-04   2.0279839E+05   -1.8008857E+00
   2.4785467E-04   2.0112288E+05   -1.8003333E+00
   2.4899928E-04   1.9946173E+05   -1.7997804E+00
   2.5014919E-04   1.9781479E+05   -1.7992269E+00
   2.5130440E-04   1.9618196E+05   -1.7986730E+00
   2.5246495E-04   1.9456310E+05   -1.7981186E+00
   2.5363086E-04   1.9295809E+05   -1.7975637E+00
   2.5480216E-04   1.9136681E+05   -1.7970083E+00
   2.5597886E-04   1.8978914E+05   -1.7964524E+00
   2.5716100E-04   1.8822496E+05   -1.7958960E+00
   2.5834859E-04   1.8667415E+05   -1.7953392E+00
   2.5954168E-04   1.8513659E+05   -1.7947819E+00
   2.6074027E-04   1.8361217E+05   -1.7942242E+00
   2.6194439E-04   1.8210077E+05   -1.7936660E+00
   2.6315408E-04   1.8060228E+05   -1.7931073E+00
   2.6436935E-04   1.7911657E+05   -1.7925482E+00
   2.6559024E-04   1.7764355E+05   -1.7919886E+00
   2.6681676E-04   1.7618309E+05   -1.7914287E+00
   2.6804895E-04   1.7473510E+05   -1.7908683E+00
   2.6928683E-04   1.7329945E+05   -1.7903074E+00
   2.7053042E-04   1.7187604E+05   -1.7897462E+00
   2.7177976E-04   1.7046476E+05   -1.7891845E+00
   2.7303487E-04   1.6906551E+05   -1.7886225E+00
   2.7429577E-04   1.6767818E+05   -1.7880600E+00
   2.7556250E-04   1.6630266E+05   -1.7874971E+00
   2.7683507E-04   1.6493885E+05   -1.7869339E+00
   2.7811353E-04   1.6358666E+05   -1.7863703E+00
   2.7939788E-04   1.6224597E+05   -1.7858062E+00
   2.8068817E-04   1.6091669E+05   -1.7852419E+00
   2.8198442E-04   1.5959871E+05   -1.7846771E+00
   2.8328665E-04   1.5829194E+05   -1.7841120E+00
   2.8459490E-04   1.5699628E+05   -1.7835465E+00
   2.8590919E-04   1.5571163E+05   -1.7829807E+00
   2.8722955E-04   1.5443789E+05   -1.7824145E+00
   2.8855600E-04   1.5317498E+05   -1.7818480E+00
   2.8988859E-04   1.5192279E+05   -1.7812812E+00
   2.9122732E-04   1.5068122E+05   -1.7807140E+00
   2.9257224E-04   1.4945020E+05   -1.7801465E+00
   2.9392337E-04   1.4822962E+05   -1.7795787E+00
   2.9528074E-04   1.4701939E+05   -1.7790106E+00
   2.9664438E-04   1.4581943E+05   -1.7784422E+00
   2.9801431E-04   1.4462964E+05   -1.7778735E+00
   2.9939057E-04   1.4344993E+05   -1.7773045E+00
   3.0077319E-04   1.4228022E+05   -1.7767352E+00
   3.0216219E-04   1.4112041E+05   -1.7761656E+00
   3.0355761E-04   1.3997043E+05   -1.7755958E+00
   3.0495947E-04   1.3883019E+05   -1.7750256E+00
   3.0636780E-04   1.3769959E+05   -1.7744553E+00
   3.0778264E-04   1.3657856E+05   -1.7738846E+00
   3.0920401E-04   1.3546701E+05   -1.7733137E+00
   3.1063195E-04   1.3436487E+05   -1.7727426E+00
   3.1206648E-04   1.3327204E+05   -1.7721712E+00
   3.1350764E-04   1.3218845E+05   -1.7715996E+00
   3.1495545E-04   1.3111401E+05   -1.7710277E+00
   3.1640994E-04   1.3004865E+05   -1.7704557E+00
   3.1787116E-04   1.2899228E+05   -1.7698834E+00
   3.1933912E-04   1.2794484E+05   -1.7693109E+00
   3.2081386E-04   1.2690623E+05   -1.7687382E+00
   3.2229541E-04   1.2587639E+05   -1.7681653E+00
   3.2378381E-04   1.2485523E+05   -1.7675922E+00
   3.2527908E-04   1.2384269E+05   -1.7670189E+00
   3.2678125E-04   1.2283868E+05   -1.7664455E+00
   3.2829036E-04   1.2184313E+05   -1.7658718E+00
   3.2980644E-04   1.2085597E+05   -1.7652980E+00
   3.3132952E-04   1.1987713E+05   -1.7647241E+00
   3.3285963E-04   1.1890653E+05   -1.7641500E+00
   3.3439681E-04   1.1794409E+05   -1.7635757E+00
   3.3594109E-04   1.1698976E+05   -1.7630013E+00
   3.3749250E-04   1.1604346E+05   -1.7624267E+00
   3.3905108E-04   1.1510512E+05   -1.7618521E+00
   3.4061685E-04   1.1417466E+05   -1.7612772E+00
   3.4218986E-04   1.1325203E+05   -1.7607023E+00
   3.4377013E-04   1.1233715E+05   -1.7601273E+00
   3.4535769E-04   1.1142996E+05   -1.7595521E+00
   3.4695259E-04   1.1053038E+05   -1.7589769E+00
   3.4855485E-04   1.0963836E+05   -1.7584015E+00
   3.5016452E-04   1.0875383E+05   -1.7578261E+00
   3.5178161E-04   1.0787672E+05   -1.7572505E+00
   3.5340618E-04   1.0700696E+05   -1.7566749E+00
   3.5503824E-04   1.0614450E+05   -1.7560993E+00
   3.5667785E-04   1.0528927E+05   -1.7555235E+00
   3.5832502E-04   1.0444121E+05   -1.7549477E+00
   3.5997981E-04   1.0360025E+05   -1.7543719E+00
   3.6164223E-04   1.0276634E+05   -1.7537960E+00
   3.6331233E-04   1.0193941E+05   -1.7532200E+00
   3.6499015E-04   1.0111941E+05   -1.7526441E+00
   3.6667571E-04   1.0030626E+05   -1.7520681E+00
   3.6836906E-04   9.9499920E+04   -1.7514920E+00
   3.7007022E-04   9.8700322E+04   -1.7509160E+00
   3.7177925E-04   9.7907410E+04   -1.7503399E+00
   3.7349616E-04   9.7121126E+04   -1.7497639E+00
   3.7522101E-04   9.6341412E+04   -1.7491878E+00
   3.7695382E-04   9.5568211E+04   -1.7486118E+00
   3.7869463E-04   9.4801467E+04   -1.7480357E+00
   3.8044348E-04   9.4041125E+04   -1.7474597E+00
   3.8220041E-04   9.3287129E+04   -1.7468837E+00
   3.8396545E-04   9.2539423E+04   -1.7463078E+00
   3.8573864E-04   9.1797954E+04   -1.7457319E+00
   3.8752002E-04   9.1062667E+04   -1.7451560E+00
   3.8930963E-04   9.0333510E+04   -1.7445802E+00
   3.9110750E-04   8.9610429E+04   -1.7440044E+00
   3.9291368E-04   8.8893371E+04   -1.7434287E+00
   3.9472820E-04   8.8182285E+04   -1.7428531E+00
   3.9655109E-04   8.7477120E+04   -1.7422775E+00
   3.9838241E-04   8.6777823E+04   -1.7417020E+00
   4.0022218E-04   8.6084346E+04   -1.7411266E+00
   4.0207045E-04   8.5396636E+04   -1.7405513E+00
   4.0392725E-04   8.4714645E+04   -1.7399761E+00
   4.0579263E-04   8.4038323E+04   -1.7394010E+00
   4.0766662E-04   8.3367622E+04   -1.7388260E+00
   4.0954927E-04   8.2702492E+04   -1.7382512E+00
   4.1144061E-04   8.2042886E+04   -1.7376764E+00
   4.1334068E-04   8.1388756E+04   -1.7371018E+00
   4.1524953E-04   8.0740056E+04   -1.7365274E+00
   4.1716720E-04   8.0096738E+04   -1.7359530E+00
   4.1909372E-04   7.9458756E+04   -1.7353788E+00
   4.2102914E-04   7.8826064E+04   -1.7348048E+00
   4.2297350E-04   7.8198616E+04   -1.7342309E+00
   4.2492683E-04   7.7576368E+04   -1.7336572E+00
   4.2688919E-04   7.6959275E+04   -1.7330837E+00
   4.2886061E-04   7.6347293E+04   -1.7325103E+00
   4.3084113E-04   7.5740377E+04   -1.7319371E+00
   4.3283080E-04   7.5138484E+04   -1.7313642E+00
   4.3482966E-04   7.4541571E+04   -1.7307914E+00
   4.3683775E-04   7.3949595E+04   -1.7302188E+00
   4.3885511E-04   7.3362514E+04   -1.7296464E+00
   4.4088179E-04   7.2780285E+04   -1.7290742E+00
   4.4291783E-04   7.2202868E+04   -1.7285023E+00
   4.4496327E-04   7.1630220E+04   -1.7279306E+00
   4.4701816E-04   7.1062301E+04   -1.7273591E+00
   4.4908253E-04   7.0499071E+04   -1.7267878E+00
   4.5115644E-04   6.9940488E+04   -1.7262168E+00
   4.5323993E-04   6.9386514E+04   -1.7256460E+00
   4.5533304E-04   6.8837109E+04   -1.7250755E+00
   4.5743582E-04   6.8292234E+04   -1.7245053E+00
   4.5954830E-04   6.7751849E+04   -1.7239353E+00
   4.6167054E-04   6.7215917E+04   -1.7233656E+00
   4.6380259E-04   6.6684399E+04   -1.7227962E+00
   4.6594448E-04   6.6157258E+04   -1.7222270E+00
   4.6809626E-04   6.5634456E+04   -1.7216582E+00
   4.7025797E-04   6.5115955E+04   -1.7210896E+00
   4.7242967E-04   6.4601720E+04   -1.7205214E+00
   4.7461140E-04   6.4091714E+04   -1.7199534E+00
   4.7680321E-04   6.3585901E+04   -1.7193858E+00
   4.7900514E-04   6.3084244E+04   -1.7188185E+00
   4.8121723E-04   6.2586709E+04   -1.7182515E+00
   4.8343954E-04   6.2093260E+04   -1.7176848E+00
   4.8567212E-04   6.1603862E+04   -1.7171185E+00
   4.8791500E-04   6.1118481E+04   -1.7165525E+00
   4.9016825E-04   6.0637082E+04   -1.7159869E+00
   4.9243189E-04   6.0159632E+04   -1.7154216E+00
   4.9470600E-04   5.9686096E+04   -1.7148567E+00
   4.9699060E-04   5.9216442E+04   -1.7142921E+00
   4.9928575E-04   5.8750637E+04   -1.7137279E+00
   5.0159151E-04   5.8288646E+04   -1.7131641E+00
   5.0390791E-04   5.7830439E+04   -1.7126007E+00
   5.0623501E-04   5.7375983E+04   -1.7120377E+00
   5.0857286E-04   5.6925246E+04   -1.7114750E+00
   5.1092150E-04   5.6478196E+04   -1.7109127E+00
   5.1328099E-04   5.6034802E+04   -1.7103509E+00
   5.1565137E-04   5.5595033E+04   -1.7097895E+00
   5.1803270E-04   5.5158857E+04   -1.7092284E+00
   5.2042503E-04   5.4726246E+04   -1.7086678E+00
   5.2282841E-04   5.4297167E+04   -1.7081076E+00
   5.2524289E-04   5.3871592E+04   -1.7075479E+00
   5.2766851E-04   5.3449490E+04   -1.7069886E+00
   5.3010534E-04   5.3030831E+04   -1.7064297E+00
   5.3255342E-04   5.2615588E+04   -1.7058713E+00
   5.3501281E-04   5.2203730E+04   -1.7053133E+00
   5.3748356E-04   5.1795229E+04   -1.7047558E+00
   5.3996571E-04   5.1390057E+04   -1.7041988E+00
   5.4245933E-04   5.0988185E+04   -1.7036422E+00
   5.4496446E-04   5.0589586E+04   -1.7030861E+00
   5.4748117E-04   5.0194231E+04   -1.7025304E+00
   5.5000949E-04   4.9802093E+04   -1.7019753E+00
   5.5254949E-04   4.9413145E+04   -1.7014207E+00
   5.5510123E-04   4.9027360E+04   -1.7008665E+00
   5.5766474E-04   4.8644711E+04   -1.7003128E+00
   5.6024010E-04   4.8265172E+04   -1.6997597E+00
   5.6282734E-04   4.7888715E+04   -1.6992070E+00
   5.6542654E-04   4.7515316E+04   -1.6986549E+00
   5.6803774E-04   4.7144949E+04   -1.6981033E+00
   5.7066099E-04   4.6777587E+04   -1.6975522E+00
   5.7329637E-04   4.6413205E+04   -1.6970017E+00
   5.7594391E-04   4.6051779E+04   -1.6964517E+00
   5.7860368E-04   4.5693283E+04   -1.6959022E+00
   5.8127573E-04   4.5337692E+04   -1.6953533E+00
   5.8396012E-04   4.4984982E+04   -1.6948049E+00
   5.8665691E-04   4.4635129E+04   -1.6942571E+00
   5.8936616E-04   4.4288109E+04   -1.6937098E+00
   5.9208791E-04   4.3943897E+04   -1.6931631E+00
   5.9482223E-04   4.3602470E+04   -1.6926170E+00
   5.9756919E-04   4.3263805E+04   -1.6920715E+00
   6.0032882E-04   4.2927878E+04   -1.6915265E+00
   6.0310120E-04   4.2594667E+04   -1.6909821E+00
   6.0588639E-04   4.2264147E+04   -1.6904383E+00
   6.0868443E-04   4.1936298E+04   -1.6898951E+00
   6.1149540E-04   4.1611095E+04   -1.6893525E+00
   6.1431935E-04   4.1288518E+04   -1.6888106E+00
   6.1715634E-04   4.0968544E+04   -1.6882692E+00
   6.2000644E-04   4.0651150E+04   -1.6877284E+00
   6.2286969E-04   4.0336317E+04   -1.6871883E+00
