#        a       HoverH0(a)       dlogHdloga_of_a(a)
   1.0000000E-04   1.1113907E+06   -1.8910821E+00
   1.0046181E-04   1.1017501E+06   -1.8906891E+00
   1.0092575E-04   1.0921951E+06   -1.8902950E+00
   1.0139184E-04   1.0827249E+06   -1.8899000E+00
   1.0186008E-04   1.0733388E+06   -1.8895039E+00
   1.0233048E-04   1.0640361E+06   -1.8891067E+00
   1.0280305E-04   1.0548158E+06   -1.8887086E+00
   1.0327781E-04   1.0456774E+06   -1.8883094E+00
   1.0375475E-04   1.0366201E+06   -1.8879092E+00
   1.0423390E-04   1.0276431E+06   -1.8875080E+00
   1.0471527E-04   1.0187458E+06   -1.8871058E+00
   1.0519885E-04   1.0099273E+06   -1.8867026E+00
   1.0568467E-04   1.0011871E+06   -1.8862983E+00
   1.0617274E-04   9.9252430E+05   -1.8858931E+00
   1.0666305E-04   9.8393834E+05   -1.8854868E+00
   1.0715563E-04   9.7542848E+05   -1.8850795E+00
   1.0765049E-04   9.6699403E+05   -1.8846712E+00
   1.0814763E-04   9.5863433E+05   -1.8842618E+00
   1.0864707E-04   9.5034869E+05   -1.8838515E+00
   1.0914881E-04   9.4213644E+05   -1.8834401E+00
   1.0965287E-04   9.3399693E+05   -1.8830277E+00
   1.1015926E-04   9.2592951E+05   -1.8826144E+00
   1.1066799E-04   9.1793351E+05   -1.8822000E+00
   1.1117906E-04   9.1000831E+05   -1.8817846E+00
   1.1169250E-04   9.0215326E+05   -1.8813681E+00
   1.1220831E-04   8.9436773E+05   -1.8809507E+00
   1.1272650E-04   8.8665110E+05   -1.8805323E+00
   1.1324708E-04   8.7900274E+05   -1.8801128E+00
   1.1377007E-04   8.7142205E+05   -1.8796924E+00
   1.1429547E-04   8.6390841E+05   -1.8792709E+00
   1.1482330E-04   8.5646122E+05   -1.8788484E+00
   1.1535356E-04   8.4907988E+05   -1.8784250E+00
   1.1588628E-04   8.4176380E+05   -1.8780005E+00
   1.1642145E-04   8.3451239E+05   -1.8775750E+00
   1.1695910E-04   8.2732508E+05   -1.8771486E+00
   1.1749923E-04   8.2020127E+05   -1.8767211E+00
   1.1804185E-04   8.1314042E+05   -1.8762926E+00
   1.1858698E-04   8.0614194E+05   -1.8758631E+00
   1.1913463E-04   7.9920528E+05   -1.8754327E+00
   1.1968481E-04   7.9232987E+05   -1.8750012E+00
   1.2023752E-04   7.8551519E+05   -1.8745687E+00
   1.2079279E-04   7.7876066E+05   -1.8741353E+00
   1.2135063E-04   7.7206577E+05   -1.8737008E+00
   1.2191104E-04   7.6542996E+05   -1.8732654E+00
   1.2247403E-04   7.5885271E+05   -1.8728289E+00
   1.2303963E-04   7.5233349E+05   -1.8723915E+00
   1.2360784E-04   7.4587178E+05   -1.8719531E+00
   1.2417868E-04   7.3946707E+05   -1.8715137E+00
   1.2475215E-04   7.3311884E+05   -1.8710733E+00
   1.2532826E-04   7.2682658E+05   -1.8706319E+00
   1.2590704E-04   7.2058979E+05   -1.8701896E+00
   1.2648850E-04   7.1440798E+05   -1.8697463E+00
   1.2707263E-04   7.0828065E+05   -1.8693020E+00
   1.2765947E-04   7.0220732E+05   -1.8688567E+00
   1.2824901E-04   6.9618749E+05   -1.8684104E+00
   1.2884128E-04   6.9022069E+05   -1.8679632E+00
   1.2943628E-04   6.8430644E+05   -1.8675149E+00
   1.3003403E-04   6.7844427E+05   -1.8670658E+00
   1.3063454E-04   6.7263371E+05   -1.8666156E+00
   1.3123783E-04   6.6687430E+05   -1.8661645E+00
   1.3184390E-04   6.6116558E+05   -1.8657124E+00
   1.3245277E-04   6.5550710E+05   -1.8652593E+00
   1.3306445E-04   6.4989840E+05   -1.8648053E+00
   1.3367895E-04   6.4433904E+05   -1.8643503E+00
   1.3429630E-04   6.3882858E+05   -1.8638944E+00
   1.3491649E-04   6.3336657E+05   -1.8634375E+00
   1.3553955E-04   6.2795259E+05   -1.8629796E+00
   1.3616548E-04   6.2258620E+05   -1.8625208E+00
   1.3679431E-04   6.1726698E+05   -1.8620610E+00
   1.3742604E-04   6.1199451E+05   -1.8616003E+00
   1.3806069E-04   6.0676836E+05   -1.8611387E+00
   1.3869827E-04   6.0158811E+05   -1.8606761E+00
   1.3933879E-04   5.9645337E+05   -1.8602125E+00
   1.3998227E-04   5.9136372E+05   -1.8597480E+00
   1.4062872E-04   5.8631875E+05   -1.8592826E+00
   1.4127816E-04   5.8131807E+05   -1.8588162E+00
   1.4193060E-04   5.7636128E+05   -1.8583489E+00
   1.4258605E-04   5.7144799E+05   -1.8578806E+00
   1.4324453E-04   5.6657781E+05   -1.8574114E+00
   1.4390605E-04   5.6175035E+05   -1.8569413E+00
   1.4457062E-04   5.5696522E+05   -1.8564703E+00
   1.4523826E-04   5.5222206E+05   -1.8559983E+00
   1.4590899E-04   5.4752049E+05   -1.8555254E+00
   1.4658281E-04   5.4286012E+05   -1.8550516E+00
   1.4725974E-04   5.3824060E+05   -1.8545769E+00
   1.4793981E-04   5.3366156E+05   -1.8541013E+00
   1.4862301E-04   5.2912264E+05   -1.8536247E+00
   1.4930936E-04   5.2462347E+05   -1.8531472E+00
   1.4999889E-04   5.2016371E+05   -1.8526689E+00
   1.5069160E-04   5.1574299E+05   -1.8521896E+00
   1.5138751E-04   5.1136098E+05   -1.8517094E+00
   1.5208663E-04   5.0701731E+05   -1.8512283E+00
   1.5278899E-04   5.0271167E+05   -1.8507463E+00
   1.5349458E-04   4.9844369E+05   -1.8502635E+00
   1.5420343E-04   4.9421305E+05   -1.8497797E+00
   1.5491556E-04   4.9001941E+05   -1.8492950E+00
   1.5563098E-04   4.8586244E+05   -1.8488095E+00
   1.5634970E-04   4.8174182E+05   -1.8483230E+00
   1.5707174E-04   4.7765721E+05   -1.8478357E+00
   1.5779711E-04   4.7360830E+05   -1.8473475E+00
   1.5852584E-04   4.6959477E+05   -1.8468584E+00
   1.5925792E-04   4.6561631E+05   -1.8463685E+00
   1.5999339E-04   4.6167259E+05   -1.8458776E+00
   1.6073226E-04   4.5776330E+05   -1.8453860E+00
   1.6147454E-04   4.5388816E+05   -1.8448934E+00
   1.6222024E-04   4.5004683E+05   -1.8444000E+00
   1.6296939E-04   4.4623904E+05   -1.8439057E+00
   1.6372200E-04   4.4246447E+05   -1.8434106E+00
   1.6447809E-04   4.3872283E+05   -1.8429146E+00
   1.6523767E-04   4.3501382E+05   -1.8424177E+00
   1.6600075E-04   4.3133716E+05   -1.8419201E+00
   1.6676736E-04   4.2769256E+05   -1.8414215E+00
   1.6753751E-04   4.2407972E+05   -1.8409222E+00
   1.6831122E-04   4.2049837E+05   -1.8404219E+00
   1.6908849E-04   4.1694823E+05   -1.8399209E+00
   1.6986936E-04   4.1342902E+05   -1.8394190E+00
   1.7065384E-04   4.0994045E+05   -1.8389163E+00
   1.7144193E-04   4.0648227E+05   -1.8384128E+00
   1.7223367E-04   4.0305420E+05   -1.8379084E+00
   1.7302906E-04   3.9965596E+05   -1.8374033E+00
   1.7382813E-04   3.9628730E+05   -1.8368973E+00
   1.7463089E-04   3.9294796E+05   -1.8363905E+00
   1.7543735E-04   3.8963766E+05   -1.8358829E+00
   1.7624754E-04   3.8635615E+05   -1.8353745E+00
   1.7706147E-04   3.8310318E+05   -1.8348653E+00
   1.7787916E-04   3.7987849E+05   -1.8343553E+00
   1.7870062E-04   3.7668182E+05   -1.8338445E+00
   1.7952588E-04   3.7351294E+05   -1.8333329E+00
   1.8035495E-04   3.7037159E+05   -1.8328205E+00
   1.8118785E-04   3.6725752E+05   -1.8323074E+00
   1.8202459E-04   3.6417050E+05   -1.8317934E+00
   1.8286520E-04   3.6111029E+05   -1.8312787E+00
   1.8370969E-04   3.5807664E+05   -1.8307633E+00
   1.8455808E-04   3.5506932E+05   -1.8302470E+00
   1.8541039E-04   3.5208809E+05   -1.8297300E+00
   1.8626663E-04   3.4913273E+05   -1.8292122E+00
   1.8712683E-04   3.4620300E+05   -1.8286937E+00
   1.8799100E-04   3.4329868E+05   -1.8281744E+00
   1.8885917E-04   3.4041954E+05   -1.8276544E+00
   1.8973134E-04   3.3756535E+05   -1.8271336E+00
   1.9060754E-04   3.3473590E+05   -1.8266121E+00
   1.9148778E-04   3.3193096E+05   -1.8260898E+00
   1.9237209E-04   3.2915031E+05   -1.8255668E+00
   1.9326049E-04   3.2639375E+05   -1.8250431E+00
   1.9415299E-04   3.2366106E+05   -1.8245186E+00
   1.9504960E-04   3.2095202E+05   -1.8239935E+00
   1.9595036E-04   3.1826643E+05   -1.8234676E+00
   1.9685528E-04   3.1560407E+05   -1.8229410E+00
   1.9776438E-04   3.1296474E+05   -1.8224137E+00
   1.9867768E-04   3.1034825E+05   -1.8218857E+00
   1.9959519E-04   3.0775437E+05   -1.8213570E+00
   2.0051694E-04   3.0518292E+05   -1.8208276E+00
   2.0144295E-04   3.0263369E+05   -1.8202975E+00
   2.0237324E-04   3.0010649E+05   -1.8197667E+00
   2.0330782E-04   2.9760112E+05   -1.8192352E+00
   2.0424671E-04   2.9511740E+05   -1.8187030E+00
   2.0518995E-04   2.9265511E+05   -1.8181702E+00
   2.0613754E-04   2.9021409E+05   -1.8176367E+00
   2.0708950E-04   2.8779413E+05   -1.8171026E+00
   2.0804586E-04   2.8539506E+05   -1.8165678E+00
   2.0900664E-04   2.8301668E+05   -1.8160323E+00
   2.0997185E-04   2.8065881E+05   -1.8154961E+00
   2.1094152E-04   2.7832128E+05   -1.8149594E+00
   2.1191567E-04   2.7600390E+05   -1.8144219E+00
   2.1289432E-04   2.7370649E+05   -1.8138839E+00
   2.1387749E-04   2.7142888E+05   -1.8133452E+00
   2.1486520E-04   2.6917089E+05   -1.8128059E+00
   2.1585747E-04   2.6693234E+05   -1.8122659E+00
   2.1685432E-04   2.6471308E+05   -1.8117253E+00
   2.1785578E-04   2.6251291E+05   -1.8111842E+00
   2.1886186E-04   2.6033169E+05   -1.8106424E+00
   2.1987259E-04   2.5816923E+05   -1.8101000E+00
   2.2088798E-04   2.5602538E+05   -1.8095570E+00
   2.2190807E-04   2.5389996E+05   -1.8090134E+00
   2.2293286E-04   2.5179282E+05   -1.8084692E+00
   2.2396239E-04   2.4970379E+05   -1.8079244E+00
   2.2499667E-04   2.4763272E+05   -1.8073790E+00
   2.2603573E-04   2.4557944E+05   -1.8068331E+00
   2.2707958E-04   2.4354380E+05   -1.8062866E+00
   2.2812826E-04   2.4152564E+05   -1.8057395E+00
   2.2918178E-04   2.3952481E+05   -1.8051919E+00
   2.3024017E-04   2.3754116E+05   -1.8046437E+00
   2.3130344E-04   2.3557452E+05   -1.8040949E+00
   2.3237162E-04   2.3362476E+05   -1.8035456E+00
   2.3344474E-04   2.3169173E+05   -1.8029958E+00
   2.3452281E-04   2.2977527E+05   -1.8024454E+00
   2.3560586E-04   2.2787524E+05   -1.8018945E+00
   2.3669392E-04   2.2599150E+05   -1.8013430E+00
   2.3778699E-04   2.2412390E+05   -1.8007911E+00
   2.3888512E-04   2.2227230E+05   -1.8002386E+00
   2.3998831E-04   2.2043655E+05   -1.7996856E+00
   2.4109661E-04   2.1861653E+05   -1.7991321E+00
   2.4221001E-04   2.1681208E+05   -1.7985781E+00
   2.4332857E-04   2.1502308E+05   -1.7980236E+00
   2.4445228E-04   2.1324939E+05   -1.7974686E+00
   2.4558119E-04   2.1149086E+05   -1.7969131E+00
   2.4671531E-04   2.0974738E+05   -1.7963572E+00
   2.4785467E-04   2.0801880E+05   -1.7958007E+00
   2.4899928E-04   2.0630500E+05   -1.7952438E+00
   2.5014919E-04   2.0460584E+05   -1.7946865E+00
   2.5130440E-04   2.0292120E+05   -1.7941286E+00
   2.5246495E-04   2.0125094E+05   -1.7935703E+00
   2.5363086E-04   1.9959495E+05   -1.7930116E+00
   2.5480216E-04   1.9795309E+05   -1.7924524E+00
   2.5597886E-04   1.9632524E+05   -1.7918928E+00
   2.5716100E-04   1.9471129E+05   -1.7913328E+00
   2.5834859E-04   1.9311110E+05   -1.7907723E+00
   2.5954168E-04   1.9152455E+05   -1.7902114E+00
   2.6074027E-04   1.8995153E+05   -1.7896501E+00
   2.6194439E-04   1.8839192E+05   -1.7890884E+00
   2.6315408E-04   1.8684560E+05   -1.7885262E+00
   2.6436935E-04   1.8531245E+05   -1.7879637E+00
   2.6559024E-04   1.8379235E+05   -1.7874008E+00
   2.6681676E-04   1.8228520E+05   -1.7868375E+00
   2.6804895E-04   1.8079088E+05   -1.7862738E+00
   2.6928683E-04   1.7930927E+05   -1.7857097E+00
   2.7053042E-04   1.7784027E+05   -1.7851453E+00
   2.7177976E-04   1.7638376E+05   -1.7845805E+00
   2.7303487E-04   1.7493963E+05   -1.7840153E+00
   2.7429577E-04   1.7350778E+05   -1.7834498E+00
   2.7556250E-04   1.7208810E+05   -1.7828839E+00
   2.7683507E-04   1.7068048E+05   -1.7823177E+00
   2.7811353E-04   1.6928482E+05   -1.7817511E+00
   2.7939788E-04   1.6790100E+05   -1.7811842E+00
   2.8068817E-04   1.6652893E+05   -1.7806170E+00
   2.8198442E-04   1.6516851E+05   -1.7800495E+00
   2.8328665E-04   1.6381963E+05   -1.7794816E+00
   2.8459490E-04   1.6248219E+05   -1.7789135E+00
   2.8590919E-04   1.6115609E+05   -1.7783450E+00
   2.8722955E-04   1.5984124E+05   -1.7777763E+00
   2.8855600E-04   1.5853752E+05   -1.7772072E+00
   2.8988859E-04   1.5724486E+05   -1.7766379E+00
   2.9122732E-04   1.5596314E+05   -1.7760683E+00
   2.9257224E-04   1.5469227E+05   -1.7754984E+00
   2.9392337E-04   1.5343217E+05   -1.7749282E+00
   2.9528074E-04   1.5218272E+05   -1.7743578E+00
   2.9664438E-04   1.5094385E+05   -1.7737871E+00
   2.9801431E-04   1.4971546E+05   -1.7732162E+00
   2.9939057E-04   1.4849746E+05   -1.7726450E+00
   3.0077319E-04   1.4728975E+05   -1.7720736E+00
   3.0216219E-04   1.4609225E+05   -1.7715019E+00
   3.0355761E-04   1.4490487E+05   -1.7709301E+00
   3.0495947E-04   1.4372752E+05   -1.7703580E+00
   3.0636780E-04   1.4256010E+05   -1.7697856E+00
   3.0778264E-04   1.4140255E+05   -1.7692131E+00
   3.0920401E-04   1.4025476E+05   -1.7686404E+00
   3.1063195E-04   1.3911666E+05   -1.7680675E+00
   3.1206648E-04   1.3798815E+05   -1.7674944E+00
   3.1350764E-04   1.3686917E+05   -1.7669211E+00
   3.1495545E-04   1.3575961E+05   -1.7663476E+00
   3.1640994E-04   1.3465941E+05   -1.7657739E+00
   3.1787116E-04   1.3356847E+05   -1.7652001E+00
   3.1933912E-04   1.3248673E+05   -1.7646261E+00
   3.2081386E-04   1.3141409E+05   -1.7640520E+00
   3.2229541E-04   1.3035048E+05   -1.7634777E+00
   3.2378381E-04   1.2929582E+05   -1.7629033E+00
   3.2527908E-04   1.2825003E+05   -1.7623287E+00
   3.2678125E-04   1.2721304E+05   -1.7617540E+00
   3.2829036E-04   1.2618477E+05   -1.7611792E+00
   3.2980644E-04   1.2516514E+05   -1.7606042E+00
   3.3132952E-04   1.2415408E+05   -1.7600292E+00
   3.3285963E-04   1.2315152E+05   -1.7594540E+00
   3.3439681E-04   1.2215737E+05   -1.7588788E+00
   3.3594109E-04   1.2117157E+05   -1.7583034E+00
   3.3749250E-04   1.2019404E+05   -1.7577280E+00
   3.3905108E-04   1.1922472E+05   -1.7571524E+00
   3.4061685E-04   1.1826352E+05   -1.7565768E+00
   3.4218986E-04   1.1731039E+05   -1.7560012E+00
   3.4377013E-04   1.1636525E+05   -1.7554254E+00
   3.4535769E-04   1.1542802E+05   -1.7548496E+00
   3.4695259E-04   1.1449865E+05   -1.7542738E+00
   3.4855485E-04   1.1357707E+05   -1.7536979E+00
   3.5016452E-04   1.1266320E+05   -1.7531219E+00
   3.5178161E-04   1.1175698E+05   -1.7525460E+00
   3.5340618E-04   1.1085835E+05   -1.7519700E+00
   3.5503824E-04   1.0996723E+05   -1.7513939E+00
   3.5667785E-04   1.0908356E+05   -1.7508179E+00
   3.5832502E-04   1.0820729E+05   -1.7502419E+00
   3.5997981E-04   1.0733833E+05   -1.7496658E+00
   3.6164223E-04   1.0647664E+05   -1.7490898E+00
   3.6331233E-04   1.0562215E+05   -1.7485137E+00
   3.6499015E-04   1.0477479E+05   -1.7479377E+00
   3.6667571E-04   1.0393450E+05   -1.7473617E+00
   3.6836906E-04   1.0310123E+05   -1.7467857E+00
   3.7007022E-04   1.0227491E+05   -1.7462098E+00
   3.7177925E-04   1.0145548E+05   -1.7456339E+00
   3.7349616E-04   1.0064288E+05   -1.7450580E+00
   3.7522101E-04   9.9837060E+04   -1.7444822E+00
   3.7695382E-04   9.9037952E+04   -1.7439065E+00
   3.7869463E-04   9.8245500E+04   -1.7433308E+00
   3.8044348E-04   9.7459648E+04   -1.7427552E+00
   3.8220041E-04   9.6680338E+04   -1.7421796E+00
   3.8396545E-04   9.5907514E+04   -1.7416042E+00
   3.8573864E-04   9.5141120E+04   -1.7410288E+00
   3.8752002E-04   9.4381100E+04   -1.7404535E+00
   3.8930963E-04   9.3627400E+04   -1.7398784E+00
   3.9110750E-04   9.2879965E+04   -1.7393033E+00
   3.9291368E-04   9.2138740E+04   -1.7387283E+00
   3.9472820E-04   9.1403673E+04   -1.7381535E+00
   3.9655109E-04   9.0674710E+04   -1.7375788E+00
   3.9838241E-04   8.9951799E+04   -1.7370042E+00
   4.0022218E-04   8.9234888E+04   -1.7364298E+00
   4.0207045E-04   8.8523925E+04   -1.7358555E+00
   4.0392725E-04   8.7818859E+04   -1.7352813E+00
   4.0579263E-04   8.7119639E+04   -1.7347073E+00
   4.0766662E-04   8.6426214E+04   -1.7341335E+00
   4.0954927E-04   8.5738536E+04   -1.7335598E+00
   4.1144061E-04   8.5056554E+04   -1.7329863E+00
   4.1334068E-04   8.4380219E+04   -1.7324130E+00
   4.1524953E-04   8.3709484E+04   -1.7318399E+00
   4.1716720E-04   8.3044299E+04   -1.7312669E+00
   4.1909372E-04   8.2384618E+04   -1.7306942E+00
   4.2102914E-04   8.1730392E+04   -1.7301216E+00
   4.2297350E-04   8.1081576E+04   -1.7295493E+00
   4.2492683E-04   8.0438122E+04   -1.7289772E+00
   4.2688919E-04   7.9799985E+04   -1.7284053E+00
   4.2886061E-04   7.9167120E+04   -1.7278336E+00
   4.3084113E-04   7.8539480E+04   -1.7272622E+00
   4.3283080E-04   7.7917021E+04   -1.7266910E+00
   4.3482966E-04   7.7299699E+04   -1.7261200E+00
   4.3683775E-04   7.6687469E+04   -1.7255493E+00
   4.3885511E-04   7.6080289E+04   -1.7249789E+00
   4.4088179E-04   7.5478114E+04   -1.7244087E+00
   4.4291783E-04   7.4880902E+04   -1.7238388E+00
   4.4496327E-04   7.4288610E+04   -1.7232691E+00
   4.4701816E-04   7.3701197E+04   -1.7226998E+00
   4.4908253E-04   7.3118620E+04   -1.7221307E+00
   4.5115644E-04   7.2540839E+04   -1.7215619E+00
   4.5323993E-04   7.1967811E+04   -1.7209934E+00
   4.5533304E-04   7.1399498E+04   -1.7204252E+00
   4.5743582E-04   7.0835857E+04   -1.7198573E+00
   4.5954830E-04   7.0276850E+04   -1.7192897E+00
   4.6167054E-04   6.9722436E+04   -1.7187225E+00
   4.6380259E-04   6.9172577E+04   -1.7181556E+00
   4.6594448E-04   6.8627234E+04   -1.7175890E+00
   4.6809626E-04   6.8086367E+04   -1.7170227E+00
   4.7025797E-04   6.7549940E+04   -1.7164568E+00
   4.7242967E-04   6.7017913E+04   -1.7158913E+00
   4.7461140E-04   6.6490250E+04   -1.7153261E+00
   4.7680321E-04   6.5966913E+04   -1.7147612E+00
   4.7900514E-04   6.5447866E+04   -1.7141967E+00
   4.8121723E-04   6.4933071E+04   -1.7136326E+00
   4.8343954E-04   6.4422494E+04   -1.7130689E+00
   4.8567212E-04   6.3916096E+04   -1.7125055E+00
   4.8791500E-04   6.3413844E+04   -1.7119426E+00
   4.9016825E-04   6.2915702E+04   -1.7113800E+00
   4.9243189E-04   6.2421635E+04   -1.7108178E+00
   4.9470600E-04   6.1931608E+04   -1.7102561E+00
   4.9699060E-04   6.1445586E+04   -1.7096947E+00
   4.9928575E-04   6.0963537E+04   -1.7091338E+00
   5.0159151E-04   6.0485425E+04   -1.7085732E+00
   5.0390791E-04   6.0011218E+04   -1.7080131E+00
   5.0623501E-04   5.9540882E+04   -1.7074535E+00
   5.0857286E-04   5.9074385E+04   -1.7068943E+00
   5.1092150E-04   5.8611694E+04   -1.7063355E+00
   5.1328099E-04   5.8152776E+04   -1.7057771E+00
   5.1565137E-04   5.7697600E+04   -1.7052193E+00
   5.1803270E-04   5.7246134E+04   -1.7046619E+00
   5.2042503E-04   5.6798346E+04   -1.7041049E+00
   5.2282841E-04   5.6354206E+04   -1.7035484E+00
   5.2524289E-04   5.5913682E+04   -1.7029924E+00
   5.2766851E-04   5.5476743E+04   -1.7024369E+00
   5.3010534E-04   5.5043360E+04   -1.7018818E+00
   5.3255342E-04   5.4613502E+04   -1.7013273E+00
   5.3501281E-04   5.4187139E+04   -1.7007732E+00
   5.3748356E-04   5.3764242E+04   -1.7002197E+00
   5.3996571E-04   5.3344781E+04   -1.6996666E+00
   5.4245933E-04   5.2928728E+04   -1.6991141E+00
   5.4496446E-04   5.2516054E+04   -1.6985620E+00
   5.4748117E-04   5.2106729E+04   -1.6980105E+00
   5.5000949E-04   5.1700726E+04   -1.6974596E+00
   5.5254949E-04   5.1298017E+04   -1.6969091E+00
   5.5510123E-04   5.0898574E+04   -1.6963592E+00
   5.5766474E-04   5.0502369E+04   -1.6958099E+00
   5.6024010E-04   5.0109374E+04   -1.6952610E+00
   5.6282734E-04   4.9719564E+04   -1.6947128E+00
   5.6542654E-04   4.9332910E+04   -1.6941651E+00
   5.6803774E-04   4.8949387E+04   -1.6936179E+00
   5.7066099E-04   4.8568968E+04   -1.6930713E+00
   5.7329637E-04   4.8191626E+04   -1.6925253E+00
   5.7594391E-04   4.7817337E+04   -1.6919799E+00
   5.7860368E-04   4.7446074E+04   -1.6914351E+00
   5.8127573E-04   4.7077811E+04   -1.6908908E+00
   5.8396012E-04   4.6712524E+04   -1.6903471E+00
   5.8665691E-04   4.6350187E+04   -1.6898040E+00
   5.8936616E-04   4.5990776E+04   -1.6892616E+00
   5.9208791E-04   4.5634266E+04   -1.6887197E+00
   5.9482223E-04   4.5280632E+04   -1.6881784E+00
   5.9756919E-04   4.4929850E+04   -1.6876378E+00
   6.0032882E-04   4.4581897E+04   -1.6870978E+00
   6.0310120E-04   4.4236749E+04   -1.6865584E+00
   6.0588639E-04   4.3894382E+04   -1.6860196E+00
   6.0868443E-04   4.3554773E+04   -1.6854815E+00
   6.1149540E-04   4.3217898E+04   -1.6849440E+00
   6.1431935E-04   4.2883735E+04   -1.6844071E+00
   6.1715634E-04   4.2552261E+04   -1.6838709E+00
   6.2000644E-04   4.2223453E+04   -1.6833353E+00
   6.2286969E-04   4.1897290E+04   -1.6828004E+00
