#        a       HoverH0(a)       dlogHdloga_of_a(a)
   1.0000000E-04   1.0861102E+06   -1.8434689E+00
   1.0046181E-04   1.0769254E+06   -1.8429731E+00
   1.0092575E-04   1.0678206E+06   -1.8424763E+00
   1.0139184E-04   1.0587953E+06   -1.8419788E+00
   1.0186008E-04   1.0498487E+06   -1.8414804E+00
   1.0233048E-04   1.0409801E+06   -1.8409811E+00
   1.0280305E-04   1.0321887E+06   -1.8404810E+00
   1.0327781E-04   1.0234740E+06   -1.8399801E+00
   1.0375475E-04   1.0148352E+06   -1.8394783E+00
   1.0423390E-04   1.0062716E+06   -1.8389758E+00
   1.0471527E-04   9.9778259E+05   -1.8384724E+00
   1.0519885E-04   9.8936750E+05   -1.8379681E+00
   1.0568467E-04   9.8102567E+05   -1.8374631E+00
   1.0617274E-04   9.7275643E+05   -1.8369572E+00
   1.0666305E-04   9.6455915E+05   -1.8364505E+00
   1.0715563E-04   9.5643318E+05   -1.8359431E+00
   1.0765049E-04   9.4837789E+05   -1.8354348E+00
   1.0814763E-04   9.4039265E+05   -1.8349257E+00
   1.0864707E-04   9.3247683E+05   -1.8344158E+00
   1.0914881E-04   9.2462982E+05   -1.8339051E+00
   1.0965287E-04   9.1685099E+05   -1.8333937E+00
   1.1015926E-04   9.0913976E+05   -1.8328814E+00
   1.1066799E-04   9.0149551E+05   -1.8323684E+00
   1.1117906E-04   8.9391765E+05   -1.8318545E+00
   1.1169250E-04   8.8640559E+05   -1.8313399E+00
   1.1220831E-04   8.7895874E+05   -1.8308246E+00
   1.1272650E-04   8.7157652E+05   -1.8303084E+00
   1.1324708E-04   8.6425836E+05   -1.8297915E+00
   1.1377007E-04   8.5700370E+05   -1.8292739E+00
   1.1429547E-04   8.4981195E+05   -1.8287555E+00
   1.1482330E-04   8.4268258E+05   -1.8282363E+00
   1.1535356E-04   8.3561501E+05   -1.8277164E+00
   1.1588628E-04   8.2860871E+05   -1.8271957E+00
   1.1642145E-04   8.2166312E+05   -1.8266743E+00
   1.1695910E-04   8.1477772E+05   -1.8261522E+00
   1.1749923E-04   8.0795195E+05   -1.8256293E+00
   1.1804185E-04   8.0118530E+05   -1.8251057E+00
   1.1858698E-04   7.9447724E+05   -1.8245813E+00
   1.1913463E-04   7.8782724E+05   -1.8240563E+00
   1.1968481E-04   7.8123480E+05   -1.8235305E+00
   1.2023752E-04   7.7469941E+05   -1.8230040E+00
   1.2079279E-04   7.6822055E+05   -1.8224768E+00
   1.2135063E-04   7.6179773E+05   -1.8219489E+00
   1.2191104E-04   7.5543044E+05   -1.8214203E+00
   1.2247403E-04   7.4911820E+05   -1.8208910E+00
   1.2303963E-04   7.4286051E+05   -1.8203611E+00
   1.2360784E-04   7.3665690E+05   -1.8198304E+00
   1.2417868E-04   7.3050688E+05   -1.8192990E+00
   1.2475215E-04   7.2440998E+05   -1.8187670E+00
   1.2532826E-04   7.1836573E+05   -1.8182343E+00
   1.2590704E-04   7.1237365E+05   -1.8177009E+00
   1.2648850E-04   7.0643330E+05   -1.8171668E+00
   1.2707263E-04   7.0054421E+05   -1.8166321E+00
   1.2765947E-04   6.9470592E+05   -1.8160968E+00
   1.2824901E-04   6.8891799E+05   -1.8155607E+00
   1.2884128E-04   6.8317997E+05   -1.8150241E+00
   1.2943628E-04   6.7749142E+05   -1.8144868E+00
   1.3003403E-04   6.7185190E+05   -1.8139488E+00
   1.3063454E-04   6.6626097E+05   -1.8134102E+00
   1.3123783E-04   6.6071821E+05   -1.8128710E+00
   1.3184390E-04   6.5522320E+05   -1.8123312E+00
   1.3245277E-04   6.4977550E+05   -1.8117907E+00
   1.3306445E-04   6.4437469E+05   -1.8112496E+00
   1.3367895E-04   6.3902038E+05   -1.8107079E+00
   1.3429630E-04   6.3371213E+05   -1.8101657E+00
   1.3491649E-04   6.2844955E+05   -1.8096228E+00
   1.3553955E-04   6.2323223E+05   -1.8090793E+00
   1.3616548E-04   6.1805978E+05   -1.8085352E+00
   1.3679431E-04   6.1293179E+05   -1.8079905E+00
   1.3742604E-04   6.0784788E+05   -1.8074452E+00
   1.3806069E-04   6.0280765E+05   -1.8068994E+00
   1.3869827E-04   5.9781071E+05   -1.8063530E+00
   1.3933879E-04   5.9285669E+05   -1.8058060E+00
   1.3998227E-04   5.8794521E+05   -1.8052585E+00
   1.4062872E-04   5.8307589E+05   -1.8047104E+00
   1.4127816E-04   5.7824835E+05   -1.8041617E+00
   1.4193060E-04   5.7346224E+05   -1.8036125E+00
   1.4258605E-04   5.6871718E+05   -1.8030628E+00
   1.4324453E-04   5.6401281E+05   -1.8025125E+00
   1.4390605E-04   5.5934877E+05   -1.8019617E+00
   1.4457062E-04   5.5472471E+05   -1.8014104E+00
   1.4523826E-04   5.5014028E+05   -1.8008585E+00
   1.4590899E-04   5.4559512E+05   -1.8003061E+00
   1.4658281E-04   5.4108889E+05   -1.7997532E+00
   1.4725974E-04   5.3662125E+05   -1.7991998E+00
   1.4793981E-04   5.3219185E+05   -1.7986459E+00
   1.4862301E-04   5.2780036E+05   -1.7980915E+00
   1.4930936E-04   5.2344645E+05   -1.7975366E+00
   1.4999889E-04   5.1912977E+05   -1.7969813E+00
   1.5069160E-04   5.1485002E+05   -1.7964254E+00
   1.5138751E-04   5.1060686E+05   -1.7958691E+00
   1.5208663E-04   5.0639996E+05   -1.7953123E+00
   1.5278899E-04   5.0222901E+05   -1.7947550E+00
   1.5349458E-04   4.9809370E+05   -1.7941973E+00
   1.5420343E-04   4.9399371E+05   -1.7936391E+00
   1.5491556E-04   4.8992873E+05   -1.7930805E+00
   1.5563098E-04   4.8589845E+05   -1.7925214E+00
   1.5634970E-04   4.8190256E+05   -1.7919619E+00
   1.5707174E-04   4.7794077E+05   -1.7914019E+00
   1.5779711E-04   4.7401277E+05   -1.7908415E+00
   1.5852584E-04   4.7011827E+05   -1.7902807E+00
   1.5925792E-04   4.6625697E+05   -1.7897195E+00
   1.5999339E-04   4.6242859E+05   -1.7891579E+00
   1.6073226E-04   4.5863282E+05   -1.7885959E+00
   1.6147454E-04   4.5486939E+05   -1.7880334E+00
   1.6222024E-04   4.5113801E+05   -1.7874706E+00
   1.6296939E-04   4.4743840E+05   -1.7869074E+00
   1.6372200E-04   4.4377028E+05   -1.7863438E+00
   1.6447809E-04   4.4013337E+05   -1.7857798E+00
   1.6523767E-04   4.3652741E+05   -1.7852154E+00
   1.6600075E-04   4.3295212E+05   -1.7846507E+00
   1.6676736E-04   4.2940723E+05   -1.7840857E+00
   1.6753751E-04   4.2589247E+05   -1.7835202E+00
   1.6831122E-04   4.2240758E+05   -1.7829544E+00
   1.6908849E-04   4.1895229E+05   -1.7823883E+00
   1.6986936E-04   4.1552636E+05   -1.7818218E+00
   1.7065384E-04   4.1212952E+05   -1.7812550E+00
   1.7144193E-04   4.0876151E+05   -1.7806879E+00
   1.7223367E-04   4.0542208E+05   -1.7801205E+00
   1.7302906E-04   4.0211100E+05   -1.7795527E+00
   1.7382813E-04   3.9882799E+05   -1.7789846E+00
   1.7463089E-04   3.9557283E+05   -1.7784163E+00
   1.7543735E-04   3.9234526E+05   -1.7778476E+00
   1.7624754E-04   3.8914505E+05   -1.7772786E+00
   1.7706147E-04   3.8597195E+05   -1.7767094E+00
   1.7787916E-04   3.8282572E+05   -1.7761399E+00
   1.7870062E-04   3.7970615E+05   -1.7755701E+00
   1.7952588E-04   3.7661298E+05   -1.7750000E+00
   1.8035495E-04   3.7354599E+05   -1.7744296E+00
   1.8118785E-04   3.7050495E+05   -1.7738590E+00
   1.8202459E-04   3.6748963E+05   -1.7732882E+00
   1.8286520E-04   3.6449981E+05   -1.7727171E+00
   1.8370969E-04   3.6153527E+05   -1.7721458E+00
   1.8455808E-04   3.5859578E+05   -1.7715742E+00
   1.8541039E-04   3.5568114E+05   -1.7710024E+00
   1.8626663E-04   3.5279111E+05   -1.7704304E+00
   1.8712683E-04   3.4992548E+05   -1.7698582E+00
   1.8799100E-04   3.4708405E+05   -1.7692857E+00
   1.8885917E-04   3.4426660E+05   -1.7687131E+00
   1.8973134E-04   3.4147292E+05   -1.7681403E+00
   1.9060754E-04   3.3870280E+05   -1.7675672E+00
   1.9148778E-04   3.3595604E+05   -1.7669940E+00
   1.9237209E-04   3.3323244E+05   -1.7664206E+00
   1.9326049E-04   3.3053179E+05   -1.7658470E+00
   1.9415299E-04   3.2785390E+05   -1.7652733E+00
   1.9504960E-04   3.2519856E+05   -1.7646994E+00
   1.9595036E-04   3.2256558E+05   -1.7641253E+00
   1.9685528E-04   3.1995477E+05   -1.7635511E+00
   1.9776438E-04   3.1736592E+05   -1.7629768E+00
   1.9867768E-04   3.1479886E+05   -1.7624023E+00
   1.9959519E-04   3.1225339E+05   -1.7618277E+00
   2.0051694E-04   3.0972932E+05   -1.7612529E+00
   2.0144295E-04   3.0722646E+05   -1.7606781E+00
   2.0237324E-04   3.0474464E+05   -1.7601031E+00
   2.0330782E-04   3.0228367E+05   -1.7595280E+00
   2.0424671E-04   2.9984337E+05   -1.7589528E+00
   2.0518995E-04   2.9742355E+05   -1.7583776E+00
   2.0613754E-04   2.9502405E+05   -1.7578022E+00
   2.0708950E-04   2.9264468E+05   -1.7572267E+00
   2.0804586E-04   2.9028527E+05   -1.7566512E+00
   2.0900664E-04   2.8794564E+05   -1.7560756E+00
   2.0997185E-04   2.8562563E+05   -1.7554999E+00
   2.1094152E-04   2.8332507E+05   -1.7549242E+00
   2.1191567E-04   2.8104377E+05   -1.7543484E+00
   2.1289432E-04   2.7878159E+05   -1.7537726E+00
   2.1387749E-04   2.7653835E+05   -1.7531967E+00
   2.1486520E-04   2.7431389E+05   -1.7526208E+00
   2.1585747E-04   2.7210804E+05   -1.7520449E+00
   2.1685432E-04   2.6992065E+05   -1.7514690E+00
   2.1785578E-04   2.6775155E+05   -1.7508930E+00
   2.1886186E-04   2.6560059E+05   -1.7503170E+00
   2.1987259E-04   2.6346761E+05   -1.7497411E+00
   2.2088798E-04   2.6135245E+05   -1.7491651E+00
   2.2190807E-04   2.5925496E+05   -1.7485891E+00
   2.2293286E-04   2.5717498E+05   -1.7480132E+00
   2.2396239E-04   2.5511237E+05   -1.7474372E+00
   2.2499667E-04   2.5306697E+05   -1.7468613E+00
   2.2603573E-04   2.5103864E+05   -1.7462855E+00
   2.2707958E-04   2.4902723E+05   -1.7457096E+00
   2.2812826E-04   2.4703259E+05   -1.7451338E+00
   2.2918178E-04   2.4505457E+05   -1.7445581E+00
   2.3024017E-04   2.4309304E+05   -1.7439824E+00
   2.3130344E-04   2.4114785E+05   -1.7434068E+00
   2.3237162E-04   2.3921885E+05   -1.7428313E+00
   2.3344474E-04   2.3730592E+05   -1.7422558E+00
   2.3452281E-04   2.3540891E+05   -1.7416804E+00
   2.3560586E-04   2.3352768E+05   -1.7411051E+00
   2.3669392E-04   2.3166210E+05   -1.7405299E+00
   2.3778699E-04   2.2981203E+05   -1.7399548E+00
   2.3888512E-04   2.2797735E+05   -1.7393798E+00
   2.3998831E-04   2.2615790E+05   -1.7388049E+00
   2.4109661E-04   2.2435357E+05   -1.7382301E+00
   2.4221001E-04   2.2256423E+05   -1.7376555E+00
   2.4332857E-04   2.2078974E+05   -1.7370810E+00
   2.4445228E-04   2.1902998E+05   -1.7365066E+00
   2.4558119E-04   2.1728482E+05   -1.7359324E+00
   2.4671531E-04   2.1555414E+05   -1.7353583E+00
   2.4785467E-04   2.1383780E+05   -1.7347844E+00
   2.4899928E-04   2.1213570E+05   -1.7342106E+00
   2.5014919E-04   2.1044770E+05   -1.7336370E+00
   2.5130440E-04   2.0877368E+05   -1.7330636E+00
   2.5246495E-04   2.0711352E+05   -1.7324903E+00
   2.5363086E-04   2.0546711E+05   -1.7319172E+00
   2.5480216E-04   2.0383432E+05   -1.7313444E+00
   2.5597886E-04   2.0221505E+05   -1.7307717E+00
   2.5716100E-04   2.0060916E+05   -1.7301992E+00
   2.5834859E-04   1.9901656E+05   -1.7296269E+00
   2.5954168E-04   1.9743712E+05   -1.7290549E+00
   2.6074027E-04   1.9587073E+05   -1.7284830E+00
   2.6194439E-04   1.9431727E+05   -1.7279114E+00
   2.6315408E-04   1.9277665E+05   -1.7273400E+00
   2.6436935E-04   1.9124874E+05   -1.7267689E+00
   2.6559024E-04   1.8973345E+05   -1.7261980E+00
   2.6681676E-04   1.8823065E+05   -1.7256274E+00
   2.6804895E-04   1.8674025E+05   -1.7250570E+00
   2.6928683E-04   1.8526214E+05   -1.7244868E+00
   2.7053042E-04   1.8379620E+05   -1.7239170E+00
   2.7177976E-04   1.8234235E+05   -1.7233474E+00
   2.7303487E-04   1.8090047E+05   -1.7227781E+00
   2.7429577E-04   1.7947047E+05   -1.7222091E+00
   2.7556250E-04   1.7805223E+05   -1.7216403E+00
   2.7683507E-04   1.7664566E+05   -1.7210719E+00
   2.7811353E-04   1.7525067E+05   -1.7205038E+00
   2.7939788E-04   1.7386715E+05   -1.7199360E+00
   2.8068817E-04   1.7249500E+05   -1.7193684E+00
   2.8198442E-04   1.7113412E+05   -1.7188013E+00
   2.8328665E-04   1.6978443E+05   -1.7182344E+00
   2.8459490E-04   1.6844582E+05   -1.7176679E+00
   2.8590919E-04   1.6711820E+05   -1.7171017E+00
   2.8722955E-04   1.6580148E+05   -1.7165358E+00
   2.8855600E-04   1.6449556E+05   -1.7159703E+00
   2.8988859E-04   1.6320035E+05   -1.7154052E+00
   2.9122732E-04   1.6191576E+05   -1.7148404E+00
   2.9257224E-04   1.6064170E+05   -1.7142759E+00
   2.9392337E-04   1.5937808E+05   -1.7137119E+00
   2.9528074E-04   1.5812481E+05   -1.7131482E+00
   2.9664438E-04   1.5688180E+05   -1.7125849E+00
   2.9801431E-04   1.5564897E+05   -1.7120220E+00
   2.9939057E-04   1.5442622E+05   -1.7114595E+00
   3.0077319E-04   1.5321348E+05   -1.7108974E+00
   3.0216219E-04   1.5201066E+05   -1.7103357E+00
   3.0355761E-04   1.5081767E+05   -1.7097744E+00
   3.0495947E-04   1.4963442E+05   -1.7092135E+00
   3.0636780E-04   1.4846085E+05   -1.7086530E+00
   3.0778264E-04   1.4729686E+05   -1.7080930E+00
   3.0920401E-04   1.4614237E+05   -1.7075334E+00
   3.1063195E-04   1.4499731E+05   -1.7069742E+00
   3.1206648E-04   1.4386158E+05   -1.7064155E+00
   3.1350764E-04   1.4273512E+05   -1.7058572E+00
   3.1495545E-04   1.4161785E+05   -1.7052994E+00
   3.1640994E-04   1.4050968E+05   -1.7047420E+00
   3.1787116E-04   1.3941054E+05   -1.7041851E+00
   3.1933912E-04   1.3832036E+05   -1.7036287E+00
   3.2081386E-04   1.3723905E+05   -1.7030727E+00
   3.2229541E-04   1.3616654E+05   -1.7025173E+00
   3.2378381E-04   1.3510276E+05   -1.7019623E+00
   3.2527908E-04   1.3404763E+05   -1.7014078E+00
   3.2678125E-04   1.3300108E+05   -1.7008538E+00
   3.2829036E-04   1.3196304E+05   -1.7003003E+00
   3.2980644E-04   1.3093344E+05   -1.6997473E+00
   3.3132952E-04   1.2991220E+05   -1.6991948E+00
   3.3285963E-04   1.2889925E+05   -1.6986428E+00
   3.3439681E-04   1.2789453E+05   -1.6980914E+00
   3.3594109E-04   1.2689796E+05   -1.6975405E+00
   3.3749250E-04   1.2590947E+05   -1.6969901E+00
   3.3905108E-04   1.2492900E+05   -1.6964402E+00
   3.4061685E-04   1.2395648E+05   -1.6958909E+00
   3.4218986E-04   1.2299185E+05   -1.6953421E+00
   3.4377013E-04   1.2203502E+05   -1.6947939E+00
   3.4535769E-04   1.2108595E+05   -1.6942463E+00
   3.4695259E-04   1.2014456E+05   -1.6936992E+00
   3.4855485E-04   1.1921079E+05   -1.6931527E+00
   3.5016452E-04   1.1828457E+05   -1.6926067E+00
   3.5178161E-04   1.1736585E+05   -1.6920613E+00
   3.5340618E-04   1.1645455E+05   -1.6915165E+00
   3.5503824E-04   1.1555062E+05   -1.6909723E+00
   3.5667785E-04   1.1465400E+05   -1.6904287E+00
   3.5832502E-04   1.1376461E+05   -1.6898857E+00
   3.5997981E-04   1.1288241E+05   -1.6893433E+00
   3.6164223E-04   1.1200733E+05   -1.6888015E+00
   3.6331233E-04   1.1113931E+05   -1.6882603E+00
   3.6499015E-04   1.1027829E+05   -1.6877197E+00
   3.6667571E-04   1.0942422E+05   -1.6871797E+00
   3.6836906E-04   1.0857702E+05   -1.6866404E+00
   3.7007022E-04   1.0773666E+05   -1.6861016E+00
   3.7177925E-04   1.0690306E+05   -1.6855636E+00
   3.7349616E-04   1.0607618E+05   -1.6850261E+00
   3.7522101E-04   1.0525595E+05   -1.6844893E+00
   3.7695382E-04   1.0444233E+05   -1.6839532E+00
   3.7869463E-04   1.0363525E+05   -1.6834177E+00
   3.8044348E-04   1.0283466E+05   -1.6828828E+00
   3.8220041E-04   1.0204050E+05   -1.6823486E+00
   3.8396545E-04   1.0125273E+05   -1.6818151E+00
   3.8573864E-04   1.0047129E+05   -1.6812822E+00
   3.8752002E-04   9.9696119E+04   -1.6807501E+00
   3.8930963E-04   9.8927174E+04   -1.6802186E+00
   3.9110750E-04   9.8164400E+04   -1.6796877E+00
   3.9291368E-04   9.7407746E+04   -1.6791576E+00
   3.9472820E-04   9.6657159E+04   -1.6786282E+00
   3.9655109E-04   9.5912590E+04   -1.6780994E+00
   3.9838241E-04   9.5173988E+04   -1.6775714E+00
   4.0022218E-04   9.4441304E+04   -1.6770440E+00
   4.0207045E-04   9.3714488E+04   -1.6765174E+00
   4.0392725E-04   9.2993491E+04   -1.6759915E+00
   4.0579263E-04   9.2278264E+04   -1.6754663E+00
   4.0766662E-04   9.1568760E+04   -1.6749418E+00
   4.0954927E-04   9.0864931E+04   -1.6744180E+00
   4.1144061E-04   9.0166728E+04   -1.6738950E+00
   4.1334068E-04   8.9474106E+04   -1.6733727E+00
   4.1524953E-04   8.8787018E+04   -1.6728511E+00
   4.1716720E-04   8.8105418E+04   -1.6723303E+00
   4.1909372E-04   8.7429260E+04   -1.6718102E+00
   4.2102914E-04   8.6758499E+04   -1.6712909E+00
   4.2297350E-04   8.6093090E+04   -1.6707723E+00
   4.2492683E-04   8.5432988E+04   -1.6702545E+00
   4.2688919E-04   8.4778150E+04   -1.6697374E+00
   4.2886061E-04   8.4128531E+04   -1.6692211E+00
   4.3084113E-04   8.3484088E+04   -1.6687056E+00
   4.3283080E-04   8.2844779E+04   -1.6681909E+00
   4.3482966E-04   8.2210560E+04   -1.6676769E+00
   4.3683775E-04   8.1581390E+04   -1.6671637E+00
   4.3885511E-04   8.0957226E+04   -1.6666512E+00
   4.4088179E-04   8.0338027E+04   -1.6661396E+00
   4.4291783E-04   7.9723751E+04   -1.6656287E+00
   4.4496327E-04   7.9114358E+04   -1.6651187E+00
   4.4701816E-04   7.8509808E+04   -1.6646094E+00
   4.4908253E-04   7.7910060E+04   -1.6641010E+00
   4.5115644E-04   7.7315075E+04   -1.6635933E+00
   4.5323993E-04   7.6724813E+04   -1.6630865E+00
   4.5533304E-04   7.6139235E+04   -1.6625804E+00
   4.5743582E-04   7.5558302E+04   -1.6620752E+00
   4.5954830E-04   7.4981976E+04   -1.6615708E+00
   4.6167054E-04   7.4410219E+04   -1.6610672E+00
   4.6380259E-04   7.3842993E+04   -1.6605644E+00
   4.6594448E-04   7.3280260E+04   -1.6600625E+00
   4.6809626E-04   7.2721984E+04   -1.6595614E+00
   4.7025797E-04   7.2168127E+04   -1.6590611E+00
   4.7242967E-04   7.1618654E+04   -1.6585617E+00
   4.7461140E-04   7.1073527E+04   -1.6580631E+00
   4.7680321E-04   7.0532712E+04   -1.6575654E+00
   4.7900514E-04   6.9996172E+04   -1.6570684E+00
   4.8121723E-04   6.9463872E+04   -1.6565724E+00
   4.8343954E-04   6.8935778E+04   -1.6560772E+00
   4.8567212E-04   6.8411855E+04   -1.6555828E+00
   4.8791500E-04   6.7892068E+04   -1.6550894E+00
   4.9016825E-04   6.7376384E+04   -1.6545967E+00
   4.9243189E-04   6.6864768E+04   -1.6541050E+00
   4.9470600E-04   6.6357187E+04   -1.6536141E+00
   4.9699060E-04   6.5853608E+04   -1.6531241E+00
   4.9928575E-04   6.5353998E+04   -1.6526349E+00
   5.0159151E-04   6.4858325E+04   -1.6521466E+00
   5.0390791E-04   6.4366556E+04   -1.6516592E+00
   5.0623501E-04   6.3878658E+04   -1.6511727E+00
   5.0857286E-04   6.3394601E+04   -1.6506871E+00
   5.1092150E-04   6.2914353E+04   -1.6502023E+00
   5.1328099E-04   6.2437882E+04   -1.6497185E+00
   5.1565137E-04   6.1965158E+04   -1.6492355E+00
   5.1803270E-04   6.1496149E+04   -1.6487535E+00
   5.2042503E-04   6.1030826E+04   -1.6482723E+00
   5.2282841E-04   6.0569158E+04   -1.6477920E+00
   5.2524289E-04   6.0111114E+04   -1.6473127E+00
   5.2766851E-04   5.9656667E+04   -1.6468342E+00
   5.3010534E-04   5.9205785E+04   -1.6463567E+00
   5.3255342E-04   5.8758441E+04   -1.6458800E+00
   5.3501281E-04   5.8314604E+04   -1.6454043E+00
   5.3748356E-04   5.7874247E+04   -1.6449295E+00
   5.3996571E-04   5.7437340E+04   -1.6444556E+00
   5.4245933E-04   5.7003856E+04   -1.6439826E+00
   5.4496446E-04   5.6573767E+04   -1.6435106E+00
   5.4748117E-04   5.6147045E+04   -1.6430395E+00
   5.5000949E-04   5.5723663E+04   -1.6425693E+00
   5.5254949E-04   5.5303593E+04   -1.6421000E+00
   5.5510123E-04   5.4886807E+04   -1.6416316E+00
   5.5766474E-04   5.4473281E+04   -1.6411642E+00
   5.6024010E-04   5.4062986E+04   -1.6406978E+00
   5.6282734E-04   5.3655897E+04   -1.6402322E+00
   5.6542654E-04   5.3251987E+04   -1.6397677E+00
   5.6803774E-04   5.2851231E+04   -1.6393040E+00
   5.7066099E-04   5.2453602E+04   -1.6388413E+00
   5.7329637E-04   5.2059076E+04   -1.6383795E+00
   5.7594391E-04   5.1667628E+04   -1.6379187E+00
   5.7860368E-04   5.1279231E+04   -1.6374589E+00
   5.8127573E-04   5.0893862E+04   -1.6370000E+00
   5.8396012E-04   5.0511496E+04   -1.6365420E+00
   5.8665691E-04   5.0132108E+04   -1.6360850E+00
   5.8936616E-04   4.9755674E+04   -1.6356290E+00
   5.9208791E-04   4.9382171E+04   -1.6351739E+00
   5.9482223E-04   4.9011574E+04   -1.6347197E+00
   5.9756919E-04   4.8643860E+04   -1.6342666E+00
   6.0032882E-04   4.8279005E+04   -1.6338144E+00
   6.0310120E-04   4.7916987E+04   -1.6333632E+00
   6.0588639E-04   4.7557782E+04   -1.6329129E+00
   6.0868443E-04   4.7201367E+04   -1.6324636E+00
   6.1149540E-04   4.6847721E+04   -1.6320153E+00
   6.1431935E-04   4.6496820E+04   -1.6315679E+00
   6.1715634E-04   4.6148643E+04   -1.6311216E+00
   6.2000644E-04   4.5803166E+04   -1.6306762E+00
   6.2286969E-04   4.5460370E+04   -1.6302318E+00
