#        a       HoverH0(a)       dlogHdloga_of_a(a)
   1.0000000E-04   1.1632519E+06   -1.8560134E+00
   1.0046181E-04   1.1533480E+06   -1.8555406E+00
   1.0092575E-04   1.1435309E+06   -1.8550668E+00
   1.0139184E-04   1.1337998E+06   -1.8545921E+00
   1.0186008E-04   1.1241540E+06   -1.8541165E+00
   1.0233048E-04   1.1145927E+06   -1.8536400E+00
   1.0280305E-04   1.1051152E+06   -1.8531626E+00
   1.0327781E-04   1.0957206E+06   -1.8526843E+00
   1.0375475E-04   1.0864084E+06   -1.8522050E+00
   1.0423390E-04   1.0771776E+06   -1.8517249E+00
   1.0471527E-04   1.0680276E+06   -1.8512439E+00
   1.0519885E-04   1.0589578E+06   -1.8507619E+00
   1.0568467E-04   1.0499672E+06   -1.8502791E+00
   1.0617274E-04   1.0410553E+06   -1.8497954E+00
   1.0666305E-04   1.0322214E+06   -1.8493107E+00
   1.0715563E-04   1.0234647E+06   -1.8488252E+00
   1.0765049E-04   1.0147846E+06   -1.8483388E+00
   1.0814763E-04   1.0061803E+06   -1.8478516E+00
   1.0864707E-04   9.9765126E+05   -1.8473634E+00
   1.0914881E-04   9.8919673E+05   -1.8468744E+00
   1.0965287E-04   9.8081605E+05   -1.8463845E+00
   1.1015926E-04   9.7250858E+05   -1.8458937E+00
   1.1066799E-04   9.6427365E+05   -1.8454020E+00
   1.1117906E-04   9.5611061E+05   -1.8449095E+00
   1.1169250E-04   9.4801884E+05   -1.8444161E+00
   1.1220831E-04   9.3999768E+05   -1.8439219E+00
   1.1272650E-04   9.3204652E+05   -1.8434268E+00
   1.1324708E-04   9.2416472E+05   -1.8429309E+00
   1.1377007E-04   9.1635168E+05   -1.8424341E+00
   1.1429547E-04   9.0860676E+05   -1.8419365E+00
   1.1482330E-04   9.0092938E+05   -1.8414380E+00
   1.1535356E-04   8.9331892E+05   -1.8409386E+00
   1.1588628E-04   8.8577478E+05   -1.8404385E+00
   1.1642145E-04   8.7829639E+05   -1.8399375E+00
   1.1695910E-04   8.7088314E+05   -1.8394357E+00
   1.1749923E-04   8.6353446E+05   -1.8389330E+00
   1.1804185E-04   8.5624977E+05   -1.8384295E+00
   1.1858698E-04   8.4902851E+05   -1.8379252E+00
   1.1913463E-04   8.4187011E+05   -1.8374201E+00
   1.1968481E-04   8.3477401E+05   -1.8369142E+00
   1.2023752E-04   8.2773965E+05   -1.8364074E+00
   1.2079279E-04   8.2076649E+05   -1.8358999E+00
   1.2135063E-04   8.1385397E+05   -1.8353915E+00
   1.2191104E-04   8.0700157E+05   -1.8348823E+00
   1.2247403E-04   8.0020874E+05   -1.8343724E+00
   1.2303963E-04   7.9347495E+05   -1.8338616E+00
   1.2360784E-04   7.8679968E+05   -1.8333501E+00
   1.2417868E-04   7.8018240E+05   -1.8328378E+00
   1.2475215E-04   7.7362261E+05   -1.8323247E+00
   1.2532826E-04   7.6711979E+05   -1.8318108E+00
   1.2590704E-04   7.6067343E+05   -1.8312961E+00
   1.2648850E-04   7.5428303E+05   -1.8307807E+00
   1.2707263E-04   7.4794809E+05   -1.8302645E+00
   1.2765947E-04   7.4166813E+05   -1.8297475E+00
   1.2824901E-04   7.3544265E+05   -1.8292298E+00
   1.2884128E-04   7.2927116E+05   -1.8287113E+00
   1.2943628E-04   7.2315319E+05   -1.8281920E+00
   1.3003403E-04   7.1708826E+05   -1.8276721E+00
   1.3063454E-04   7.1107590E+05   -1.8271513E+00
   1.3123783E-04   7.0511565E+05   -1.8266298E+00
   1.3184390E-04   6.9920703E+05   -1.8261076E+00
   1.3245277E-04   6.9334960E+05   -1.8255847E+00
   1.3306445E-04   6.8754289E+05   -1.8250610E+00
   1.3367895E-04   6.8178646E+05   -1.8245366E+00
   1.3429630E-04   6.7607986E+05   -1.8240115E+00
   1.3491649E-04   6.7042265E+05   -1.8234857E+00
   1.3553955E-04   6.6481438E+05   -1.8229591E+00
   1.3616548E-04   6.5925464E+05   -1.8224319E+00
   1.3679431E-04   6.5374298E+05   -1.8219039E+00
   1.3742604E-04   6.4827897E+05   -1.8213752E+00
   1.3806069E-04   6.4286220E+05   -1.8208459E+00
   1.3869827E-04   6.3749225E+05   -1.8203158E+00
   1.3933879E-04   6.3216870E+05   -1.8197851E+00
   1.3998227E-04   6.2689113E+05   -1.8192537E+00
   1.4062872E-04   6.2165915E+05   -1.8187216E+00
   1.4127816E-04   6.1647235E+05   -1.8181888E+00
   1.4193060E-04   6.1133032E+05   -1.8176553E+00
   1.4258605E-04   6.0623268E+05   -1.8171212E+00
   1.4324453E-04   6.0117902E+05   -1.8165865E+00
   1.4390605E-04   5.9616896E+05   -1.8160510E+00
   1.4457062E-04   5.9120212E+05   -1.8155150E+00
   1.4523826E-04   5.8627810E+05   -1.8149782E+00
   1.4590899E-04   5.8139653E+05   -1.8144408E+00
   1.4658281E-04   5.7655704E+05   -1.8139028E+00
   1.4725974E-04   5.7175925E+05   -1.8133642E+00
   1.4793981E-04   5.6700279E+05   -1.8128249E+00
   1.4862301E-04   5.6228729E+05   -1.8122850E+00
   1.4930936E-04   5.5761241E+05   -1.8117445E+00
   1.4999889E-04   5.5297776E+05   -1.8112034E+00
   1.5069160E-04   5.4838301E+05   -1.8106616E+00
   1.5138751E-04   5.4382779E+05   -1.8101193E+00
   1.5208663E-04   5.3931176E+05   -1.8095763E+00
   1.5278899E-04   5.3483457E+05   -1.8090328E+00
   1.5349458E-04   5.3039588E+05   -1.8084886E+00
   1.5420343E-04   5.2599534E+05   -1.8079439E+00
   1.5491556E-04   5.2163263E+05   -1.8073986E+00
   1.5563098E-04   5.1730740E+05   -1.8068527E+00
   1.5634970E-04   5.1301932E+05   -1.8063062E+00
   1.5707174E-04   5.0876807E+05   -1.8057592E+00
   1.5779711E-04   5.0455333E+05   -1.8052116E+00
   1.5852584E-04   5.0037476E+05   -1.8046635E+00
   1.5925792E-04   4.9623205E+05   -1.8041148E+00
   1.5999339E-04   4.9212488E+05   -1.8035655E+00
   1.6073226E-04   4.8805295E+05   -1.8030157E+00
   1.6147454E-04   4.8401593E+05   -1.8024654E+00
   1.6222024E-04   4.8001352E+05   -1.8019145E+00
   1.6296939E-04   4.7604542E+05   -1.8013631E+00
   1.6372200E-04   4.7211132E+05   -1.8008112E+00
   1.6447809E-04   4.6821092E+05   -1.8002588E+00
   1.6523767E-04   4.6434393E+05   -1.7997058E+00
   1.6600075E-04   4.6051006E+05   -1.7991524E+00
   1.6676736E-04   4.5670900E+05   -1.7985984E+00
   1.6753751E-04   4.5294047E+05   -1.7980440E+00
   1.6831122E-04   4.4920419E+05   -1.7974891E+00
   1.6908849E-04   4.4549986E+05   -1.7969336E+00
   1.6986936E-04   4.4182722E+05   -1.7963777E+00
   1.7065384E-04   4.3818597E+05   -1.7958213E+00
   1.7144193E-04   4.3457585E+05   -1.7952645E+00
   1.7223367E-04   4.3099657E+05   -1.7947072E+00
   1.7302906E-04   4.2744788E+05   -1.7941494E+00
   1.7382813E-04   4.2392949E+05   -1.7935912E+00
   1.7463089E-04   4.2044115E+05   -1.7930325E+00
   1.7543735E-04   4.1698258E+05   -1.7924734E+00
   1.7624754E-04   4.1355353E+05   -1.7919138E+00
   1.7706147E-04   4.1015374E+05   -1.7913538E+00
   1.7787916E-04   4.0678294E+05   -1.7907934E+00
   1.7870062E-04   4.0344089E+05   -1.7902325E+00
   1.7952588E-04   4.0012734E+05   -1.7896713E+00
   1.8035495E-04   3.9684202E+05   -1.7891096E+00
   1.8118785E-04   3.9358470E+05   -1.7885475E+00
   1.8202459E-04   3.9035512E+05   -1.7879851E+00
   1.8286520E-04   3.8715305E+05   -1.7874222E+00
   1.8370969E-04   3.8397824E+05   -1.7868589E+00
   1.8455808E-04   3.8083046E+05   -1.7862953E+00
   1.8541039E-04   3.7770946E+05   -1.7857313E+00
   1.8626663E-04   3.7461501E+05   -1.7851669E+00
   1.8712683E-04   3.7154688E+05   -1.7846021E+00
   1.8799100E-04   3.6850484E+05   -1.7840370E+00
   1.8885917E-04   3.6548866E+05   -1.7834716E+00
   1.8973134E-04   3.6249811E+05   -1.7829057E+00
   1.9060754E-04   3.5953296E+05   -1.7823396E+00
   1.9148778E-04   3.5659301E+05   -1.7817731E+00
   1.9237209E-04   3.5367801E+05   -1.7812062E+00
   1.9326049E-04   3.5078776E+05   -1.7806391E+00
   1.9415299E-04   3.4792204E+05   -1.7800716E+00
   1.9504960E-04   3.4508063E+05   -1.7795038E+00
   1.9595036E-04   3.4226332E+05   -1.7789357E+00
   1.9685528E-04   3.3946991E+05   -1.7783673E+00
   1.9776438E-04   3.3670017E+05   -1.7777986E+00
   1.9867768E-04   3.3395391E+05   -1.7772296E+00
   1.9959519E-04   3.3123091E+05   -1.7766603E+00
   2.0051694E-04   3.2853098E+05   -1.7760907E+00
   2.0144295E-04   3.2585392E+05   -1.7755209E+00
   2.0237324E-04   3.2319951E+05   -1.7749508E+00
   2.0330782E-04   3.2056757E+05   -1.7743804E+00
   2.0424671E-04   3.1795790E+05   -1.7738098E+00
   2.0518995E-04   3.1537031E+05   -1.7732389E+00
   2.0613754E-04   3.1280459E+05   -1.7726678E+00
   2.0708950E-04   3.1026057E+05   -1.7720964E+00
   2.0804586E-04   3.0773804E+05   -1.7715248E+00
   2.0900664E-04   3.0523683E+05   -1.7709530E+00
   2.0997185E-04   3.0275675E+05   -1.7703810E+00
   2.1094152E-04   3.0029761E+05   -1.7698087E+00
   2.1191567E-04   2.9785923E+05   -1.7692363E+00
   2.1289432E-04   2.9544143E+05   -1.7686636E+00
   2.1387749E-04   2.9304402E+05   -1.7680907E+00
   2.1486520E-04   2.9066684E+05   -1.7675177E+00
   2.1585747E-04   2.8830970E+05   -1.7669444E+00
   2.1685432E-04   2.8597244E+05   -1.7663710E+00
   2.1785578E-04   2.8365487E+05   -1.7657974E+00
   2.1886186E-04   2.8135682E+05   -1.7652237E+00
   2.1987259E-04   2.7907813E+05   -1.7646497E+00
   2.2088798E-04   2.7681863E+05   -1.7640756E+00
   2.2190807E-04   2.7457815E+05   -1.7635014E+00
   2.2293286E-04   2.7235653E+05   -1.7629270E+00
   2.2396239E-04   2.7015359E+05   -1.7623525E+00
   2.2499667E-04   2.6796918E+05   -1.7617779E+00
   2.2603573E-04   2.6580314E+05   -1.7612031E+00
   2.2707958E-04   2.6365531E+05   -1.7606283E+00
   2.2812826E-04   2.6152552E+05   -1.7600533E+00
   2.2918178E-04   2.5941362E+05   -1.7594782E+00
   2.3024017E-04   2.5731946E+05   -1.7589029E+00
   2.3130344E-04   2.5524289E+05   -1.7583276E+00
   2.3237162E-04   2.5318374E+05   -1.7577523E+00
   2.3344474E-04   2.5114187E+05   -1.7571768E+00
   2.3452281E-04   2.4911713E+05   -1.7566012E+00
   2.3560586E-04   2.4710936E+05   -1.7560256E+00
   2.3669392E-04   2.4511843E+05   -1.7554499E+00
   2.3778699E-04   2.4314419E+05   -1.7548742E+00
   2.3888512E-04   2.4118648E+05   -1.7542984E+00
   2.3998831E-04   2.3924518E+05   -1.7537226E+00
   2.4109661E-04   2.3732012E+05   -1.7531467E+00
   2.4221001E-04   2.3541119E+05   -1.7525708E+00
   2.4332857E-04   2.3351822E+05   -1.7519948E+00
   2.4445228E-04   2.3164109E+05   -1.7514189E+00
   2.4558119E-04   2.2977967E+05   -1.7508429E+00
   2.4671531E-04   2.2793380E+05   -1.7502669E+00
   2.4785467E-04   2.2610336E+05   -1.7496909E+00
   2.4899928E-04   2.2428822E+05   -1.7491149E+00
   2.5014919E-04   2.2248824E+05   -1.7485390E+00
   2.5130440E-04   2.2070329E+05   -1.7479630E+00
   2.5246495E-04   2.1893325E+05   -1.7473871E+00
   2.5363086E-04   2.1717797E+05   -1.7468112E+00
   2.5480216E-04   2.1543734E+05   -1.7462353E+00
   2.5597886E-04   2.1371123E+05   -1.7456594E+00
   2.5716100E-04   2.1199950E+05   -1.7450836E+00
   2.5834859E-04   2.1030205E+05   -1.7445079E+00
   2.5954168E-04   2.0861874E+05   -1.7439322E+00
   2.6074027E-04   2.0694946E+05   -1.7433566E+00
   2.6194439E-04   2.0529407E+05   -1.7427810E+00
   2.6315408E-04   2.0365247E+05   -1.7422056E+00
   2.6436935E-04   2.0202453E+05   -1.7416302E+00
   2.6559024E-04   2.0041013E+05   -1.7410549E+00
   2.6681676E-04   1.9880916E+05   -1.7404797E+00
   2.6804895E-04   1.9722151E+05   -1.7399045E+00
   2.6928683E-04   1.9564705E+05   -1.7393295E+00
   2.7053042E-04   1.9408567E+05   -1.7387547E+00
   2.7177976E-04   1.9253727E+05   -1.7381799E+00
   2.7303487E-04   1.9100172E+05   -1.7376052E+00
   2.7429577E-04   1.8947892E+05   -1.7370307E+00
   2.7556250E-04   1.8796876E+05   -1.7364563E+00
   2.7683507E-04   1.8647113E+05   -1.7358821E+00
   2.7811353E-04   1.8498592E+05   -1.7353080E+00
   2.7939788E-04   1.8351303E+05   -1.7347341E+00
   2.8068817E-04   1.8205234E+05   -1.7341603E+00
   2.8198442E-04   1.8060376E+05   -1.7335867E+00
   2.8328665E-04   1.7916718E+05   -1.7330133E+00
   2.8459490E-04   1.7774249E+05   -1.7324400E+00
   2.8590919E-04   1.7632960E+05   -1.7318670E+00
   2.8722955E-04   1.7492840E+05   -1.7312941E+00
   2.8855600E-04   1.7353880E+05   -1.7307214E+00
   2.8988859E-04   1.7216069E+05   -1.7301489E+00
   2.9122732E-04   1.7079397E+05   -1.7295767E+00
   2.9257224E-04   1.6943855E+05   -1.7290046E+00
   2.9392337E-04   1.6809432E+05   -1.7284328E+00
   2.9528074E-04   1.6676120E+05   -1.7278612E+00
   2.9664438E-04   1.6543909E+05   -1.7272898E+00
   2.9801431E-04   1.6412790E+05   -1.7267187E+00
   2.9939057E-04   1.6282752E+05   -1.7261478E+00
   3.0077319E-04   1.6153787E+05   -1.7255771E+00
   3.0216219E-04   1.6025886E+05   -1.7250068E+00
   3.0355761E-04   1.5899039E+05   -1.7244366E+00
   3.0495947E-04   1.5773238E+05   -1.7238668E+00
   3.0636780E-04   1.5648473E+05   -1.7232972E+00
   3.0778264E-04   1.5524736E+05   -1.7227279E+00
   3.0920401E-04   1.5402017E+05   -1.7221589E+00
   3.1063195E-04   1.5280309E+05   -1.7215902E+00
   3.1206648E-04   1.5159602E+05   -1.7210218E+00
   3.1350764E-04   1.5039888E+05   -1.7204536E+00
   3.1495545E-04   1.4921159E+05   -1.7198858E+00
   3.1640994E-04   1.4803405E+05   -1.7193183E+00
   3.1787116E-04   1.4686619E+05   -1.7187512E+00
   3.1933912E-04   1.4570793E+05   -1.7181843E+00
   3.2081386E-04   1.4455917E+05   -1.7176178E+00
   3.2229541E-04   1.4341985E+05   -1.7170516E+00
   3.2378381E-04   1.4228988E+05   -1.7164858E+00
   3.2527908E-04   1.4116918E+05   -1.7159203E+00
   3.2678125E-04   1.4005767E+05   -1.7153551E+00
   3.2829036E-04   1.3895528E+05   -1.7147904E+00
   3.2980644E-04   1.3786192E+05   -1.7142260E+00
   3.3132952E-04   1.3677751E+05   -1.7136619E+00
   3.3285963E-04   1.3570199E+05   -1.7130983E+00
   3.3439681E-04   1.3463528E+05   -1.7125350E+00
   3.3594109E-04   1.3357730E+05   -1.7119721E+00
   3.3749250E-04   1.3252798E+05   -1.7114096E+00
   3.3905108E-04   1.3148724E+05   -1.7108475E+00
   3.4061685E-04   1.3045501E+05   -1.7102858E+00
   3.4218986E-04   1.2943122E+05   -1.7097245E+00
   3.4377013E-04   1.2841579E+05   -1.7091637E+00
   3.4535769E-04   1.2740866E+05   -1.7086032E+00
   3.4695259E-04   1.2640976E+05   -1.7080432E+00
   3.4855485E-04   1.2541901E+05   -1.7074836E+00
   3.5016452E-04   1.2443635E+05   -1.7069245E+00
   3.5178161E-04   1.2346170E+05   -1.7063658E+00
   3.5340618E-04   1.2249500E+05   -1.7058075E+00
   3.5503824E-04   1.2153619E+05   -1.7052497E+00
   3.5667785E-04   1.2058519E+05   -1.7046924E+00
   3.5832502E-04   1.1964194E+05   -1.7041355E+00
   3.5997981E-04   1.1870637E+05   -1.7035791E+00
   3.6164223E-04   1.1777842E+05   -1.7030231E+00
   3.6331233E-04   1.1685802E+05   -1.7024677E+00
   3.6499015E-04   1.1594511E+05   -1.7019127E+00
   3.6667571E-04   1.1503962E+05   -1.7013582E+00
   3.6836906E-04   1.1414150E+05   -1.7008043E+00
   3.7007022E-04   1.1325068E+05   -1.7002508E+00
   3.7177925E-04   1.1236710E+05   -1.6996978E+00
   3.7349616E-04   1.1149070E+05   -1.6991454E+00
   3.7522101E-04   1.1062141E+05   -1.6985934E+00
   3.7695382E-04   1.0975918E+05   -1.6980420E+00
   3.7869463E-04   1.0890395E+05   -1.6974911E+00
   3.8044348E-04   1.0805566E+05   -1.6969407E+00
   3.8220041E-04   1.0721424E+05   -1.6963909E+00
   3.8396545E-04   1.0637965E+05   -1.6958416E+00
   3.8573864E-04   1.0555182E+05   -1.6952929E+00
   3.8752002E-04   1.0473070E+05   -1.6947447E+00
   3.8930963E-04   1.0391622E+05   -1.6941971E+00
   3.9110750E-04   1.0310834E+05   -1.6936500E+00
   3.9291368E-04   1.0230700E+05   -1.6931035E+00
   3.9472820E-04   1.0151215E+05   -1.6925576E+00
   3.9655109E-04   1.0072372E+05   -1.6920123E+00
   3.9838241E-04   9.9941663E+04   -1.6914675E+00
   4.0022218E-04   9.9165929E+04   -1.6909233E+00
   4.0207045E-04   9.8396464E+04   -1.6903797E+00
   4.0392725E-04   9.7633214E+04   -1.6898367E+00
   4.0579263E-04   9.6876126E+04   -1.6892943E+00
   4.0766662E-04   9.6125150E+04   -1.6887526E+00
   4.0954927E-04   9.5380232E+04   -1.6882114E+00
   4.1144061E-04   9.4641323E+04   -1.6876708E+00
   4.1334068E-04   9.3908373E+04   -1.6871309E+00
   4.1524953E-04   9.3181330E+04   -1.6865916E+00
   4.1716720E-04   9.2460146E+04   -1.6860529E+00
   4.1909372E-04   9.1744771E+04   -1.6855149E+00
   4.2102914E-04   9.1035156E+04   -1.6849774E+00
   4.2297350E-04   9.0331253E+04   -1.6844407E+00
   4.2492683E-04   8.9633015E+04   -1.6839045E+00
   4.2688919E-04   8.8940394E+04   -1.6833691E+00
   4.2886061E-04   8.8253342E+04   -1.6828343E+00
   4.3084113E-04   8.7571814E+04   -1.6823001E+00
   4.3283080E-04   8.6895762E+04   -1.6817666E+00
   4.3482966E-04   8.6225141E+04   -1.6812338E+00
   4.3683775E-04   8.5559905E+04   -1.6807017E+00
   4.3885511E-04   8.4900010E+04   -1.6801702E+00
   4.4088179E-04   8.4245411E+04   -1.6796394E+00
   4.4291783E-04   8.3596063E+04   -1.6791093E+00
   4.4496327E-04   8.2951922E+04   -1.6785799E+00
   4.4701816E-04   8.2312946E+04   -1.6780512E+00
   4.4908253E-04   8.1679090E+04   -1.6775232E+00
   4.5115644E-04   8.1050312E+04   -1.6769959E+00
   4.5323993E-04   8.0426571E+04   -1.6764693E+00
   4.5533304E-04   7.9807822E+04   -1.6759434E+00
   4.5743582E-04   7.9194026E+04   -1.6754182E+00
   4.5954830E-04   7.8585141E+04   -1.6748938E+00
   4.6167054E-04   7.7981125E+04   -1.6743701E+00
   4.6380259E-04   7.7381939E+04   -1.6738471E+00
   4.6594448E-04   7.6787541E+04   -1.6733248E+00
   4.6809626E-04   7.6197892E+04   -1.6728033E+00
   4.7025797E-04   7.5612953E+04   -1.6722825E+00
   4.7242967E-04   7.5032684E+04   -1.6717625E+00
   4.7461140E-04   7.4457046E+04   -1.6712432E+00
   4.7680321E-04   7.3886001E+04   -1.6707247E+00
   4.7900514E-04   7.3319511E+04   -1.6702069E+00
   4.8121723E-04   7.2757537E+04   -1.6696898E+00
   4.8343954E-04   7.2200043E+04   -1.6691736E+00
   4.8567212E-04   7.1646991E+04   -1.6686581E+00
   4.8791500E-04   7.1098344E+04   -1.6681434E+00
   4.9016825E-04   7.0554066E+04   -1.6676294E+00
   4.9243189E-04   7.0014120E+04   -1.6671163E+00
   4.9470600E-04   6.9478470E+04   -1.6666039E+00
   4.9699060E-04   6.8947081E+04   -1.6660923E+00
   4.9928575E-04   6.8419917E+04   -1.6655815E+00
   5.0159151E-04   6.7896943E+04   -1.6650715E+00
   5.0390791E-04   6.7378125E+04   -1.6645623E+00
   5.0623501E-04   6.6863429E+04   -1.6640538E+00
   5.0857286E-04   6.6352819E+04   -1.6635462E+00
   5.1092150E-04   6.5846262E+04   -1.6630394E+00
   5.1328099E-04   6.5343725E+04   -1.6625334E+00
   5.1565137E-04   6.4845175E+04   -1.6620282E+00
   5.1803270E-04   6.4350578E+04   -1.6615239E+00
   5.2042503E-04   6.3859902E+04   -1.6610203E+00
   5.2282841E-04   6.3373114E+04   -1.6605176E+00
   5.2524289E-04   6.2890182E+04   -1.6600157E+00
   5.2766851E-04   6.2411075E+04   -1.6595147E+00
   5.3010534E-04   6.1935760E+04   -1.6590144E+00
   5.3255342E-04   6.1464207E+04   -1.6585150E+00
   5.3501281E-04   6.0996385E+04   -1.6580165E+00
   5.3748356E-04   6.0532262E+04   -1.6575188E+00
   5.3996571E-04   6.0071808E+04   -1.6570219E+00
   5.4245933E-04   5.9614993E+04   -1.6565259E+00
   5.4496446E-04   5.9161787E+04   -1.6560308E+00
   5.4748117E-04   5.8712160E+04   -1.6555365E+00
   5.5000949E-04   5.8266083E+04   -1.6550430E+00
   5.5254949E-04   5.7823527E+04   -1.6545504E+00
   5.5510123E-04   5.7384462E+04   -1.6540587E+00
   5.5766474E-04   5.6948859E+04   -1.6535679E+00
   5.6024010E-04   5.6516692E+04   -1.6530779E+00
   5.6282734E-04   5.6087930E+04   -1.6525888E+00
   5.6542654E-04   5.5662546E+04   -1.6521006E+00
   5.6803774E-04   5.5240513E+04   -1.6516132E+00
   5.7066099E-04   5.4821802E+04   -1.6511268E+00
   5.7329637E-04   5.4406387E+04   -1.6506412E+00
   5.7594391E-04   5.3994241E+04   -1.6501565E+00
   5.7860368E-04   5.3585336E+04   -1.6496727E+00
   5.8127573E-04   5.3179647E+04   -1.6491898E+00
   5.8396012E-04   5.2777146E+04   -1.6487077E+00
   5.8665691E-04   5.2377808E+04   -1.6482266E+00
   5.8936616E-04   5.1981607E+04   -1.6477464E+00
   5.9208791E-04   5.1588516E+04   -1.6472671E+00
   5.9482223E-04   5.1198511E+04   -1.6467887E+00
   5.9756919E-04   5.0811567E+04   -1.6463112E+00
   6.0032882E-04   5.0427657E+04   -1.6458346E+00
   6.0310120E-04   5.0046758E+04   -1.6453589E+00
   6.0588639E-04   4.9668845E+04   -1.6448841E+00
   6.0868443E-04   4.9293894E+04   -1.6444103E+00
   6.1149540E-04   4.8921879E+04   -1.6439374E+00
   6.1431935E-04   4.8552778E+04   -1.6434654E+00
   6.1715634E-04   4.8186566E+04   -1.6429943E+00
   6.2000644E-04   4.7823221E+04   -1.6425241E+00
   6.2286969E-04   4.7462717E+04   -1.6420549E+00
