#        a       HoverH0(a)       dlogHdloga_of_a(a)
   1.0000000E-04   1.0533124E+06   -1.8661086E+00
   1.0046181E-04   1.0442959E+06   -1.8656564E+00
   1.0092575E-04   1.0353587E+06   -1.8652032E+00
   1.0139184E-04   1.0265002E+06   -1.8647491E+00
   1.0186008E-04   1.0177195E+06   -1.8642940E+00
   1.0233048E-04   1.0090161E+06   -1.8638380E+00
   1.0280305E-04   1.0003893E+06   -1.8633809E+00
   1.0327781E-04   9.9183827E+05   -1.8629230E+00
   1.0375475E-04   9.8336243E+05   -1.8624641E+00
   1.0423390E-04   9.7496108E+05   -1.8620042E+00
   1.0471527E-04   9.6663356E+05   -1.8615434E+00
   1.0519885E-04   9.5837920E+05   -1.8610816E+00
   1.0568467E-04   9.5019736E+05   -1.8606189E+00
   1.0617274E-04   9.4208737E+05   -1.8601552E+00
   1.0666305E-04   9.3404860E+05   -1.8596906E+00
   1.0715563E-04   9.2608041E+05   -1.8592251E+00
   1.0765049E-04   9.1818217E+05   -1.8587586E+00
   1.0814763E-04   9.1035325E+05   -1.8582912E+00
   1.0864707E-04   9.0259303E+05   -1.8578228E+00
   1.0914881E-04   8.9490089E+05   -1.8573535E+00
   1.0965287E-04   8.8727623E+05   -1.8568833E+00
   1.1015926E-04   8.7971843E+05   -1.8564122E+00
   1.1066799E-04   8.7222691E+05   -1.8559401E+00
   1.1117906E-04   8.6480107E+05   -1.8554671E+00
   1.1169250E-04   8.5744032E+05   -1.8549932E+00
   1.1220831E-04   8.5014408E+05   -1.8545184E+00
   1.1272650E-04   8.4291176E+05   -1.8540426E+00
   1.1324708E-04   8.3574282E+05   -1.8535660E+00
   1.1377007E-04   8.2863666E+05   -1.8530884E+00
   1.1429547E-04   8.2159274E+05   -1.8526099E+00
   1.1482330E-04   8.1461049E+05   -1.8521306E+00
   1.1535356E-04   8.0768937E+05   -1.8516503E+00
   1.1588628E-04   8.0082882E+05   -1.8511691E+00
   1.1642145E-04   7.9402831E+05   -1.8506870E+00
   1.1695910E-04   7.8728730E+05   -1.8502040E+00
   1.1749923E-04   7.8060525E+05   -1.8497202E+00
   1.1804185E-04   7.7398165E+05   -1.8492354E+00
   1.1858698E-04   7.6741596E+05   -1.8487498E+00
   1.1913463E-04   7.6090767E+05   -1.8482632E+00
   1.1968481E-04   7.5445627E+05   -1.8477758E+00
   1.2023752E-04   7.4806126E+05   -1.8472875E+00
   1.2079279E-04   7.4172212E+05   -1.8467983E+00
   1.2135063E-04   7.3543835E+05   -1.8463083E+00
   1.2191104E-04   7.2920948E+05   -1.8458174E+00
   1.2247403E-04   7.2303499E+05   -1.8453256E+00
   1.2303963E-04   7.1691441E+05   -1.8448329E+00
   1.2360784E-04   7.1084726E+05   -1.8443394E+00
   1.2417868E-04   7.0483305E+05   -1.8438451E+00
   1.2475215E-04   6.9887133E+05   -1.8433498E+00
   1.2532826E-04   6.9296161E+05   -1.8428538E+00
   1.2590704E-04   6.8710344E+05   -1.8423568E+00
   1.2648850E-04   6.8129635E+05   -1.8418590E+00
   1.2707263E-04   6.7553989E+05   -1.8413604E+00
   1.2765947E-04   6.6983361E+05   -1.8408610E+00
   1.2824901E-04   6.6417706E+05   -1.8403607E+00
   1.2884128E-04   6.5856980E+05   -1.8398595E+00
   1.2943628E-04   6.5301139E+05   -1.8393576E+00
   1.3003403E-04   6.4750138E+05   -1.8388548E+00
   1.3063454E-04   6.4203936E+05   -1.8383512E+00
   1.3123783E-04   6.3662490E+05   -1.8378467E+00
   1.3184390E-04   6.3125756E+05   -1.8373415E+00
   1.3245277E-04   6.2593693E+05   -1.8368354E+00
   1.3306445E-04   6.2066260E+05   -1.8363286E+00
   1.3367895E-04   6.1543415E+05   -1.8358209E+00
   1.3429630E-04   6.1025117E+05   -1.8353124E+00
   1.3491649E-04   6.0511325E+05   -1.8348031E+00
   1.3553955E-04   6.0002001E+05   -1.8342930E+00
   1.3616548E-04   5.9497104E+05   -1.8337821E+00
   1.3679431E-04   5.8996594E+05   -1.8332705E+00
   1.3742604E-04   5.8500432E+05   -1.8327580E+00
   1.3806069E-04   5.8008581E+05   -1.8322448E+00
   1.3869827E-04   5.7521001E+05   -1.8317308E+00
   1.3933879E-04   5.7037654E+05   -1.8312160E+00
   1.3998227E-04   5.6558503E+05   -1.8307004E+00
   1.4062872E-04   5.6083510E+05   -1.8301841E+00
   1.4127816E-04   5.5612639E+05   -1.8296670E+00
   1.4193060E-04   5.5145853E+05   -1.8291491E+00
   1.4258605E-04   5.4683115E+05   -1.8286305E+00
   1.4324453E-04   5.4224390E+05   -1.8281112E+00
   1.4390605E-04   5.3769642E+05   -1.8275911E+00
   1.4457062E-04   5.3318836E+05   -1.8270702E+00
   1.4523826E-04   5.2871936E+05   -1.8265486E+00
   1.4590899E-04   5.2428908E+05   -1.8260263E+00
   1.4658281E-04   5.1989717E+05   -1.8255032E+00
   1.4725974E-04   5.1554330E+05   -1.8249794E+00
   1.4793981E-04   5.1122712E+05   -1.8244549E+00
   1.4862301E-04   5.0694830E+05   -1.8239297E+00
   1.4930936E-04   5.0270652E+05   -1.8234037E+00
   1.4999889E-04   4.9850143E+05   -1.8228771E+00
   1.5069160E-04   4.9433272E+05   -1.8223497E+00
   1.5138751E-04   4.9020007E+05   -1.8218216E+00
   1.5208663E-04   4.8610314E+05   -1.8212928E+00
   1.5278899E-04   4.8204163E+05   -1.8207634E+00
   1.5349458E-04   4.7801523E+05   -1.8202332E+00
   1.5420343E-04   4.7402361E+05   -1.8197024E+00
   1.5491556E-04   4.7006648E+05   -1.8191708E+00
   1.5563098E-04   4.6614352E+05   -1.8186386E+00
   1.5634970E-04   4.6225444E+05   -1.8181057E+00
   1.5707174E-04   4.5839893E+05   -1.8175722E+00
   1.5779711E-04   4.5457669E+05   -1.8170380E+00
   1.5852584E-04   4.5078744E+05   -1.8165031E+00
   1.5925792E-04   4.4703087E+05   -1.8159675E+00
   1.5999339E-04   4.4330671E+05   -1.8154314E+00
   1.6073226E-04   4.3961465E+05   -1.8148945E+00
   1.6147454E-04   4.3595443E+05   -1.8143570E+00
   1.6222024E-04   4.3232575E+05   -1.8138189E+00
   1.6296939E-04   4.2872834E+05   -1.8132802E+00
   1.6372200E-04   4.2516191E+05   -1.8127408E+00
   1.6447809E-04   4.2162621E+05   -1.8122008E+00
   1.6523767E-04   4.1812095E+05   -1.8116602E+00
   1.6600075E-04   4.1464586E+05   -1.8111189E+00
   1.6676736E-04   4.1120068E+05   -1.8105771E+00
   1.6753751E-04   4.0778515E+05   -1.8100346E+00
   1.6831122E-04   4.0439899E+05   -1.8094916E+00
   1.6908849E-04   4.0104196E+05   -1.8089479E+00
   1.6986936E-04   3.9771379E+05   -1.8084037E+00
   1.7065384E-04   3.9441424E+05   -1.8078589E+00
   1.7144193E-04   3.9114303E+05   -1.8073135E+00
   1.7223367E-04   3.8789994E+05   -1.8067675E+00
   1.7302906E-04   3.8468470E+05   -1.8062209E+00
   1.7382813E-04   3.8149708E+05   -1.8056738E+00
   1.7463089E-04   3.7833682E+05   -1.8051261E+00
   1.7543735E-04   3.7520369E+05   -1.8045779E+00
   1.7624754E-04   3.7209745E+05   -1.8040291E+00
   1.7706147E-04   3.6901785E+05   -1.8034797E+00
   1.7787916E-04   3.6596467E+05   -1.8029299E+00
   1.7870062E-04   3.6293767E+05   -1.8023794E+00
   1.7952588E-04   3.5993662E+05   -1.8018285E+00
   1.8035495E-04   3.5696130E+05   -1.8012770E+00
   1.8118785E-04   3.5401146E+05   -1.8007250E+00
   1.8202459E-04   3.5108690E+05   -1.8001725E+00
   1.8286520E-04   3.4818738E+05   -1.7996195E+00
   1.8370969E-04   3.4531270E+05   -1.7990659E+00
   1.8455808E-04   3.4246262E+05   -1.7985119E+00
   1.8541039E-04   3.3963693E+05   -1.7979574E+00
   1.8626663E-04   3.3683541E+05   -1.7974023E+00
   1.8712683E-04   3.3405786E+05   -1.7968468E+00
   1.8799100E-04   3.3130406E+05   -1.7962908E+00
   1.8885917E-04   3.2857381E+05   -1.7957344E+00
   1.8973134E-04   3.2586689E+05   -1.7951775E+00
   1.9060754E-04   3.2318310E+05   -1.7946201E+00
   1.9148778E-04   3.2052223E+05   -1.7940622E+00
   1.9237209E-04   3.1788409E+05   -1.7935039E+00
   1.9326049E-04   3.1526848E+05   -1.7929451E+00
   1.9415299E-04   3.1267519E+05   -1.7923859E+00
   1.9504960E-04   3.1010404E+05   -1.7918263E+00
   1.9595036E-04   3.0755482E+05   -1.7912662E+00
   1.9685528E-04   3.0502735E+05   -1.7907057E+00
   1.9776438E-04   3.0252142E+05   -1.7901448E+00
   1.9867768E-04   3.0003686E+05   -1.7895835E+00
   1.9959519E-04   2.9757348E+05   -1.7890218E+00
   2.0051694E-04   2.9513108E+05   -1.7884596E+00
   2.0144295E-04   2.9270949E+05   -1.7878971E+00
   2.0237324E-04   2.9030852E+05   -1.7873341E+00
   2.0330782E-04   2.8792799E+05   -1.7867708E+00
   2.0424671E-04   2.8556773E+05   -1.7862071E+00
   2.0518995E-04   2.8322754E+05   -1.7856430E+00
   2.0613754E-04   2.8090727E+05   -1.7850786E+00
   2.0708950E-04   2.7860673E+05   -1.7845137E+00
   2.0804586E-04   2.7632575E+05   -1.7839486E+00
   2.0900664E-04   2.7406416E+05   -1.7833830E+00
   2.0997185E-04   2.7182178E+05   -1.7828171E+00
   2.1094152E-04   2.6959846E+05   -1.7822509E+00
   2.1191567E-04   2.6739402E+05   -1.7816843E+00
   2.1289432E-04   2.6520829E+05   -1.7811175E+00
   2.1387749E-04   2.6304112E+05   -1.7805502E+00
   2.1486520E-04   2.6089235E+05   -1.7799827E+00
   2.1585747E-04   2.5876180E+05   -1.7794148E+00
   2.1685432E-04   2.5664932E+05   -1.7788467E+00
   2.1785578E-04   2.5455475E+05   -1.7782782E+00
   2.1886186E-04   2.5247794E+05   -1.7777095E+00
   2.1987259E-04   2.5041874E+05   -1.7771404E+00
   2.2088798E-04   2.4837697E+05   -1.7765711E+00
   2.2190807E-04   2.4635250E+05   -1.7760015E+00
   2.2293286E-04   2.4434518E+05   -1.7754316E+00
   2.2396239E-04   2.4235484E+05   -1.7748614E+00
   2.2499667E-04   2.4038135E+05   -1.7742910E+00
   2.2603573E-04   2.3842456E+05   -1.7737203E+00
   2.2707958E-04   2.3648432E+05   -1.7731494E+00
   2.2812826E-04   2.3456048E+05   -1.7725782E+00
   2.2918178E-04   2.3265291E+05   -1.7720068E+00
   2.3024017E-04   2.3076146E+05   -1.7714352E+00
   2.3130344E-04   2.2888598E+05   -1.7708633E+00
   2.3237162E-04   2.2702635E+05   -1.7702912E+00
   2.3344474E-04   2.2518242E+05   -1.7697189E+00
   2.3452281E-04   2.2335406E+05   -1.7691464E+00
   2.3560586E-04   2.2154113E+05   -1.7685737E+00
   2.3669392E-04   2.1974349E+05   -1.7680008E+00
   2.3778699E-04   2.1796102E+05   -1.7674277E+00
   2.3888512E-04   2.1619357E+05   -1.7668544E+00
   2.3998831E-04   2.1444102E+05   -1.7662810E+00
   2.4109661E-04   2.1270325E+05   -1.7657073E+00
   2.4221001E-04   2.1098011E+05   -1.7651335E+00
   2.4332857E-04   2.0927148E+05   -1.7645596E+00
   2.4445228E-04   2.0757724E+05   -1.7639855E+00
   2.4558119E-04   2.0589727E+05   -1.7634112E+00
   2.4671531E-04   2.0423142E+05   -1.7628368E+00
   2.4785467E-04   2.0257960E+05   -1.7622623E+00
   2.4899928E-04   2.0094166E+05   -1.7616876E+00
   2.5014919E-04   1.9931750E+05   -1.7611128E+00
   2.5130440E-04   1.9770699E+05   -1.7605379E+00
   2.5246495E-04   1.9611001E+05   -1.7599629E+00
   2.5363086E-04   1.9452644E+05   -1.7593877E+00
   2.5480216E-04   1.9295618E+05   -1.7588125E+00
   2.5597886E-04   1.9139909E+05   -1.7582372E+00
   2.5716100E-04   1.8985508E+05   -1.7576618E+00
   2.5834859E-04   1.8832402E+05   -1.7570863E+00
   2.5954168E-04   1.8680580E+05   -1.7565107E+00
   2.6074027E-04   1.8530031E+05   -1.7559351E+00
   2.6194439E-04   1.8380745E+05   -1.7553594E+00
   2.6315408E-04   1.8232709E+05   -1.7547836E+00
   2.6436935E-04   1.8085914E+05   -1.7542078E+00
   2.6559024E-04   1.7940348E+05   -1.7536319E+00
   2.6681676E-04   1.7796001E+05   -1.7530560E+00
   2.6804895E-04   1.7652862E+05   -1.7524801E+00
   2.6928683E-04   1.7510921E+05   -1.7519042E+00
   2.7053042E-04   1.7370168E+05   -1.7513282E+00
   2.7177976E-04   1.7230591E+05   -1.7507522E+00
   2.7303487E-04   1.7092182E+05   -1.7501762E+00
   2.7429577E-04   1.6954929E+05   -1.7496002E+00
   2.7556250E-04   1.6818823E+05   -1.7490242E+00
   2.7683507E-04   1.6683854E+05   -1.7484482E+00
   2.7811353E-04   1.6550012E+05   -1.7478722E+00
   2.7939788E-04   1.6417287E+05   -1.7472963E+00
   2.8068817E-04   1.6285670E+05   -1.7467204E+00
   2.8198442E-04   1.6155151E+05   -1.7461445E+00
   2.8328665E-04   1.6025720E+05   -1.7455686E+00
   2.8459490E-04   1.5897369E+05   -1.7449928E+00
   2.8590919E-04   1.5770087E+05   -1.7444171E+00
   2.8722955E-04   1.5643866E+05   -1.7438414E+00
   2.8855600E-04   1.5518696E+05   -1.7432658E+00
   2.8988859E-04   1.5394569E+05   -1.7426902E+00
   2.9122732E-04   1.5271475E+05   -1.7421147E+00
   2.9257224E-04   1.5149405E+05   -1.7415393E+00
   2.9392337E-04   1.5028351E+05   -1.7409640E+00
   2.9528074E-04   1.4908304E+05   -1.7403888E+00
   2.9664438E-04   1.4789255E+05   -1.7398137E+00
   2.9801431E-04   1.4671196E+05   -1.7392387E+00
   2.9939057E-04   1.4554117E+05   -1.7386638E+00
   3.0077319E-04   1.4438011E+05   -1.7380891E+00
   3.0216219E-04   1.4322870E+05   -1.7375144E+00
   3.0355761E-04   1.4208684E+05   -1.7369399E+00
   3.0495947E-04   1.4095445E+05   -1.7363656E+00
   3.0636780E-04   1.3983147E+05   -1.7357913E+00
   3.0778264E-04   1.3871779E+05   -1.7352173E+00
   3.0920401E-04   1.3761335E+05   -1.7346433E+00
   3.1063195E-04   1.3651806E+05   -1.7340696E+00
   3.1206648E-04   1.3543185E+05   -1.7334960E+00
   3.1350764E-04   1.3435464E+05   -1.7329226E+00
   3.1495545E-04   1.3328635E+05   -1.7323493E+00
   3.1640994E-04   1.3222690E+05   -1.7317763E+00
   3.1787116E-04   1.3117621E+05   -1.7312034E+00
   3.1933912E-04   1.3013422E+05   -1.7306308E+00
   3.2081386E-04   1.2910085E+05   -1.7300583E+00
   3.2229541E-04   1.2807602E+05   -1.7294860E+00
   3.2378381E-04   1.2705966E+05   -1.7289140E+00
   3.2527908E-04   1.2605170E+05   -1.7283422E+00
   3.2678125E-04   1.2505207E+05   -1.7277706E+00
   3.2829036E-04   1.2406068E+05   -1.7271993E+00
   3.2980644E-04   1.2307749E+05   -1.7266282E+00
   3.3132952E-04   1.2210240E+05   -1.7260573E+00
   3.3285963E-04   1.2113536E+05   -1.7254867E+00
   3.3439681E-04   1.2017629E+05   -1.7249163E+00
   3.3594109E-04   1.1922513E+05   -1.7243462E+00
   3.3749250E-04   1.1828181E+05   -1.7237764E+00
   3.3905108E-04   1.1734626E+05   -1.7232069E+00
   3.4061685E-04   1.1641842E+05   -1.7226376E+00
   3.4218986E-04   1.1549821E+05   -1.7220686E+00
   3.4377013E-04   1.1458558E+05   -1.7214999E+00
   3.4535769E-04   1.1368046E+05   -1.7209315E+00
   3.4695259E-04   1.1278278E+05   -1.7203634E+00
   3.4855485E-04   1.1189249E+05   -1.7197956E+00
   3.5016452E-04   1.1100951E+05   -1.7192282E+00
   3.5178161E-04   1.1013379E+05   -1.7186610E+00
   3.5340618E-04   1.0926526E+05   -1.7180942E+00
   3.5503824E-04   1.0840386E+05   -1.7175277E+00
   3.5667785E-04   1.0754954E+05   -1.7169616E+00
   3.5832502E-04   1.0670223E+05   -1.7163958E+00
   3.5997981E-04   1.0586186E+05   -1.7158303E+00
   3.6164223E-04   1.0502839E+05   -1.7152652E+00
   3.6331233E-04   1.0420176E+05   -1.7147005E+00
   3.6499015E-04   1.0338190E+05   -1.7141361E+00
   3.6667571E-04   1.0256875E+05   -1.7135721E+00
   3.6836906E-04   1.0176227E+05   -1.7130085E+00
   3.7007022E-04   1.0096239E+05   -1.7124453E+00
   3.7177925E-04   1.0016905E+05   -1.7118824E+00
   3.7349616E-04   9.9382209E+04   -1.7113200E+00
   3.7522101E-04   9.8601803E+04   -1.7107579E+00
   3.7695382E-04   9.7827778E+04   -1.7101963E+00
   3.7869463E-04   9.7060081E+04   -1.7096351E+00
   3.8044348E-04   9.6298657E+04   -1.7090742E+00
   3.8220041E-04   9.5543453E+04   -1.7085138E+00
   3.8396545E-04   9.4794416E+04   -1.7079539E+00
   3.8573864E-04   9.4051495E+04   -1.7073943E+00
   3.8752002E-04   9.3314636E+04   -1.7068352E+00
   3.8930963E-04   9.2583788E+04   -1.7062766E+00
   3.9110750E-04   9.1858901E+04   -1.7057184E+00
   3.9291368E-04   9.1139923E+04   -1.7051606E+00
   3.9472820E-04   9.0426805E+04   -1.7046033E+00
   3.9655109E-04   8.9719497E+04   -1.7040465E+00
   3.9838241E-04   8.9017950E+04   -1.7034902E+00
   4.0022218E-04   8.8322115E+04   -1.7029343E+00
   4.0207045E-04   8.7631944E+04   -1.7023789E+00
   4.0392725E-04   8.6947388E+04   -1.7018240E+00
   4.0579263E-04   8.6268400E+04   -1.7012696E+00
   4.0766662E-04   8.5594933E+04   -1.7007156E+00
   4.0954927E-04   8.4926941E+04   -1.7001622E+00
   4.1144061E-04   8.4264376E+04   -1.6996093E+00
   4.1334068E-04   8.3607193E+04   -1.6990569E+00
   4.1524953E-04   8.2955346E+04   -1.6985050E+00
   4.1716720E-04   8.2308791E+04   -1.6979537E+00
   4.1909372E-04   8.1667482E+04   -1.6974028E+00
   4.2102914E-04   8.1031376E+04   -1.6968525E+00
   4.2297350E-04   8.0400428E+04   -1.6963028E+00
   4.2492683E-04   7.9774595E+04   -1.6957536E+00
   4.2688919E-04   7.9153833E+04   -1.6952049E+00
   4.2886061E-04   7.8538101E+04   -1.6946568E+00
   4.3084113E-04   7.7927355E+04   -1.6941092E+00
   4.3283080E-04   7.7321553E+04   -1.6935622E+00
   4.3482966E-04   7.6720654E+04   -1.6930158E+00
   4.3683775E-04   7.6124617E+04   -1.6924699E+00
   4.3885511E-04   7.5533400E+04   -1.6919247E+00
   4.4088179E-04   7.4946962E+04   -1.6913800E+00
   4.4291783E-04   7.4365264E+04   -1.6908359E+00
   4.4496327E-04   7.3788266E+04   -1.6902923E+00
   4.4701816E-04   7.3215928E+04   -1.6897494E+00
   4.4908253E-04   7.2648211E+04   -1.6892071E+00
   4.5115644E-04   7.2085077E+04   -1.6886654E+00
   4.5323993E-04   7.1526485E+04   -1.6881243E+00
   4.5533304E-04   7.0972400E+04   -1.6875838E+00
   4.5743582E-04   7.0422781E+04   -1.6870440E+00
   4.5954830E-04   6.9877593E+04   -1.6865047E+00
   4.6167054E-04   6.9336798E+04   -1.6859661E+00
   4.6380259E-04   6.8800358E+04   -1.6854281E+00
   4.6594448E-04   6.8268238E+04   -1.6848908E+00
   4.6809626E-04   6.7740401E+04   -1.6843541E+00
   4.7025797E-04   6.7216812E+04   -1.6838181E+00
   4.7242967E-04   6.6697434E+04   -1.6832827E+00
   4.7461140E-04   6.6182232E+04   -1.6827479E+00
   4.7680321E-04   6.5671171E+04   -1.6822139E+00
   4.7900514E-04   6.5164218E+04   -1.6816805E+00
   4.8121723E-04   6.4661336E+04   -1.6811477E+00
   4.8343954E-04   6.4162493E+04   -1.6806157E+00
   4.8567212E-04   6.3667654E+04   -1.6800843E+00
   4.8791500E-04   6.3176787E+04   -1.6795536E+00
   4.9016825E-04   6.2689856E+04   -1.6790236E+00
   4.9243189E-04   6.2206831E+04   -1.6784943E+00
   4.9470600E-04   6.1727678E+04   -1.6779656E+00
   4.9699060E-04   6.1252364E+04   -1.6774377E+00
   4.9928575E-04   6.0780859E+04   -1.6769105E+00
   5.0159151E-04   6.0313129E+04   -1.6763840E+00
   5.0390791E-04   5.9849144E+04   -1.6758582E+00
   5.0623501E-04   5.9388871E+04   -1.6753331E+00
   5.0857286E-04   5.8932281E+04   -1.6748088E+00
   5.1092150E-04   5.8479343E+04   -1.6742851E+00
   5.1328099E-04   5.8030026E+04   -1.6737622E+00
   5.1565137E-04   5.7584299E+04   -1.6732400E+00
   5.1803270E-04   5.7142134E+04   -1.6727186E+00
   5.2042503E-04   5.6703500E+04   -1.6721979E+00
   5.2282841E-04   5.6268368E+04   -1.6716780E+00
   5.2524289E-04   5.5836708E+04   -1.6711588E+00
   5.2766851E-04   5.5408493E+04   -1.6706403E+00
   5.3010534E-04   5.4983693E+04   -1.6701226E+00
   5.3255342E-04   5.4562279E+04   -1.6696057E+00
   5.3501281E-04   5.4144225E+04   -1.6690895E+00
   5.3748356E-04   5.3729501E+04   -1.6685741E+00
   5.3996571E-04   5.3318080E+04   -1.6680595E+00
   5.4245933E-04   5.2909935E+04   -1.6675457E+00
   5.4496446E-04   5.2505039E+04   -1.6670326E+00
   5.4748117E-04   5.2103364E+04   -1.6665203E+00
   5.5000949E-04   5.1704884E+04   -1.6660088E+00
   5.5254949E-04   5.1309572E+04   -1.6654981E+00
   5.5510123E-04   5.0917403E+04   -1.6649882E+00
   5.5766474E-04   5.0528349E+04   -1.6644791E+00
   5.6024010E-04   5.0142386E+04   -1.6639707E+00
   5.6282734E-04   4.9759487E+04   -1.6634632E+00
   5.6542654E-04   4.9379628E+04   -1.6629565E+00
   5.6803774E-04   4.9002783E+04   -1.6624506E+00
   5.7066099E-04   4.8628927E+04   -1.6619455E+00
   5.7329637E-04   4.8258035E+04   -1.6614413E+00
   5.7594391E-04   4.7890083E+04   -1.6609378E+00
   5.7860368E-04   4.7525047E+04   -1.6604352E+00
   5.8127573E-04   4.7162903E+04   -1.6599334E+00
   5.8396012E-04   4.6803626E+04   -1.6594325E+00
   5.8665691E-04   4.6447194E+04   -1.6589324E+00
   5.8936616E-04   4.6093581E+04   -1.6584331E+00
   5.9208791E-04   4.5742767E+04   -1.6579346E+00
   5.9482223E-04   4.5394726E+04   -1.6574370E+00
   5.9756919E-04   4.5049436E+04   -1.6569403E+00
   6.0032882E-04   4.4706876E+04   -1.6564444E+00
   6.0310120E-04   4.4367021E+04   -1.6559493E+00
   6.0588639E-04   4.4029850E+04   -1.6554551E+00
   6.0868443E-04   4.3695341E+04   -1.6549618E+00
   6.1149540E-04   4.3363472E+04   -1.6544693E+00
   6.1431935E-04   4.3034221E+04   -1.6539777E+00
   6.1715634E-04   4.2707567E+04   -1.6534869E+00
   6.2000644E-04   4.2383488E+04   -1.6529971E+00
   6.2286969E-04   4.2061963E+04   -1.6525081E+00
