#        a       HoverH0(a)       dlogHdloga_of_a(a)
   1.0000000E-04   1.0732780E+06   -1.8576823E+00
   1.0046181E-04   1.0641319E+06   -1.8572127E+00
   1.0092575E-04   1.0550661E+06   -1.8567422E+00
   1.0139184E-04   1.0460797E+06   -1.8562708E+00
   1.0186008E-04   1.0371722E+06   -1.8557985E+00
   1.0233048E-04   1.0283427E+06   -1.8553252E+00
   1.0280305E-04   1.0195907E+06   -1.8548510E+00
   1.0327781E-04   1.0109153E+06   -1.8543759E+00
   1.0375475E-04   1.0023160E+06   -1.8538999E+00
   1.0423390E-04   9.9379193E+05   -1.8534230E+00
   1.0471527E-04   9.8534256E+05   -1.8529451E+00
   1.0519885E-04   9.7696718E+05   -1.8524664E+00
   1.0568467E-04   9.6866514E+05   -1.8519867E+00
   1.0617274E-04   9.6043576E+05   -1.8515062E+00
   1.0666305E-04   9.5227841E+05   -1.8510247E+00
   1.0715563E-04   9.4419245E+05   -1.8505424E+00
   1.0765049E-04   9.3617722E+05   -1.8500591E+00
   1.0814763E-04   9.2823210E+05   -1.8495750E+00
   1.0864707E-04   9.2035647E+05   -1.8490900E+00
   1.0914881E-04   9.1254970E+05   -1.8486041E+00
   1.0965287E-04   9.0481117E+05   -1.8481173E+00
   1.1015926E-04   8.9714029E+05   -1.8476296E+00
   1.1066799E-04   8.8953643E+05   -1.8471410E+00
   1.1117906E-04   8.8199901E+05   -1.8466516E+00
   1.1169250E-04   8.7452744E+05   -1.8461613E+00
   1.1220831E-04   8.6712111E+05   -1.8456701E+00
   1.1272650E-04   8.5977946E+05   -1.8451781E+00
   1.1324708E-04   8.5250190E+05   -1.8446852E+00
   1.1377007E-04   8.4528786E+05   -1.8441914E+00
   1.1429547E-04   8.3813678E+05   -1.8436968E+00
   1.1482330E-04   8.3104810E+05   -1.8432013E+00
   1.1535356E-04   8.2402125E+05   -1.8427050E+00
   1.1588628E-04   8.1705568E+05   -1.8422078E+00
   1.1642145E-04   8.1015085E+05   -1.8417098E+00
   1.1695910E-04   8.0330622E+05   -1.8412109E+00
   1.1749923E-04   7.9652125E+05   -1.8407112E+00
   1.1804185E-04   7.8979540E+05   -1.8402107E+00
   1.1858698E-04   7.8312816E+05   -1.8397093E+00
   1.1913463E-04   7.7651899E+05   -1.8392071E+00
   1.1968481E-04   7.6996739E+05   -1.8387041E+00
   1.2023752E-04   7.6347283E+05   -1.8382002E+00
   1.2079279E-04   7.5703482E+05   -1.8376955E+00
   1.2135063E-04   7.5065284E+05   -1.8371900E+00
   1.2191104E-04   7.4432639E+05   -1.8366837E+00
   1.2247403E-04   7.3805499E+05   -1.8361766E+00
   1.2303963E-04   7.3183814E+05   -1.8356687E+00
   1.2360784E-04   7.2567536E+05   -1.8351600E+00
   1.2417868E-04   7.1956615E+05   -1.8346504E+00
   1.2475215E-04   7.1351006E+05   -1.8341401E+00
   1.2532826E-04   7.0750660E+05   -1.8336290E+00
   1.2590704E-04   7.0155531E+05   -1.8331171E+00
   1.2648850E-04   6.9565572E+05   -1.8326044E+00
   1.2707263E-04   6.8980737E+05   -1.8320910E+00
   1.2765947E-04   6.8400981E+05   -1.8315767E+00
   1.2824901E-04   6.7826258E+05   -1.8310617E+00
   1.2884128E-04   6.7256525E+05   -1.8305459E+00
   1.2943628E-04   6.6691735E+05   -1.8300294E+00
   1.3003403E-04   6.6131846E+05   -1.8295120E+00
   1.3063454E-04   6.5576813E+05   -1.8289940E+00
   1.3123783E-04   6.5026594E+05   -1.8284751E+00
   1.3184390E-04   6.4481146E+05   -1.8279556E+00
   1.3245277E-04   6.3940427E+05   -1.8274352E+00
   1.3306445E-04   6.3404393E+05   -1.8269142E+00
   1.3367895E-04   6.2873005E+05   -1.8263924E+00
   1.3429630E-04   6.2346220E+05   -1.8258698E+00
   1.3491649E-04   6.1823998E+05   -1.8253465E+00
   1.3553955E-04   6.1306297E+05   -1.8248225E+00
   1.3616548E-04   6.0793079E+05   -1.8242978E+00
   1.3679431E-04   6.0284304E+05   -1.8237724E+00
   1.3742604E-04   5.9779930E+05   -1.8232462E+00
   1.3806069E-04   5.9279921E+05   -1.8227193E+00
   1.3869827E-04   5.8784237E+05   -1.8221917E+00
   1.3933879E-04   5.8292839E+05   -1.8216635E+00
   1.3998227E-04   5.7805689E+05   -1.8211345E+00
   1.4062872E-04   5.7322751E+05   -1.8206048E+00
   1.4127816E-04   5.6843986E+05   -1.8200744E+00
   1.4193060E-04   5.6369357E+05   -1.8195434E+00
   1.4258605E-04   5.5898829E+05   -1.8190117E+00
   1.4324453E-04   5.5432363E+05   -1.8184792E+00
   1.4390605E-04   5.4969926E+05   -1.8179462E+00
   1.4457062E-04   5.4511480E+05   -1.8174124E+00
   1.4523826E-04   5.4056991E+05   -1.8168780E+00
   1.4590899E-04   5.3606423E+05   -1.8163429E+00
   1.4658281E-04   5.3159742E+05   -1.8158072E+00
   1.4725974E-04   5.2716913E+05   -1.8152708E+00
   1.4793981E-04   5.2277902E+05   -1.8147338E+00
   1.4862301E-04   5.1842675E+05   -1.8141961E+00
   1.4930936E-04   5.1411199E+05   -1.8136578E+00
   1.4999889E-04   5.0983441E+05   -1.8131189E+00
   1.5069160E-04   5.0559367E+05   -1.8125793E+00
   1.5138751E-04   5.0138946E+05   -1.8120392E+00
   1.5208663E-04   4.9722144E+05   -1.8114984E+00
   1.5278899E-04   4.9308930E+05   -1.8109570E+00
   1.5349458E-04   4.8899272E+05   -1.8104149E+00
   1.5420343E-04   4.8493139E+05   -1.8098723E+00
   1.5491556E-04   4.8090499E+05   -1.8093291E+00
   1.5563098E-04   4.7691322E+05   -1.8087853E+00
   1.5634970E-04   4.7295577E+05   -1.8082408E+00
   1.5707174E-04   4.6903233E+05   -1.8076958E+00
   1.5779711E-04   4.6514261E+05   -1.8071503E+00
   1.5852584E-04   4.6128631E+05   -1.8066041E+00
   1.5925792E-04   4.5746313E+05   -1.8060574E+00
   1.5999339E-04   4.5367278E+05   -1.8055101E+00
   1.6073226E-04   4.4991497E+05   -1.8049623E+00
   1.6147454E-04   4.4618941E+05   -1.8044139E+00
   1.6222024E-04   4.4249582E+05   -1.8038649E+00
   1.6296939E-04   4.3883392E+05   -1.8033154E+00
   1.6372200E-04   4.3520343E+05   -1.8027654E+00
   1.6447809E-04   4.3160406E+05   -1.8022148E+00
   1.6523767E-04   4.2803555E+05   -1.8016637E+00
   1.6600075E-04   4.2449762E+05   -1.8011121E+00
   1.6676736E-04   4.2099001E+05   -1.8005599E+00
   1.6753751E-04   4.1751244E+05   -1.8000072E+00
   1.6831122E-04   4.1406466E+05   -1.7994541E+00
   1.6908849E-04   4.1064639E+05   -1.7989004E+00
   1.6986936E-04   4.0725738E+05   -1.7983462E+00
   1.7065384E-04   4.0389737E+05   -1.7977915E+00
   1.7144193E-04   4.0056610E+05   -1.7972364E+00
   1.7223367E-04   3.9726333E+05   -1.7966807E+00
   1.7302906E-04   3.9398880E+05   -1.7961246E+00
   1.7382813E-04   3.9074226E+05   -1.7955680E+00
   1.7463089E-04   3.8752347E+05   -1.7950109E+00
   1.7543735E-04   3.8433218E+05   -1.7944534E+00
   1.7624754E-04   3.8116816E+05   -1.7938954E+00
   1.7706147E-04   3.7803115E+05   -1.7933370E+00
   1.7787916E-04   3.7492092E+05   -1.7927781E+00
   1.7870062E-04   3.7183724E+05   -1.7922188E+00
   1.7952588E-04   3.6877988E+05   -1.7916590E+00
   1.8035495E-04   3.6574859E+05   -1.7910988E+00
   1.8118785E-04   3.6274316E+05   -1.7905382E+00
   1.8202459E-04   3.5976336E+05   -1.7899772E+00
   1.8286520E-04   3.5680895E+05   -1.7894157E+00
   1.8370969E-04   3.5387973E+05   -1.7888539E+00
   1.8455808E-04   3.5097546E+05   -1.7882916E+00
   1.8541039E-04   3.4809593E+05   -1.7877290E+00
   1.8626663E-04   3.4524091E+05   -1.7871659E+00
   1.8712683E-04   3.4241021E+05   -1.7866025E+00
   1.8799100E-04   3.3960359E+05   -1.7860387E+00
   1.8885917E-04   3.3682085E+05   -1.7854745E+00
   1.8973134E-04   3.3406179E+05   -1.7849099E+00
   1.9060754E-04   3.3132619E+05   -1.7843450E+00
   1.9148778E-04   3.2861384E+05   -1.7837797E+00
   1.9237209E-04   3.2592455E+05   -1.7832141E+00
   1.9326049E-04   3.2325811E+05   -1.7826481E+00
   1.9415299E-04   3.2061432E+05   -1.7820818E+00
   1.9504960E-04   3.1799298E+05   -1.7815151E+00
   1.9595036E-04   3.1539390E+05   -1.7809482E+00
   1.9685528E-04   3.1281688E+05   -1.7803809E+00
   1.9776438E-04   3.1026173E+05   -1.7798132E+00
   1.9867768E-04   3.0772825E+05   -1.7792453E+00
   1.9959519E-04   3.0521626E+05   -1.7786770E+00
   2.0051694E-04   3.0272556E+05   -1.7781085E+00
   2.0144295E-04   3.0025598E+05   -1.7775397E+00
   2.0237324E-04   2.9780733E+05   -1.7769705E+00
   2.0330782E-04   2.9537942E+05   -1.7764011E+00
   2.0424671E-04   2.9297207E+05   -1.7758314E+00
   2.0518995E-04   2.9058511E+05   -1.7752615E+00
   2.0613754E-04   2.8821835E+05   -1.7746912E+00
   2.0708950E-04   2.8587162E+05   -1.7741208E+00
   2.0804586E-04   2.8354474E+05   -1.7735500E+00
   2.0900664E-04   2.8123754E+05   -1.7729790E+00
   2.0997185E-04   2.7894985E+05   -1.7724078E+00
   2.1094152E-04   2.7668149E+05   -1.7718363E+00
   2.1191567E-04   2.7443231E+05   -1.7712646E+00
   2.1289432E-04   2.7220212E+05   -1.7706927E+00
   2.1387749E-04   2.6999078E+05   -1.7701206E+00
   2.1486520E-04   2.6779810E+05   -1.7695482E+00
   2.1585747E-04   2.6562393E+05   -1.7689756E+00
   2.1685432E-04   2.6346810E+05   -1.7684029E+00
   2.1785578E-04   2.6133046E+05   -1.7678299E+00
   2.1886186E-04   2.5921086E+05   -1.7672568E+00
   2.1987259E-04   2.5710912E+05   -1.7666835E+00
   2.2088798E-04   2.5502509E+05   -1.7661100E+00
   2.2190807E-04   2.5295863E+05   -1.7655363E+00
   2.2293286E-04   2.5090958E+05   -1.7649624E+00
   2.2396239E-04   2.4887778E+05   -1.7643884E+00
   2.2499667E-04   2.4686309E+05   -1.7638143E+00
   2.2603573E-04   2.4486535E+05   -1.7632400E+00
   2.2707958E-04   2.4288443E+05   -1.7626656E+00
   2.2812826E-04   2.4092016E+05   -1.7620910E+00
   2.2918178E-04   2.3897242E+05   -1.7615163E+00
   2.3024017E-04   2.3704105E+05   -1.7609415E+00
   2.3130344E-04   2.3512591E+05   -1.7603665E+00
   2.3237162E-04   2.3322686E+05   -1.7597915E+00
   2.3344474E-04   2.3134377E+05   -1.7592163E+00
   2.3452281E-04   2.2947648E+05   -1.7586411E+00
   2.3560586E-04   2.2762487E+05   -1.7580657E+00
   2.3669392E-04   2.2578880E+05   -1.7574903E+00
   2.3778699E-04   2.2396814E+05   -1.7569148E+00
   2.3888512E-04   2.2216274E+05   -1.7563392E+00
   2.3998831E-04   2.2037249E+05   -1.7557636E+00
   2.4109661E-04   2.1859723E+05   -1.7551879E+00
   2.4221001E-04   2.1683686E+05   -1.7546121E+00
   2.4332857E-04   2.1509123E+05   -1.7540363E+00
   2.4445228E-04   2.1336022E+05   -1.7534604E+00
   2.4558119E-04   2.1164370E+05   -1.7528845E+00
   2.4671531E-04   2.0994155E+05   -1.7523086E+00
   2.4785467E-04   2.0825364E+05   -1.7517327E+00
   2.4899928E-04   2.0657986E+05   -1.7511567E+00
   2.5014919E-04   2.0492006E+05   -1.7505807E+00
   2.5130440E-04   2.0327415E+05   -1.7500047E+00
   2.5246495E-04   2.0164198E+05   -1.7494287E+00
   2.5363086E-04   2.0002346E+05   -1.7488527E+00
   2.5480216E-04   1.9841845E+05   -1.7482768E+00
   2.5597886E-04   1.9682684E+05   -1.7477008E+00
   2.5716100E-04   1.9524852E+05   -1.7471249E+00
   2.5834859E-04   1.9368337E+05   -1.7465490E+00
   2.5954168E-04   1.9213127E+05   -1.7459731E+00
   2.6074027E-04   1.9059212E+05   -1.7453973E+00
   2.6194439E-04   1.8906580E+05   -1.7448215E+00
   2.6315408E-04   1.8755220E+05   -1.7442458E+00
   2.6436935E-04   1.8605121E+05   -1.7436701E+00
   2.6559024E-04   1.8456273E+05   -1.7430945E+00
   2.6681676E-04   1.8308663E+05   -1.7425190E+00
   2.6804895E-04   1.8162283E+05   -1.7419436E+00
   2.6928683E-04   1.8017120E+05   -1.7413682E+00
   2.7053042E-04   1.7873165E+05   -1.7407930E+00
   2.7177976E-04   1.7730408E+05   -1.7402178E+00
   2.7303487E-04   1.7588837E+05   -1.7396427E+00
   2.7429577E-04   1.7448443E+05   -1.7390678E+00
   2.7556250E-04   1.7309215E+05   -1.7384929E+00
   2.7683507E-04   1.7171144E+05   -1.7379182E+00
   2.7811353E-04   1.7034219E+05   -1.7373436E+00
   2.7939788E-04   1.6898430E+05   -1.7367692E+00
   2.8068817E-04   1.6763769E+05   -1.7361949E+00
   2.8198442E-04   1.6630225E+05   -1.7356207E+00
   2.8328665E-04   1.6497788E+05   -1.7350467E+00
   2.8459490E-04   1.6366449E+05   -1.7344728E+00
   2.8590919E-04   1.6236198E+05   -1.7338991E+00
   2.8722955E-04   1.6107027E+05   -1.7333256E+00
   2.8855600E-04   1.5978926E+05   -1.7327522E+00
   2.8988859E-04   1.5851885E+05   -1.7321791E+00
   2.9122732E-04   1.5725896E+05   -1.7316061E+00
   2.9257224E-04   1.5600949E+05   -1.7310333E+00
   2.9392337E-04   1.5477036E+05   -1.7304607E+00
   2.9528074E-04   1.5354148E+05   -1.7298883E+00
   2.9664438E-04   1.5232275E+05   -1.7293161E+00
   2.9801431E-04   1.5111410E+05   -1.7287442E+00
   2.9939057E-04   1.4991544E+05   -1.7281725E+00
   3.0077319E-04   1.4872667E+05   -1.7276010E+00
   3.0216219E-04   1.4754772E+05   -1.7270297E+00
   3.0355761E-04   1.4637849E+05   -1.7264587E+00
   3.0495947E-04   1.4521892E+05   -1.7258879E+00
   3.0636780E-04   1.4406891E+05   -1.7253174E+00
   3.0778264E-04   1.4292838E+05   -1.7247471E+00
   3.0920401E-04   1.4179726E+05   -1.7241771E+00
   3.1063195E-04   1.4067545E+05   -1.7236074E+00
   3.1206648E-04   1.3956289E+05   -1.7230379E+00
   3.1350764E-04   1.3845949E+05   -1.7224687E+00
   3.1495545E-04   1.3736517E+05   -1.7218999E+00
   3.1640994E-04   1.3627986E+05   -1.7213313E+00
   3.1787116E-04   1.3520348E+05   -1.7207630E+00
   3.1933912E-04   1.3413595E+05   -1.7201950E+00
   3.2081386E-04   1.3307719E+05   -1.7196273E+00
   3.2229541E-04   1.3202714E+05   -1.7190600E+00
   3.2378381E-04   1.3098572E+05   -1.7184929E+00
   3.2527908E-04   1.2995285E+05   -1.7179262E+00
   3.2678125E-04   1.2892847E+05   -1.7173599E+00
   3.2829036E-04   1.2791249E+05   -1.7167938E+00
   3.2980644E-04   1.2690485E+05   -1.7162282E+00
   3.3132952E-04   1.2590547E+05   -1.7156628E+00
   3.3285963E-04   1.2491429E+05   -1.7150979E+00
   3.3439681E-04   1.2393123E+05   -1.7145332E+00
   3.3594109E-04   1.2295623E+05   -1.7139690E+00
   3.3749250E-04   1.2198922E+05   -1.7134051E+00
   3.3905108E-04   1.2103013E+05   -1.7128416E+00
   3.4061685E-04   1.2007889E+05   -1.7122785E+00
   3.4218986E-04   1.1913544E+05   -1.7117158E+00
   3.4377013E-04   1.1819970E+05   -1.7111535E+00
   3.4535769E-04   1.1727162E+05   -1.7105916E+00
   3.4695259E-04   1.1635113E+05   -1.7100301E+00
   3.4855485E-04   1.1543816E+05   -1.7094690E+00
   3.5016452E-04   1.1453265E+05   -1.7089083E+00
   3.5178161E-04   1.1363453E+05   -1.7083480E+00
   3.5340618E-04   1.1274375E+05   -1.7077882E+00
   3.5503824E-04   1.1186024E+05   -1.7072288E+00
   3.5667785E-04   1.1098394E+05   -1.7066699E+00
   3.5832502E-04   1.1011479E+05   -1.7061114E+00
   3.5997981E-04   1.0925273E+05   -1.7055533E+00
   3.6164223E-04   1.0839769E+05   -1.7049957E+00
   3.6331233E-04   1.0754963E+05   -1.7044386E+00
   3.6499015E-04   1.0670847E+05   -1.7038819E+00
   3.6667571E-04   1.0587416E+05   -1.7033257E+00
   3.6836906E-04   1.0504664E+05   -1.7027700E+00
   3.7007022E-04   1.0422586E+05   -1.7022148E+00
   3.7177925E-04   1.0341175E+05   -1.7016600E+00
   3.7349616E-04   1.0260427E+05   -1.7011058E+00
   3.7522101E-04   1.0180335E+05   -1.7005520E+00
   3.7695382E-04   1.0100894E+05   -1.6999988E+00
   3.7869463E-04   1.0022099E+05   -1.6994460E+00
   3.8044348E-04   9.9439432E+04   -1.6988938E+00
   3.8220041E-04   9.8664223E+04   -1.6983421E+00
   3.8396545E-04   9.7895306E+04   -1.6977909E+00
   3.8573864E-04   9.7132628E+04   -1.6972403E+00
   3.8752002E-04   9.6376136E+04   -1.6966901E+00
   3.8930963E-04   9.5625778E+04   -1.6961406E+00
   3.9110750E-04   9.4881503E+04   -1.6955915E+00
   3.9291368E-04   9.4143258E+04   -1.6950430E+00
   3.9472820E-04   9.3410993E+04   -1.6944951E+00
   3.9655109E-04   9.2684658E+04   -1.6939477E+00
   3.9838241E-04   9.1964202E+04   -1.6934009E+00
   4.0022218E-04   9.1249577E+04   -1.6928547E+00
   4.0207045E-04   9.0540732E+04   -1.6923090E+00
   4.0392725E-04   8.9837620E+04   -1.6917639E+00
   4.0579263E-04   8.9140191E+04   -1.6912194E+00
   4.0766662E-04   8.8448399E+04   -1.6906755E+00
   4.0954927E-04   8.7762195E+04   -1.6901322E+00
   4.1144061E-04   8.7081533E+04   -1.6895895E+00
   4.1334068E-04   8.6406366E+04   -1.6890474E+00
   4.1524953E-04   8.5736647E+04   -1.6885059E+00
   4.1716720E-04   8.5072332E+04   -1.6879650E+00
   4.1909372E-04   8.4413374E+04   -1.6874247E+00
   4.2102914E-04   8.3759728E+04   -1.6868850E+00
   4.2297350E-04   8.3111351E+04   -1.6863460E+00
   4.2492683E-04   8.2468197E+04   -1.6858076E+00
   4.2688919E-04   8.1830223E+04   -1.6852698E+00
   4.2886061E-04   8.1197386E+04   -1.6847327E+00
   4.3084113E-04   8.0569642E+04   -1.6841962E+00
   4.3283080E-04   7.9946949E+04   -1.6836604E+00
   4.3482966E-04   7.9329264E+04   -1.6831252E+00
   4.3683775E-04   7.8716545E+04   -1.6825907E+00
   4.3885511E-04   7.8108751E+04   -1.6820568E+00
   4.4088179E-04   7.7505841E+04   -1.6815237E+00
   4.4291783E-04   7.6907773E+04   -1.6809911E+00
   4.4496327E-04   7.6314507E+04   -1.6804593E+00
   4.4701816E-04   7.5726003E+04   -1.6799281E+00
   4.4908253E-04   7.5142221E+04   -1.6793977E+00
   4.5115644E-04   7.4563122E+04   -1.6788679E+00
   4.5323993E-04   7.3988666E+04   -1.6783388E+00
   4.5533304E-04   7.3418815E+04   -1.6778104E+00
   4.5743582E-04   7.2853530E+04   -1.6772827E+00
   4.5954830E-04   7.2292773E+04   -1.6767557E+00
   4.6167054E-04   7.1736506E+04   -1.6762294E+00
   4.6380259E-04   7.1184692E+04   -1.6757039E+00
   4.6594448E-04   7.0637293E+04   -1.6751790E+00
   4.6809626E-04   7.0094274E+04   -1.6746549E+00
   4.7025797E-04   6.9555596E+04   -1.6741315E+00
   4.7242967E-04   6.9021225E+04   -1.6736089E+00
   4.7461140E-04   6.8491124E+04   -1.6730869E+00
   4.7680321E-04   6.7965258E+04   -1.6725657E+00
   4.7900514E-04   6.7443590E+04   -1.6720453E+00
   4.8121723E-04   6.6926088E+04   -1.6715256E+00
   4.8343954E-04   6.6412715E+04   -1.6710066E+00
   4.8567212E-04   6.5903438E+04   -1.6704884E+00
   4.8791500E-04   6.5398222E+04   -1.6699710E+00
   4.9016825E-04   6.4897033E+04   -1.6694543E+00
   4.9243189E-04   6.4399839E+04   -1.6689384E+00
   4.9470600E-04   6.3906606E+04   -1.6684233E+00
   4.9699060E-04   6.3417300E+04   -1.6679089E+00
   4.9928575E-04   6.2931890E+04   -1.6673953E+00
   5.0159151E-04   6.2450344E+04   -1.6668825E+00
   5.0390791E-04   6.1972628E+04   -1.6663705E+00
   5.0623501E-04   6.1498711E+04   -1.6658592E+00
   5.0857286E-04   6.1028562E+04   -1.6653488E+00
   5.1092150E-04   6.0562150E+04   -1.6648391E+00
   5.1328099E-04   6.0099444E+04   -1.6643302E+00
   5.1565137E-04   5.9640412E+04   -1.6638222E+00
   5.1803270E-04   5.9185025E+04   -1.6633149E+00
   5.2042503E-04   5.8733252E+04   -1.6628085E+00
   5.2282841E-04   5.8285063E+04   -1.6623029E+00
   5.2524289E-04   5.7840429E+04   -1.6617981E+00
   5.2766851E-04   5.7399321E+04   -1.6612941E+00
   5.3010534E-04   5.6961709E+04   -1.6607909E+00
   5.3255342E-04   5.6527564E+04   -1.6602885E+00
   5.3501281E-04   5.6096857E+04   -1.6597870E+00
   5.3748356E-04   5.5669561E+04   -1.6592863E+00
   5.3996571E-04   5.5245647E+04   -1.6587865E+00
   5.4245933E-04   5.4825087E+04   -1.6582875E+00
   5.4496446E-04   5.4407854E+04   -1.6577893E+00
   5.4748117E-04   5.3993920E+04   -1.6572920E+00
   5.5000949E-04   5.3583257E+04   -1.6567955E+00
   5.5254949E-04   5.3175840E+04   -1.6562999E+00
   5.5510123E-04   5.2771641E+04   -1.6558051E+00
   5.5766474E-04   5.2370633E+04   -1.6553112E+00
   5.6024010E-04   5.1972791E+04   -1.6548181E+00
   5.6282734E-04   5.1578088E+04   -1.6543259E+00
   5.6542654E-04   5.1186499E+04   -1.6538346E+00
   5.6803774E-04   5.0797997E+04   -1.6533442E+00
   5.7066099E-04   5.0412559E+04   -1.6528546E+00
   5.7329637E-04   5.0030157E+04   -1.6523659E+00
   5.7594391E-04   4.9650768E+04   -1.6518780E+00
   5.7860368E-04   4.9274366E+04   -1.6513911E+00
   5.8127573E-04   4.8900928E+04   -1.6509050E+00
   5.8396012E-04   4.8530428E+04   -1.6504198E+00
   5.8665691E-04   4.8162843E+04   -1.6499355E+00
   5.8936616E-04   4.7798149E+04   -1.6494521E+00
   5.9208791E-04   4.7436322E+04   -1.6489696E+00
   5.9482223E-04   4.7077338E+04   -1.6484880E+00
   5.9756919E-04   4.6721175E+04   -1.6480073E+00
   6.0032882E-04   4.6367809E+04   -1.6475275E+00
   6.0310120E-04   4.6017217E+04   -1.6470486E+00
   6.0588639E-04   4.5669377E+04   -1.6465706E+00
   6.0868443E-04   4.5324265E+04   -1.6460935E+00
   6.1149540E-04   4.4981860E+04   -1.6456173E+00
   6.1431935E-04   4.4642140E+04   -1.6451420E+00
   6.1715634E-04   4.4305083E+04   -1.6446677E+00
   6.2000644E-04   4.3970666E+04   -1.6441943E+00
   6.2286969E-04   4.3638869E+04   -1.6437217E+00
