#        a       HoverH0(a)       dlogHdloga_of_a(a)
   1.0000000E-04   1.1228768E+06   -1.8433532E+00
   1.0046181E-04   1.1133817E+06   -1.8428572E+00
   1.0092575E-04   1.1039693E+06   -1.8423602E+00
   1.0139184E-04   1.0946391E+06   -1.8418625E+00
   1.0186008E-04   1.0853902E+06   -1.8413639E+00
   1.0233048E-04   1.0762219E+06   -1.8408644E+00
   1.0280305E-04   1.0671335E+06   -1.8403641E+00
   1.0327781E-04   1.0581243E+06   -1.8398630E+00
   1.0375475E-04   1.0491935E+06   -1.8393611E+00
   1.0423390E-04   1.0403406E+06   -1.8388583E+00
   1.0471527E-04   1.0315647E+06   -1.8383547E+00
   1.0519885E-04   1.0228653E+06   -1.8378503E+00
   1.0568467E-04   1.0142416E+06   -1.8373450E+00
   1.0617274E-04   1.0056929E+06   -1.8368390E+00
   1.0666305E-04   9.9721862E+05   -1.8363321E+00
   1.0715563E-04   9.8881806E+05   -1.8358245E+00
   1.0765049E-04   9.8049055E+05   -1.8353160E+00
   1.0814763E-04   9.7223545E+05   -1.8348067E+00
   1.0864707E-04   9.6405212E+05   -1.8342966E+00
   1.0914881E-04   9.5593992E+05   -1.8337858E+00
   1.0965287E-04   9.4789821E+05   -1.8332741E+00
   1.1015926E-04   9.3992637E+05   -1.8327617E+00
   1.1066799E-04   9.3202377E+05   -1.8322485E+00
   1.1117906E-04   9.2418981E+05   -1.8317345E+00
   1.1169250E-04   9.1642386E+05   -1.8312197E+00
   1.1220831E-04   9.0872532E+05   -1.8307041E+00
   1.1272650E-04   9.0109360E+05   -1.8301878E+00
   1.1324708E-04   8.9352810E+05   -1.8296707E+00
   1.1377007E-04   8.8602824E+05   -1.8291529E+00
   1.1429547E-04   8.7859342E+05   -1.8286343E+00
   1.1482330E-04   8.7122307E+05   -1.8281150E+00
   1.1535356E-04   8.6391662E+05   -1.8275949E+00
   1.1588628E-04   8.5667350E+05   -1.8270740E+00
   1.1642145E-04   8.4949315E+05   -1.8265525E+00
   1.1695910E-04   8.4237500E+05   -1.8260301E+00
   1.1749923E-04   8.3531851E+05   -1.8255071E+00
   1.1804185E-04   8.2832313E+05   -1.8249833E+00
   1.1858698E-04   8.2138831E+05   -1.8244588E+00
   1.1913463E-04   8.1451353E+05   -1.8239336E+00
   1.1968481E-04   8.0769824E+05   -1.8234077E+00
   1.2023752E-04   8.0094192E+05   -1.8228810E+00
   1.2079279E-04   7.9424404E+05   -1.8223536E+00
   1.2135063E-04   7.8760409E+05   -1.8218256E+00
   1.2191104E-04   7.8102155E+05   -1.8212968E+00
   1.2247403E-04   7.7449592E+05   -1.8207674E+00
   1.2303963E-04   7.6802668E+05   -1.8202372E+00
   1.2360784E-04   7.6161334E+05   -1.8197064E+00
   1.2417868E-04   7.5525540E+05   -1.8191749E+00
   1.2475215E-04   7.4895238E+05   -1.8186427E+00
   1.2532826E-04   7.4270377E+05   -1.8181098E+00
   1.2590704E-04   7.3650911E+05   -1.8175763E+00
   1.2648850E-04   7.3036792E+05   -1.8170421E+00
   1.2707263E-04   7.2427971E+05   -1.8165072E+00
   1.2765947E-04   7.1824403E+05   -1.8159717E+00
   1.2824901E-04   7.1226040E+05   -1.8154355E+00
   1.2884128E-04   7.0632837E+05   -1.8148987E+00
   1.2943628E-04   7.0044748E+05   -1.8143612E+00
   1.3003403E-04   6.9461727E+05   -1.8138231E+00
   1.3063454E-04   6.8883730E+05   -1.8132844E+00
   1.3123783E-04   6.8310712E+05   -1.8127450E+00
   1.3184390E-04   6.7742629E+05   -1.8122050E+00
   1.3245277E-04   6.7179438E+05   -1.8116644E+00
   1.3306445E-04   6.6621095E+05   -1.8111232E+00
   1.3367895E-04   6.6067557E+05   -1.8105814E+00
   1.3429630E-04   6.5518782E+05   -1.8100389E+00
   1.3491649E-04   6.4974728E+05   -1.8094959E+00
   1.3553955E-04   6.4435353E+05   -1.8089523E+00
   1.3616548E-04   6.3900616E+05   -1.8084081E+00
   1.3679431E-04   6.3370475E+05   -1.8078632E+00
   1.3742604E-04   6.2844891E+05   -1.8073179E+00
   1.3806069E-04   6.2323822E+05   -1.8067719E+00
   1.3869827E-04   6.1807229E+05   -1.8062253E+00
   1.3933879E-04   6.1295072E+05   -1.8056782E+00
   1.3998227E-04   6.0787313E+05   -1.8051306E+00
   1.4062872E-04   6.0283912E+05   -1.8045823E+00
   1.4127816E-04   5.9784831E+05   -1.8040336E+00
   1.4193060E-04   5.9290032E+05   -1.8034842E+00
   1.4258605E-04   5.8799477E+05   -1.8029344E+00
   1.4324453E-04   5.8313128E+05   -1.8023840E+00
   1.4390605E-04   5.7830949E+05   -1.8018330E+00
   1.4457062E-04   5.7352902E+05   -1.8012816E+00
   1.4523826E-04   5.6878952E+05   -1.8007296E+00
   1.4590899E-04   5.6409062E+05   -1.8001771E+00
   1.4658281E-04   5.5943197E+05   -1.7996241E+00
   1.4725974E-04   5.5481320E+05   -1.7990706E+00
   1.4793981E-04   5.5023397E+05   -1.7985165E+00
   1.4862301E-04   5.4569393E+05   -1.7979620E+00
   1.4930936E-04   5.4119273E+05   -1.7974070E+00
   1.4999889E-04   5.3673003E+05   -1.7968515E+00
   1.5069160E-04   5.3230550E+05   -1.7962956E+00
   1.5138751E-04   5.2791879E+05   -1.7957391E+00
   1.5208663E-04   5.2356957E+05   -1.7951822E+00
   1.5278899E-04   5.1925752E+05   -1.7946248E+00
   1.5349458E-04   5.1498231E+05   -1.7940670E+00
   1.5420343E-04   5.1074361E+05   -1.7935087E+00
   1.5491556E-04   5.0654110E+05   -1.7929500E+00
   1.5563098E-04   5.0237446E+05   -1.7923908E+00
   1.5634970E-04   4.9824338E+05   -1.7918312E+00
   1.5707174E-04   4.9414755E+05   -1.7912711E+00
   1.5779711E-04   4.9008665E+05   -1.7907106E+00
   1.5852584E-04   4.8606038E+05   -1.7901497E+00
   1.5925792E-04   4.8206843E+05   -1.7895884E+00
   1.5999339E-04   4.7811050E+05   -1.7890267E+00
   1.6073226E-04   4.7418630E+05   -1.7884646E+00
   1.6147454E-04   4.7029553E+05   -1.7879020E+00
   1.6222024E-04   4.6643788E+05   -1.7873391E+00
   1.6296939E-04   4.6261309E+05   -1.7867758E+00
   1.6372200E-04   4.5882084E+05   -1.7862121E+00
   1.6447809E-04   4.5506087E+05   -1.7856481E+00
   1.6523767E-04   4.5133288E+05   -1.7850836E+00
   1.6600075E-04   4.4763660E+05   -1.7845188E+00
   1.6676736E-04   4.4397174E+05   -1.7839537E+00
   1.6753751E-04   4.4033804E+05   -1.7833882E+00
   1.6831122E-04   4.3673521E+05   -1.7828223E+00
   1.6908849E-04   4.3316299E+05   -1.7822561E+00
   1.6986936E-04   4.2962112E+05   -1.7816895E+00
   1.7065384E-04   4.2610931E+05   -1.7811227E+00
   1.7144193E-04   4.2262732E+05   -1.7805555E+00
   1.7223367E-04   4.1917487E+05   -1.7799879E+00
   1.7302906E-04   4.1575171E+05   -1.7794201E+00
   1.7382813E-04   4.1235759E+05   -1.7788520E+00
   1.7463089E-04   4.0899225E+05   -1.7782835E+00
   1.7543735E-04   4.0565544E+05   -1.7777148E+00
   1.7624754E-04   4.0234691E+05   -1.7771458E+00
   1.7706147E-04   3.9906640E+05   -1.7765764E+00
   1.7787916E-04   3.9581369E+05   -1.7760068E+00
   1.7870062E-04   3.9258851E+05   -1.7754370E+00
   1.7952588E-04   3.8939064E+05   -1.7748668E+00
   1.8035495E-04   3.8621983E+05   -1.7742964E+00
   1.8118785E-04   3.8307585E+05   -1.7737258E+00
   1.8202459E-04   3.7995846E+05   -1.7731549E+00
   1.8286520E-04   3.7686743E+05   -1.7725837E+00
   1.8370969E-04   3.7380253E+05   -1.7720124E+00
   1.8455808E-04   3.7076353E+05   -1.7714407E+00
   1.8541039E-04   3.6775021E+05   -1.7708689E+00
   1.8626663E-04   3.6476234E+05   -1.7702968E+00
   1.8712683E-04   3.6179970E+05   -1.7697246E+00
   1.8799100E-04   3.5886206E+05   -1.7691521E+00
   1.8885917E-04   3.5594922E+05   -1.7685794E+00
   1.8973134E-04   3.5306096E+05   -1.7680065E+00
   1.9060754E-04   3.5019705E+05   -1.7674334E+00
   1.9148778E-04   3.4735730E+05   -1.7668602E+00
   1.9237209E-04   3.4454148E+05   -1.7662867E+00
   1.9326049E-04   3.4174939E+05   -1.7657131E+00
   1.9415299E-04   3.3898082E+05   -1.7651393E+00
   1.9504960E-04   3.3623557E+05   -1.7645654E+00
   1.9595036E-04   3.3351343E+05   -1.7639913E+00
   1.9685528E-04   3.3081421E+05   -1.7634171E+00
   1.9776438E-04   3.2813770E+05   -1.7628427E+00
   1.9867768E-04   3.2548371E+05   -1.7622682E+00
   1.9959519E-04   3.2285204E+05   -1.7616935E+00
   2.0051694E-04   3.2024250E+05   -1.7611187E+00
   2.0144295E-04   3.1765489E+05   -1.7605439E+00
   2.0237324E-04   3.1508902E+05   -1.7599688E+00
   2.0330782E-04   3.1254470E+05   -1.7593937E+00
   2.0424671E-04   3.1002175E+05   -1.7588185E+00
   2.0518995E-04   3.0751999E+05   -1.7582432E+00
   2.0613754E-04   3.0503922E+05   -1.7576678E+00
   2.0708950E-04   3.0257926E+05   -1.7570924E+00
   2.0804586E-04   3.0013994E+05   -1.7565168E+00
   2.0900664E-04   2.9772107E+05   -1.7559412E+00
   2.0997185E-04   2.9532249E+05   -1.7553655E+00
   2.1094152E-04   2.9294400E+05   -1.7547898E+00
   2.1191567E-04   2.9058544E+05   -1.7542140E+00
   2.1289432E-04   2.8824663E+05   -1.7536382E+00
   2.1387749E-04   2.8592741E+05   -1.7530623E+00
   2.1486520E-04   2.8362759E+05   -1.7524864E+00
   2.1585747E-04   2.8134703E+05   -1.7519105E+00
   2.1685432E-04   2.7908554E+05   -1.7513345E+00
   2.1785578E-04   2.7684296E+05   -1.7507585E+00
   2.1886186E-04   2.7461914E+05   -1.7501826E+00
   2.1987259E-04   2.7241389E+05   -1.7496066E+00
   2.2088798E-04   2.7022708E+05   -1.7490306E+00
   2.2190807E-04   2.6805853E+05   -1.7484546E+00
   2.2293286E-04   2.6590809E+05   -1.7478787E+00
   2.2396239E-04   2.6377560E+05   -1.7473028E+00
   2.2499667E-04   2.6166091E+05   -1.7467269E+00
   2.2603573E-04   2.5956386E+05   -1.7461510E+00
   2.2707958E-04   2.5748430E+05   -1.7455752E+00
   2.2812826E-04   2.5542207E+05   -1.7449994E+00
   2.2918178E-04   2.5337704E+05   -1.7444237E+00
   2.3024017E-04   2.5134905E+05   -1.7438480E+00
   2.3130344E-04   2.4933794E+05   -1.7432724E+00
   2.3237162E-04   2.4734359E+05   -1.7426969E+00
   2.3344474E-04   2.4536584E+05   -1.7421215E+00
   2.3452281E-04   2.4340455E+05   -1.7415461E+00
   2.3560586E-04   2.4145957E+05   -1.7409708E+00
   2.3669392E-04   2.3953078E+05   -1.7403956E+00
   2.3778699E-04   2.3761802E+05   -1.7398206E+00
   2.3888512E-04   2.3572116E+05   -1.7392456E+00
   2.3998831E-04   2.3384006E+05   -1.7386707E+00
   2.4109661E-04   2.3197458E+05   -1.7380960E+00
   2.4221001E-04   2.3012460E+05   -1.7375214E+00
   2.4332857E-04   2.2828997E+05   -1.7369469E+00
   2.4445228E-04   2.2647057E+05   -1.7363725E+00
   2.4558119E-04   2.2466627E+05   -1.7357983E+00
   2.4671531E-04   2.2287693E+05   -1.7352243E+00
   2.4785467E-04   2.2110242E+05   -1.7346504E+00
   2.4899928E-04   2.1934263E+05   -1.7340767E+00
   2.5014919E-04   2.1759741E+05   -1.7335031E+00
   2.5130440E-04   2.1586665E+05   -1.7329297E+00
   2.5246495E-04   2.1415023E+05   -1.7323565E+00
   2.5363086E-04   2.1244801E+05   -1.7317835E+00
   2.5480216E-04   2.1075988E+05   -1.7312106E+00
   2.5597886E-04   2.0908571E+05   -1.7306380E+00
   2.5716100E-04   2.0742540E+05   -1.7300656E+00
   2.5834859E-04   2.0577880E+05   -1.7294933E+00
   2.5954168E-04   2.0414582E+05   -1.7289213E+00
   2.6074027E-04   2.0252633E+05   -1.7283496E+00
   2.6194439E-04   2.0092021E+05   -1.7277780E+00
   2.6315408E-04   1.9932736E+05   -1.7272067E+00
   2.6436935E-04   1.9774766E+05   -1.7266356E+00
   2.6559024E-04   1.9618099E+05   -1.7260648E+00
   2.6681676E-04   1.9462725E+05   -1.7254942E+00
   2.6804895E-04   1.9308632E+05   -1.7249238E+00
   2.6928683E-04   1.9155809E+05   -1.7243538E+00
   2.7053042E-04   1.9004245E+05   -1.7237840E+00
   2.7177976E-04   1.8853931E+05   -1.7232145E+00
   2.7303487E-04   1.8704854E+05   -1.7226452E+00
   2.7429577E-04   1.8557005E+05   -1.7220763E+00
   2.7556250E-04   1.8410372E+05   -1.7215076E+00
   2.7683507E-04   1.8264946E+05   -1.7209392E+00
   2.7811353E-04   1.8120717E+05   -1.7203712E+00
   2.7939788E-04   1.7977673E+05   -1.7198034E+00
   2.8068817E-04   1.7835805E+05   -1.7192360E+00
   2.8198442E-04   1.7695103E+05   -1.7186689E+00
   2.8328665E-04   1.7555557E+05   -1.7181021E+00
   2.8459490E-04   1.7417156E+05   -1.7175356E+00
   2.8590919E-04   1.7279892E+05   -1.7169695E+00
   2.8722955E-04   1.7143754E+05   -1.7164038E+00
   2.8855600E-04   1.7008733E+05   -1.7158383E+00
   2.8988859E-04   1.6874820E+05   -1.7152733E+00
   2.9122732E-04   1.6742004E+05   -1.7147086E+00
   2.9257224E-04   1.6610277E+05   -1.7141442E+00
   2.9392337E-04   1.6479629E+05   -1.7135803E+00
   2.9528074E-04   1.6350052E+05   -1.7130167E+00
   2.9664438E-04   1.6221535E+05   -1.7124535E+00
   2.9801431E-04   1.6094070E+05   -1.7118907E+00
   2.9939057E-04   1.5967648E+05   -1.7113282E+00
   3.0077319E-04   1.5842261E+05   -1.7107662E+00
   3.0216219E-04   1.5717898E+05   -1.7102046E+00
   3.0355761E-04   1.5594552E+05   -1.7096434E+00
   3.0495947E-04   1.5472214E+05   -1.7090826E+00
   3.0636780E-04   1.5350876E+05   -1.7085222E+00
   3.0778264E-04   1.5230528E+05   -1.7079623E+00
   3.0920401E-04   1.5111163E+05   -1.7074028E+00
   3.1063195E-04   1.4992772E+05   -1.7068437E+00
   3.1206648E-04   1.4875347E+05   -1.7062851E+00
   3.1350764E-04   1.4758879E+05   -1.7057270E+00
   3.1495545E-04   1.4643361E+05   -1.7051692E+00
   3.1640994E-04   1.4528785E+05   -1.7046120E+00
   3.1787116E-04   1.4415142E+05   -1.7040552E+00
   3.1933912E-04   1.4302424E+05   -1.7034989E+00
   3.2081386E-04   1.4190625E+05   -1.7029430E+00
   3.2229541E-04   1.4079735E+05   -1.7023877E+00
   3.2378381E-04   1.3969748E+05   -1.7018328E+00
   3.2527908E-04   1.3860655E+05   -1.7012784E+00
   3.2678125E-04   1.3752449E+05   -1.7007245E+00
   3.2829036E-04   1.3645123E+05   -1.7001711E+00
   3.2980644E-04   1.3538669E+05   -1.6996183E+00
   3.3132952E-04   1.3433079E+05   -1.6990659E+00
   3.3285963E-04   1.3328347E+05   -1.6985140E+00
   3.3439681E-04   1.3224465E+05   -1.6979627E+00
   3.3594109E-04   1.3121426E+05   -1.6974119E+00
   3.3749250E-04   1.3019223E+05   -1.6968617E+00
   3.3905108E-04   1.2917849E+05   -1.6963119E+00
   3.4061685E-04   1.2817296E+05   -1.6957628E+00
   3.4218986E-04   1.2717559E+05   -1.6952141E+00
   3.4377013E-04   1.2618629E+05   -1.6946660E+00
   3.4535769E-04   1.2520501E+05   -1.6941185E+00
   3.4695259E-04   1.2423167E+05   -1.6935716E+00
   3.4855485E-04   1.2326621E+05   -1.6930252E+00
   3.5016452E-04   1.2230855E+05   -1.6924794E+00
   3.5178161E-04   1.2135865E+05   -1.6919341E+00
   3.5340618E-04   1.2041642E+05   -1.6913895E+00
   3.5503824E-04   1.1948181E+05   -1.6908454E+00
   3.5667785E-04   1.1855474E+05   -1.6903019E+00
   3.5832502E-04   1.1763517E+05   -1.6897590E+00
   3.5997981E-04   1.1672302E+05   -1.6892167E+00
   3.6164223E-04   1.1581823E+05   -1.6886751E+00
   3.6331233E-04   1.1492075E+05   -1.6881340E+00
   3.6499015E-04   1.1403050E+05   -1.6875936E+00
   3.6667571E-04   1.1314743E+05   -1.6870537E+00
   3.6836906E-04   1.1227148E+05   -1.6865145E+00
   3.7007022E-04   1.1140258E+05   -1.6859760E+00
   3.7177925E-04   1.1054069E+05   -1.6854380E+00
   3.7349616E-04   1.0968573E+05   -1.6849007E+00
   3.7522101E-04   1.0883766E+05   -1.6843641E+00
   3.7695382E-04   1.0799641E+05   -1.6838281E+00
   3.7869463E-04   1.0716192E+05   -1.6832927E+00
   3.8044348E-04   1.0633415E+05   -1.6827580E+00
   3.8220041E-04   1.0551303E+05   -1.6822240E+00
   3.8396545E-04   1.0469851E+05   -1.6816906E+00
   3.8573864E-04   1.0389053E+05   -1.6811580E+00
   3.8752002E-04   1.0308904E+05   -1.6806259E+00
   3.8930963E-04   1.0229399E+05   -1.6800946E+00
   3.9110750E-04   1.0150531E+05   -1.6795639E+00
   3.9291368E-04   1.0072296E+05   -1.6790340E+00
   3.9472820E-04   9.9946887E+04   -1.6785047E+00
   3.9655109E-04   9.9177033E+04   -1.6779761E+00
   3.9838241E-04   9.8413348E+04   -1.6774482E+00
   4.0022218E-04   9.7655782E+04   -1.6769210E+00
   4.0207045E-04   9.6904282E+04   -1.6763946E+00
   4.0392725E-04   9.6158798E+04   -1.6758688E+00
   4.0579263E-04   9.5419281E+04   -1.6753438E+00
   4.0766662E-04   9.4685680E+04   -1.6748195E+00
   4.0954927E-04   9.3957945E+04   -1.6742959E+00
   4.1144061E-04   9.3236029E+04   -1.6737730E+00
   4.1334068E-04   9.2519882E+04   -1.6732509E+00
   4.1524953E-04   9.1809456E+04   -1.6727295E+00
   4.1716720E-04   9.1104704E+04   -1.6722088E+00
   4.1909372E-04   9.0405579E+04   -1.6716889E+00
   4.2102914E-04   8.9712034E+04   -1.6711698E+00
   4.2297350E-04   8.9024021E+04   -1.6706514E+00
   4.2492683E-04   8.8341496E+04   -1.6701337E+00
   4.2688919E-04   8.7664413E+04   -1.6696169E+00
   4.2886061E-04   8.6992727E+04   -1.6691007E+00
   4.3084113E-04   8.6326392E+04   -1.6685854E+00
   4.3283080E-04   8.5665364E+04   -1.6680708E+00
   4.3482966E-04   8.5009599E+04   -1.6675570E+00
   4.3683775E-04   8.4359054E+04   -1.6670440E+00
   4.3885511E-04   8.3713684E+04   -1.6665317E+00
   4.4088179E-04   8.3073448E+04   -1.6660203E+00
   4.4291783E-04   8.2438302E+04   -1.6655096E+00
   4.4496327E-04   8.1808205E+04   -1.6649997E+00
   4.4701816E-04   8.1183114E+04   -1.6644907E+00
   4.4908253E-04   8.0562989E+04   -1.6639824E+00
   4.5115644E-04   7.9947787E+04   -1.6634749E+00
   4.5323993E-04   7.9337469E+04   -1.6629683E+00
   4.5533304E-04   7.8731993E+04   -1.6624624E+00
   4.5743582E-04   7.8131321E+04   -1.6619574E+00
   4.5954830E-04   7.7535411E+04   -1.6614532E+00
   4.6167054E-04   7.6944225E+04   -1.6609498E+00
   4.6380259E-04   7.6357723E+04   -1.6604472E+00
   4.6594448E-04   7.5775867E+04   -1.6599455E+00
   4.6809626E-04   7.5198619E+04   -1.6594446E+00
   4.7025797E-04   7.4625940E+04   -1.6589445E+00
   4.7242967E-04   7.4057793E+04   -1.6584452E+00
   4.7461140E-04   7.3494141E+04   -1.6579468E+00
   4.7680321E-04   7.2934945E+04   -1.6574493E+00
   4.7900514E-04   7.2380170E+04   -1.6569526E+00
   4.8121723E-04   7.1829780E+04   -1.6564567E+00
   4.8343954E-04   7.1283737E+04   -1.6559617E+00
   4.8567212E-04   7.0742007E+04   -1.6554676E+00
   4.8791500E-04   7.0204553E+04   -1.6549743E+00
   4.9016825E-04   6.9671340E+04   -1.6544819E+00
   4.9243189E-04   6.9142334E+04   -1.6539903E+00
   4.9470600E-04   6.8617501E+04   -1.6534996E+00
   4.9699060E-04   6.8096804E+04   -1.6530098E+00
   4.9928575E-04   6.7580212E+04   -1.6525209E+00
   5.0159151E-04   6.7067689E+04   -1.6520328E+00
   5.0390791E-04   6.6559202E+04   -1.6515456E+00
   5.0623501E-04   6.6054719E+04   -1.6510593E+00
   5.0857286E-04   6.5554207E+04   -1.6505739E+00
   5.1092150E-04   6.5057632E+04   -1.6500893E+00
   5.1328099E-04   6.4564963E+04   -1.6496057E+00
   5.1565137E-04   6.4076168E+04   -1.6491229E+00
   5.1803270E-04   6.3591214E+04   -1.6486411E+00
   5.2042503E-04   6.3110071E+04   -1.6481601E+00
   5.2282841E-04   6.2632706E+04   -1.6476801E+00
   5.2524289E-04   6.2159090E+04   -1.6472009E+00
   5.2766851E-04   6.1689191E+04   -1.6467227E+00
   5.3010534E-04   6.1222980E+04   -1.6462453E+00
   5.3255342E-04   6.0760425E+04   -1.6457689E+00
   5.3501281E-04   6.0301497E+04   -1.6452934E+00
   5.3748356E-04   5.9846166E+04   -1.6448188E+00
   5.3996571E-04   5.9394403E+04   -1.6443451E+00
   5.4245933E-04   5.8946179E+04   -1.6438724E+00
   5.4496446E-04   5.8501465E+04   -1.6434005E+00
   5.4748117E-04   5.8060233E+04   -1.6429296E+00
   5.5000949E-04   5.7622453E+04   -1.6424596E+00
   5.5254949E-04   5.7188097E+04   -1.6419906E+00
   5.5510123E-04   5.6757138E+04   -1.6415225E+00
   5.5766474E-04   5.6329549E+04   -1.6410553E+00
   5.6024010E-04   5.5905300E+04   -1.6405890E+00
   5.6282734E-04   5.5484367E+04   -1.6401237E+00
   5.6542654E-04   5.5066720E+04   -1.6396594E+00
   5.6803774E-04   5.4652334E+04   -1.6391959E+00
   5.7066099E-04   5.4241182E+04   -1.6387334E+00
   5.7329637E-04   5.3833237E+04   -1.6382719E+00
   5.7594391E-04   5.3428475E+04   -1.6378113E+00
   5.7860368E-04   5.3026868E+04   -1.6373517E+00
   5.8127573E-04   5.2628391E+04   -1.6368930E+00
   5.8396012E-04   5.2233019E+04   -1.6364353E+00
   5.8665691E-04   5.1840726E+04   -1.6359785E+00
   5.8936616E-04   5.1451488E+04   -1.6355227E+00
   5.9208791E-04   5.1065280E+04   -1.6350678E+00
   5.9482223E-04   5.0682076E+04   -1.6346139E+00
   5.9756919E-04   5.0301853E+04   -1.6341610E+00
   6.0032882E-04   4.9924587E+04   -1.6337090E+00
   6.0310120E-04   4.9550254E+04   -1.6332580E+00
   6.0588639E-04   4.9178829E+04   -1.6328080E+00
   6.0868443E-04   4.8810289E+04   -1.6323589E+00
   6.1149540E-04   4.8444612E+04   -1.6319108E+00
   6.1431935E-04   4.8081773E+04   -1.6314637E+00
   6.1715634E-04   4.7721750E+04   -1.6310175E+00
   6.2000644E-04   4.7364520E+04   -1.6305724E+00
   6.2286969E-04   4.7010060E+04   -1.6301282E+00
