#        a       HoverH0(a)       dlogHdloga_of_a(a)
   1.0000000E-04   1.1073219E+06   -1.8445360E+00
   1.0046181E-04   1.0979523E+06   -1.8440420E+00
   1.0092575E-04   1.0886644E+06   -1.8435471E+00
   1.0139184E-04   1.0794576E+06   -1.8430514E+00
   1.0186008E-04   1.0703311E+06   -1.8425548E+00
   1.0233048E-04   1.0612842E+06   -1.8420574E+00
   1.0280305E-04   1.0523161E+06   -1.8415591E+00
   1.0327781E-04   1.0434263E+06   -1.8410600E+00
   1.0375475E-04   1.0346139E+06   -1.8405600E+00
   1.0423390E-04   1.0258783E+06   -1.8400592E+00
   1.0471527E-04   1.0172188E+06   -1.8395576E+00
   1.0519885E-04   1.0086348E+06   -1.8390552E+00
   1.0568467E-04   1.0001255E+06   -1.8385519E+00
   1.0617274E-04   9.9169025E+05   -1.8380478E+00
   1.0666305E-04   9.8332847E+05   -1.8375429E+00
   1.0715563E-04   9.7503947E+05   -1.8370371E+00
   1.0765049E-04   9.6682259E+05   -1.8365306E+00
   1.0814763E-04   9.5867720E+05   -1.8360232E+00
   1.0864707E-04   9.5060266E+05   -1.8355151E+00
   1.0914881E-04   9.4259833E+05   -1.8350061E+00
   1.0965287E-04   9.3466360E+05   -1.8344963E+00
   1.1015926E-04   9.2679784E+05   -1.8339858E+00
   1.1066799E-04   9.1900044E+05   -1.8334744E+00
   1.1117906E-04   9.1127078E+05   -1.8329623E+00
   1.1169250E-04   9.0360828E+05   -1.8324494E+00
   1.1220831E-04   8.9601232E+05   -1.8319357E+00
   1.1272650E-04   8.8848232E+05   -1.8314212E+00
   1.1324708E-04   8.8101770E+05   -1.8309060E+00
   1.1377007E-04   8.7361786E+05   -1.8303900E+00
   1.1429547E-04   8.6628224E+05   -1.8298732E+00
   1.1482330E-04   8.5901026E+05   -1.8293556E+00
   1.1535356E-04   8.5180136E+05   -1.8288374E+00
   1.1588628E-04   8.4465497E+05   -1.8283183E+00
   1.1642145E-04   8.3757055E+05   -1.8277985E+00
   1.1695910E-04   8.3054754E+05   -1.8272779E+00
   1.1749923E-04   8.2358538E+05   -1.8267567E+00
   1.1804185E-04   8.1668356E+05   -1.8262346E+00
   1.1858698E-04   8.0984152E+05   -1.8257119E+00
   1.1913463E-04   8.0305874E+05   -1.8251884E+00
   1.1968481E-04   7.9633468E+05   -1.8246642E+00
   1.2023752E-04   7.8966884E+05   -1.8241392E+00
   1.2079279E-04   7.8306069E+05   -1.8236136E+00
   1.2135063E-04   7.7650973E+05   -1.8230872E+00
   1.2191104E-04   7.7001543E+05   -1.8225601E+00
   1.2247403E-04   7.6357731E+05   -1.8220323E+00
   1.2303963E-04   7.5719486E+05   -1.8215038E+00
   1.2360784E-04   7.5086758E+05   -1.8209746E+00
   1.2417868E-04   7.4459500E+05   -1.8204448E+00
   1.2475215E-04   7.3837662E+05   -1.8199142E+00
   1.2532826E-04   7.3221196E+05   -1.8193829E+00
   1.2590704E-04   7.2610054E+05   -1.8188510E+00
   1.2648850E-04   7.2004191E+05   -1.8183184E+00
   1.2707263E-04   7.1403557E+05   -1.8177851E+00
   1.2765947E-04   7.0808109E+05   -1.8172512E+00
   1.2824901E-04   7.0217798E+05   -1.8167166E+00
   1.2884128E-04   6.9632581E+05   -1.8161813E+00
   1.2943628E-04   6.9052412E+05   -1.8156454E+00
   1.3003403E-04   6.8477245E+05   -1.8151088E+00
   1.3063454E-04   6.7907038E+05   -1.8145716E+00
   1.3123783E-04   6.7341745E+05   -1.8140338E+00
   1.3184390E-04   6.6781323E+05   -1.8134953E+00
   1.3245277E-04   6.6225730E+05   -1.8129562E+00
   1.3306445E-04   6.5674922E+05   -1.8124164E+00
   1.3367895E-04   6.5128858E+05   -1.8118761E+00
   1.3429630E-04   6.4587495E+05   -1.8113351E+00
   1.3491649E-04   6.4050791E+05   -1.8107935E+00
   1.3553955E-04   6.3518706E+05   -1.8102513E+00
   1.3616548E-04   6.2991198E+05   -1.8097085E+00
   1.3679431E-04   6.2468228E+05   -1.8091651E+00
   1.3742604E-04   6.1949755E+05   -1.8086211E+00
   1.3806069E-04   6.1435739E+05   -1.8080765E+00
   1.3869827E-04   6.0926141E+05   -1.8075313E+00
   1.3933879E-04   6.0420921E+05   -1.8069856E+00
   1.3998227E-04   5.9920042E+05   -1.8064393E+00
   1.4062872E-04   5.9423465E+05   -1.8058924E+00
   1.4127816E-04   5.8931152E+05   -1.8053449E+00
   1.4193060E-04   5.8443064E+05   -1.8047969E+00
   1.4258605E-04   5.7959166E+05   -1.8042484E+00
   1.4324453E-04   5.7479420E+05   -1.8036993E+00
   1.4390605E-04   5.7003789E+05   -1.8031496E+00
   1.4457062E-04   5.6532237E+05   -1.8025994E+00
   1.4523826E-04   5.6064728E+05   -1.8020487E+00
   1.4590899E-04   5.5601226E+05   -1.8014974E+00
   1.4658281E-04   5.5141697E+05   -1.8009456E+00
   1.4725974E-04   5.4686104E+05   -1.8003933E+00
   1.4793981E-04   5.4234414E+05   -1.7998405E+00
   1.4862301E-04   5.3786591E+05   -1.7992872E+00
   1.4930936E-04   5.3342603E+05   -1.7987334E+00
   1.4999889E-04   5.2902414E+05   -1.7981791E+00
   1.5069160E-04   5.2465992E+05   -1.7976243E+00
   1.5138751E-04   5.2033303E+05   -1.7970690E+00
   1.5208663E-04   5.1604315E+05   -1.7965132E+00
   1.5278899E-04   5.1178994E+05   -1.7959569E+00
   1.5349458E-04   5.0757310E+05   -1.7954002E+00
   1.5420343E-04   5.0339229E+05   -1.7948430E+00
   1.5491556E-04   4.9924719E+05   -1.7942853E+00
   1.5563098E-04   4.9513751E+05   -1.7937272E+00
   1.5634970E-04   4.9106291E+05   -1.7931686E+00
   1.5707174E-04   4.8702310E+05   -1.7926096E+00
   1.5779711E-04   4.8301777E+05   -1.7920502E+00
   1.5852584E-04   4.7904662E+05   -1.7914903E+00
   1.5925792E-04   4.7510934E+05   -1.7909300E+00
   1.5999339E-04   4.7120563E+05   -1.7903693E+00
   1.6073226E-04   4.6733521E+05   -1.7898081E+00
   1.6147454E-04   4.6349778E+05   -1.7892465E+00
   1.6222024E-04   4.5969305E+05   -1.7886846E+00
   1.6296939E-04   4.5592073E+05   -1.7881222E+00
   1.6372200E-04   4.5218054E+05   -1.7875594E+00
   1.6447809E-04   4.4847220E+05   -1.7869963E+00
   1.6523767E-04   4.4479543E+05   -1.7864327E+00
   1.6600075E-04   4.4114994E+05   -1.7858688E+00
   1.6676736E-04   4.3753547E+05   -1.7853045E+00
   1.6753751E-04   4.3395174E+05   -1.7847399E+00
   1.6831122E-04   4.3039848E+05   -1.7841748E+00
   1.6908849E-04   4.2687544E+05   -1.7836095E+00
   1.6986936E-04   4.2338233E+05   -1.7830437E+00
   1.7065384E-04   4.1991890E+05   -1.7824777E+00
   1.7144193E-04   4.1648489E+05   -1.7819112E+00
   1.7223367E-04   4.1308004E+05   -1.7813445E+00
   1.7302906E-04   4.0970410E+05   -1.7807774E+00
   1.7382813E-04   4.0635681E+05   -1.7802100E+00
   1.7463089E-04   4.0303792E+05   -1.7796423E+00
   1.7543735E-04   3.9974718E+05   -1.7790743E+00
   1.7624754E-04   3.9648435E+05   -1.7785060E+00
   1.7706147E-04   3.9324918E+05   -1.7779373E+00
   1.7787916E-04   3.9004143E+05   -1.7773684E+00
   1.7870062E-04   3.8686086E+05   -1.7767992E+00
   1.7952588E-04   3.8370724E+05   -1.7762297E+00
   1.8035495E-04   3.8058032E+05   -1.7756600E+00
   1.8118785E-04   3.7747987E+05   -1.7750899E+00
   1.8202459E-04   3.7440566E+05   -1.7745196E+00
   1.8286520E-04   3.7135747E+05   -1.7739491E+00
   1.8370969E-04   3.6833506E+05   -1.7733783E+00
   1.8455808E-04   3.6533822E+05   -1.7728072E+00
   1.8541039E-04   3.6236671E+05   -1.7722359E+00
   1.8626663E-04   3.5942031E+05   -1.7716644E+00
   1.8712683E-04   3.5649881E+05   -1.7710926E+00
   1.8799100E-04   3.5360199E+05   -1.7705207E+00
   1.8885917E-04   3.5072964E+05   -1.7699485E+00
   1.8973134E-04   3.4788153E+05   -1.7693761E+00
   1.9060754E-04   3.4505746E+05   -1.7688035E+00
   1.9148778E-04   3.4225722E+05   -1.7682306E+00
   1.9237209E-04   3.3948060E+05   -1.7676576E+00
   1.9326049E-04   3.3672739E+05   -1.7670845E+00
   1.9415299E-04   3.3399740E+05   -1.7665111E+00
   1.9504960E-04   3.3129041E+05   -1.7659375E+00
   1.9595036E-04   3.2860624E+05   -1.7653638E+00
   1.9685528E-04   3.2594467E+05   -1.7647900E+00
   1.9776438E-04   3.2330551E+05   -1.7642159E+00
   1.9867768E-04   3.2068857E+05   -1.7636417E+00
   1.9959519E-04   3.1809366E+05   -1.7630674E+00
   2.0051694E-04   3.1552058E+05   -1.7624929E+00
   2.0144295E-04   3.1296914E+05   -1.7619183E+00
   2.0237324E-04   3.1043915E+05   -1.7613436E+00
   2.0330782E-04   3.0793044E+05   -1.7607688E+00
   2.0424671E-04   3.0544280E+05   -1.7601938E+00
   2.0518995E-04   3.0297606E+05   -1.7596187E+00
   2.0613754E-04   3.0053004E+05   -1.7590436E+00
   2.0708950E-04   2.9810456E+05   -1.7584683E+00
   2.0804586E-04   2.9569944E+05   -1.7578929E+00
   2.0900664E-04   2.9331450E+05   -1.7573175E+00
   2.0997185E-04   2.9094957E+05   -1.7567420E+00
   2.1094152E-04   2.8860447E+05   -1.7561664E+00
   2.1191567E-04   2.8627903E+05   -1.7555907E+00
   2.1289432E-04   2.8397308E+05   -1.7550150E+00
   2.1387749E-04   2.8168646E+05   -1.7544393E+00
   2.1486520E-04   2.7941899E+05   -1.7538634E+00
   2.1585747E-04   2.7717050E+05   -1.7532876E+00
   2.1685432E-04   2.7494084E+05   -1.7527117E+00
   2.1785578E-04   2.7272984E+05   -1.7521358E+00
   2.1886186E-04   2.7053733E+05   -1.7515598E+00
   2.1987259E-04   2.6836317E+05   -1.7509839E+00
   2.2088798E-04   2.6620718E+05   -1.7504079E+00
   2.2190807E-04   2.6406921E+05   -1.7498319E+00
   2.2293286E-04   2.6194911E+05   -1.7492559E+00
   2.2396239E-04   2.5984673E+05   -1.7486800E+00
   2.2499667E-04   2.5776190E+05   -1.7481040E+00
   2.2603573E-04   2.5569447E+05   -1.7475281E+00
   2.2707958E-04   2.5364430E+05   -1.7469522E+00
   2.2812826E-04   2.5161124E+05   -1.7463763E+00
   2.2918178E-04   2.4959513E+05   -1.7458004E+00
   2.3024017E-04   2.4759584E+05   -1.7452246E+00
   2.3130344E-04   2.4561321E+05   -1.7446489E+00
   2.3237162E-04   2.4364710E+05   -1.7440732E+00
   2.3344474E-04   2.4169737E+05   -1.7434976E+00
   2.3452281E-04   2.3976389E+05   -1.7429220E+00
   2.3560586E-04   2.3784650E+05   -1.7423465E+00
   2.3669392E-04   2.3594507E+05   -1.7417711E+00
   2.3778699E-04   2.3405946E+05   -1.7411958E+00
   2.3888512E-04   2.3218953E+05   -1.7406206E+00
   2.3998831E-04   2.3033515E+05   -1.7400455E+00
   2.4109661E-04   2.2849619E+05   -1.7394705E+00
   2.4221001E-04   2.2667251E+05   -1.7388956E+00
   2.4332857E-04   2.2486399E+05   -1.7383208E+00
   2.4445228E-04   2.2307048E+05   -1.7377461E+00
   2.4558119E-04   2.2129186E+05   -1.7371716E+00
   2.4671531E-04   2.1952801E+05   -1.7365972E+00
   2.4785467E-04   2.1777879E+05   -1.7360229E+00
   2.4899928E-04   2.1604408E+05   -1.7354488E+00
   2.5014919E-04   2.1432376E+05   -1.7348748E+00
   2.5130440E-04   2.1261769E+05   -1.7343010E+00
   2.5246495E-04   2.1092577E+05   -1.7337274E+00
   2.5363086E-04   2.0924786E+05   -1.7331540E+00
   2.5480216E-04   2.0758385E+05   -1.7325807E+00
   2.5597886E-04   2.0593361E+05   -1.7320076E+00
   2.5716100E-04   2.0429703E+05   -1.7314347E+00
   2.5834859E-04   2.0267400E+05   -1.7308619E+00
   2.5954168E-04   2.0106438E+05   -1.7302894E+00
   2.6074027E-04   1.9946808E+05   -1.7297171E+00
   2.6194439E-04   1.9788497E+05   -1.7291450E+00
   2.6315408E-04   1.9631495E+05   -1.7285732E+00
   2.6436935E-04   1.9475789E+05   -1.7280015E+00
   2.6559024E-04   1.9321369E+05   -1.7274301E+00
   2.6681676E-04   1.9168225E+05   -1.7268589E+00
   2.6804895E-04   1.9016344E+05   -1.7262880E+00
   2.6928683E-04   1.8865716E+05   -1.7257173E+00
   2.7053042E-04   1.8716330E+05   -1.7251469E+00
   2.7177976E-04   1.8568176E+05   -1.7245767E+00
   2.7303487E-04   1.8421243E+05   -1.7240068E+00
   2.7429577E-04   1.8275521E+05   -1.7234372E+00
   2.7556250E-04   1.8130999E+05   -1.7228678E+00
   2.7683507E-04   1.7987667E+05   -1.7222987E+00
   2.7811353E-04   1.7845515E+05   -1.7217300E+00
   2.7939788E-04   1.7704533E+05   -1.7211615E+00
   2.8068817E-04   1.7564711E+05   -1.7205933E+00
   2.8198442E-04   1.7426038E+05   -1.7200254E+00
   2.8328665E-04   1.7288506E+05   -1.7194579E+00
   2.8459490E-04   1.7152104E+05   -1.7188906E+00
   2.8590919E-04   1.7016822E+05   -1.7183237E+00
   2.8722955E-04   1.6882652E+05   -1.7177571E+00
   2.8855600E-04   1.6749583E+05   -1.7171909E+00
   2.8988859E-04   1.6617606E+05   -1.7166250E+00
   2.9122732E-04   1.6486712E+05   -1.7160594E+00
   2.9257224E-04   1.6356892E+05   -1.7154942E+00
   2.9392337E-04   1.6228136E+05   -1.7149294E+00
   2.9528074E-04   1.6100436E+05   -1.7143649E+00
   2.9664438E-04   1.5973782E+05   -1.7138008E+00
   2.9801431E-04   1.5848166E+05   -1.7132370E+00
   2.9939057E-04   1.5723578E+05   -1.7126737E+00
   3.0077319E-04   1.5600010E+05   -1.7121107E+00
   3.0216219E-04   1.5477454E+05   -1.7115481E+00
   3.0355761E-04   1.5355900E+05   -1.7109859E+00
   3.0495947E-04   1.5235340E+05   -1.7104242E+00
   3.0636780E-04   1.5115766E+05   -1.7098628E+00
   3.0778264E-04   1.4997169E+05   -1.7093018E+00
   3.0920401E-04   1.4879541E+05   -1.7087413E+00
   3.1063195E-04   1.4762873E+05   -1.7081812E+00
   3.1206648E-04   1.4647158E+05   -1.7076215E+00
   3.1350764E-04   1.4532388E+05   -1.7070623E+00
   3.1495545E-04   1.4418554E+05   -1.7065035E+00
   3.1640994E-04   1.4305649E+05   -1.7059452E+00
   3.1787116E-04   1.4193664E+05   -1.7053873E+00
   3.1933912E-04   1.4082592E+05   -1.7048298E+00
   3.2081386E-04   1.3972425E+05   -1.7042728E+00
   3.2229541E-04   1.3863155E+05   -1.7037163E+00
   3.2378381E-04   1.3754776E+05   -1.7031603E+00
   3.2527908E-04   1.3647278E+05   -1.7026048E+00
   3.2678125E-04   1.3540655E+05   -1.7020497E+00
   3.2829036E-04   1.3434900E+05   -1.7014951E+00
   3.2980644E-04   1.3330005E+05   -1.7009410E+00
   3.3132952E-04   1.3225962E+05   -1.7003874E+00
   3.3285963E-04   1.3122765E+05   -1.6998344E+00
   3.3439681E-04   1.3020406E+05   -1.6992818E+00
   3.3594109E-04   1.2918879E+05   -1.6987297E+00
   3.3749250E-04   1.2818175E+05   -1.6981782E+00
   3.3905108E-04   1.2718290E+05   -1.6976272E+00
   3.4061685E-04   1.2619214E+05   -1.6970767E+00
   3.4218986E-04   1.2520942E+05   -1.6965268E+00
   3.4377013E-04   1.2423467E+05   -1.6959774E+00
   3.4535769E-04   1.2326782E+05   -1.6954286E+00
   3.4695259E-04   1.2230880E+05   -1.6948803E+00
   3.4855485E-04   1.2135755E+05   -1.6943325E+00
   3.5016452E-04   1.2041400E+05   -1.6937853E+00
   3.5178161E-04   1.1947809E+05   -1.6932387E+00
   3.5340618E-04   1.1854975E+05   -1.6926927E+00
   3.5503824E-04   1.1762892E+05   -1.6921472E+00
   3.5667785E-04   1.1671553E+05   -1.6916023E+00
   3.5832502E-04   1.1580953E+05   -1.6910580E+00
   3.5997981E-04   1.1491085E+05   -1.6905143E+00
   3.6164223E-04   1.1401943E+05   -1.6899712E+00
   3.6331233E-04   1.1313521E+05   -1.6894287E+00
   3.6499015E-04   1.1225812E+05   -1.6888868E+00
   3.6667571E-04   1.1138811E+05   -1.6883454E+00
   3.6836906E-04   1.1052512E+05   -1.6878048E+00
   3.7007022E-04   1.0966909E+05   -1.6872647E+00
   3.7177925E-04   1.0881996E+05   -1.6867252E+00
   3.7349616E-04   1.0797768E+05   -1.6861864E+00
   3.7522101E-04   1.0714217E+05   -1.6856482E+00
   3.7695382E-04   1.0631340E+05   -1.6851107E+00
   3.7869463E-04   1.0549130E+05   -1.6845738E+00
   3.8044348E-04   1.0467581E+05   -1.6840375E+00
   3.8220041E-04   1.0386689E+05   -1.6835019E+00
   3.8396545E-04   1.0306447E+05   -1.6829670E+00
   3.8573864E-04   1.0226850E+05   -1.6824327E+00
   3.8752002E-04   1.0147893E+05   -1.6818990E+00
   3.8930963E-04   1.0069570E+05   -1.6813661E+00
   3.9110750E-04   9.9918761E+04   -1.6808338E+00
   3.9291368E-04   9.9148061E+04   -1.6803022E+00
   3.9472820E-04   9.8383546E+04   -1.6797713E+00
   3.9655109E-04   9.7625164E+04   -1.6792410E+00
   3.9838241E-04   9.6872865E+04   -1.6787115E+00
   4.0022218E-04   9.6126598E+04   -1.6781826E+00
   4.0207045E-04   9.5386311E+04   -1.6776545E+00
   4.0392725E-04   9.4651957E+04   -1.6771270E+00
   4.0579263E-04   9.3923484E+04   -1.6766002E+00
   4.0766662E-04   9.3200843E+04   -1.6760742E+00
   4.0954927E-04   9.2483986E+04   -1.6755489E+00
   4.1144061E-04   9.1772866E+04   -1.6750243E+00
   4.1334068E-04   9.1067432E+04   -1.6745004E+00
   4.1524953E-04   9.0367640E+04   -1.6739773E+00
   4.1716720E-04   8.9673441E+04   -1.6734548E+00
   4.1909372E-04   8.8984788E+04   -1.6729332E+00
   4.2102914E-04   8.8301636E+04   -1.6724122E+00
   4.2297350E-04   8.7623939E+04   -1.6718920E+00
   4.2492683E-04   8.6951652E+04   -1.6713726E+00
   4.2688919E-04   8.6284729E+04   -1.6708539E+00
   4.2886061E-04   8.5623126E+04   -1.6703359E+00
   4.3084113E-04   8.4966798E+04   -1.6698187E+00
   4.3283080E-04   8.4315702E+04   -1.6693023E+00
   4.3482966E-04   8.3669795E+04   -1.6687867E+00
   4.3683775E-04   8.3029032E+04   -1.6682718E+00
   4.3885511E-04   8.2393372E+04   -1.6677577E+00
   4.4088179E-04   8.1762772E+04   -1.6672443E+00
   4.4291783E-04   8.1137190E+04   -1.6667318E+00
   4.4496327E-04   8.0516585E+04   -1.6662200E+00
   4.4701816E-04   7.9900914E+04   -1.6657091E+00
   4.4908253E-04   7.9290138E+04   -1.6651989E+00
   4.5115644E-04   7.8684216E+04   -1.6646895E+00
   4.5323993E-04   7.8083107E+04   -1.6641809E+00
   4.5533304E-04   7.7486771E+04   -1.6636731E+00
   4.5743582E-04   7.6895170E+04   -1.6631661E+00
   4.5954830E-04   7.6308264E+04   -1.6626600E+00
   4.6167054E-04   7.5726014E+04   -1.6621546E+00
   4.6380259E-04   7.5148381E+04   -1.6616501E+00
   4.6594448E-04   7.4575328E+04   -1.6611463E+00
   4.6809626E-04   7.4006816E+04   -1.6606435E+00
   4.7025797E-04   7.3442808E+04   -1.6601414E+00
   4.7242967E-04   7.2883267E+04   -1.6596401E+00
   4.7461140E-04   7.2328156E+04   -1.6591397E+00
   4.7680321E-04   7.1777438E+04   -1.6586402E+00
   4.7900514E-04   7.1231077E+04   -1.6581414E+00
   4.8121723E-04   7.0689037E+04   -1.6576436E+00
   4.8343954E-04   7.0151283E+04   -1.6571465E+00
   4.8567212E-04   6.9617779E+04   -1.6566503E+00
   4.8791500E-04   6.9088490E+04   -1.6561550E+00
   4.9016825E-04   6.8563382E+04   -1.6556605E+00
   4.9243189E-04   6.8042420E+04   -1.6551669E+00
   4.9470600E-04   6.7525569E+04   -1.6546741E+00
   4.9699060E-04   6.7012796E+04   -1.6541822E+00
   4.9928575E-04   6.6504068E+04   -1.6536912E+00
   5.0159151E-04   6.5999351E+04   -1.6532010E+00
   5.0390791E-04   6.5498612E+04   -1.6527117E+00
   5.0623501E-04   6.5001819E+04   -1.6522233E+00
   5.0857286E-04   6.4508939E+04   -1.6517358E+00
   5.1092150E-04   6.4019940E+04   -1.6512491E+00
   5.1328099E-04   6.3534790E+04   -1.6507633E+00
   5.1565137E-04   6.3053457E+04   -1.6502785E+00
   5.1803270E-04   6.2575911E+04   -1.6497945E+00
   5.2042503E-04   6.2102120E+04   -1.6493114E+00
   5.2282841E-04   6.1632053E+04   -1.6488292E+00
   5.2524289E-04   6.1165680E+04   -1.6483479E+00
   5.2766851E-04   6.0702971E+04   -1.6478674E+00
   5.3010534E-04   6.0243895E+04   -1.6473879E+00
   5.3255342E-04   5.9788423E+04   -1.6469093E+00
   5.3501281E-04   5.9336525E+04   -1.6464316E+00
   5.3748356E-04   5.8888172E+04   -1.6459549E+00
   5.3996571E-04   5.8443336E+04   -1.6454790E+00
   5.4245933E-04   5.8001986E+04   -1.6450040E+00
   5.4496446E-04   5.7564096E+04   -1.6445300E+00
   5.4748117E-04   5.7129636E+04   -1.6440569E+00
   5.5000949E-04   5.6698578E+04   -1.6435847E+00
   5.5254949E-04   5.6270896E+04   -1.6431134E+00
   5.5510123E-04   5.5846560E+04   -1.6426430E+00
   5.5766474E-04   5.5425544E+04   -1.6421736E+00
   5.6024010E-04   5.5007822E+04   -1.6417051E+00
   5.6282734E-04   5.4593365E+04   -1.6412376E+00
   5.6542654E-04   5.4182147E+04   -1.6407710E+00
   5.6803774E-04   5.3774143E+04   -1.6403053E+00
   5.7066099E-04   5.3369325E+04   -1.6398405E+00
   5.7329637E-04   5.2967668E+04   -1.6393767E+00
   5.7594391E-04   5.2569146E+04   -1.6389139E+00
   5.7860368E-04   5.2173733E+04   -1.6384520E+00
   5.8127573E-04   5.1781405E+04   -1.6379910E+00
   5.8396012E-04   5.1392136E+04   -1.6375310E+00
   5.8665691E-04   5.1005902E+04   -1.6370719E+00
   5.8936616E-04   5.0622677E+04   -1.6366138E+00
   5.9208791E-04   5.0242438E+04   -1.6361567E+00
   5.9482223E-04   4.9865159E+04   -1.6357005E+00
   5.9756919E-04   4.9490817E+04   -1.6352452E+00
   6.0032882E-04   4.9119389E+04   -1.6347910E+00
   6.0310120E-04   4.8750850E+04   -1.6343376E+00
   6.0588639E-04   4.8385177E+04   -1.6338853E+00
   6.0868443E-04   4.8022347E+04   -1.6334339E+00
   6.1149540E-04   4.7662336E+04   -1.6329835E+00
   6.1431935E-04   4.7305123E+04   -1.6325340E+00
   6.1715634E-04   4.6950684E+04   -1.6320856E+00
   6.2000644E-04   4.6598997E+04   -1.6316381E+00
   6.2286969E-04   4.6250039E+04   -1.6311915E+00
