#        a       HoverH0(a)       dlogHdloga_of_a(a)
   1.0000000E-04   1.0272712E+06   -1.8729569E+00
   1.0046181E-04   1.0184454E+06   -1.8725198E+00
   1.0092575E-04   1.0096975E+06   -1.8720817E+00
   1.0139184E-04   1.0010268E+06   -1.8716426E+00
   1.0186008E-04   9.9243249E+05   -1.8712025E+00
   1.0233048E-04   9.8391399E+05   -1.8707614E+00
   1.0280305E-04   9.7547060E+05   -1.8703194E+00
   1.0327781E-04   9.6710164E+05   -1.8698763E+00
   1.0375475E-04   9.5880643E+05   -1.8694323E+00
   1.0423390E-04   9.5058433E+05   -1.8689873E+00
   1.0471527E-04   9.4243466E+05   -1.8685414E+00
   1.0519885E-04   9.3435679E+05   -1.8680944E+00
   1.0568467E-04   9.2635006E+05   -1.8676465E+00
   1.0617274E-04   9.1841384E+05   -1.8671976E+00
   1.0666305E-04   9.1054750E+05   -1.8667477E+00
   1.0715563E-04   9.0275041E+05   -1.8662969E+00
   1.0765049E-04   8.9502195E+05   -1.8658451E+00
   1.0814763E-04   8.8736150E+05   -1.8653923E+00
   1.0864707E-04   8.7976846E+05   -1.8649386E+00
   1.0914881E-04   8.7224221E+05   -1.8644839E+00
   1.0965287E-04   8.6478216E+05   -1.8640283E+00
   1.1015926E-04   8.5738772E+05   -1.8635716E+00
   1.1066799E-04   8.5005829E+05   -1.8631141E+00
   1.1117906E-04   8.4279330E+05   -1.8626556E+00
   1.1169250E-04   8.3559216E+05   -1.8621961E+00
   1.1220831E-04   8.2845431E+05   -1.8617356E+00
   1.1272650E-04   8.2137918E+05   -1.8612743E+00
   1.1324708E-04   8.1436620E+05   -1.8608119E+00
   1.1377007E-04   8.0741482E+05   -1.8603487E+00
   1.1429547E-04   8.0052450E+05   -1.8598845E+00
   1.1482330E-04   7.9369467E+05   -1.8594193E+00
   1.1535356E-04   7.8692479E+05   -1.8589532E+00
   1.1588628E-04   7.8021434E+05   -1.8584862E+00
   1.1642145E-04   7.7356278E+05   -1.8580182E+00
   1.1695910E-04   7.6696958E+05   -1.8575493E+00
   1.1749923E-04   7.6043422E+05   -1.8570795E+00
   1.1804185E-04   7.5395618E+05   -1.8566087E+00
   1.1858698E-04   7.4753495E+05   -1.8561370E+00
   1.1913463E-04   7.4117002E+05   -1.8556644E+00
   1.1968481E-04   7.3486089E+05   -1.8551909E+00
   1.2023752E-04   7.2860705E+05   -1.8547165E+00
   1.2079279E-04   7.2240801E+05   -1.8542411E+00
   1.2135063E-04   7.1626329E+05   -1.8537648E+00
   1.2191104E-04   7.1017240E+05   -1.8532876E+00
   1.2247403E-04   7.0413485E+05   -1.8528095E+00
   1.2303963E-04   6.9815016E+05   -1.8523305E+00
   1.2360784E-04   6.9221788E+05   -1.8518506E+00
   1.2417868E-04   6.8633751E+05   -1.8513698E+00
   1.2475215E-04   6.8050861E+05   -1.8508881E+00
   1.2532826E-04   6.7473072E+05   -1.8504055E+00
   1.2590704E-04   6.6900337E+05   -1.8499220E+00
   1.2648850E-04   6.6332611E+05   -1.8494376E+00
   1.2707263E-04   6.5769850E+05   -1.8489523E+00
   1.2765947E-04   6.5212009E+05   -1.8484661E+00
   1.2824901E-04   6.4659045E+05   -1.8479791E+00
   1.2884128E-04   6.4110914E+05   -1.8474912E+00
   1.2943628E-04   6.3567573E+05   -1.8470023E+00
   1.3003403E-04   6.3028978E+05   -1.8465127E+00
   1.3063454E-04   6.2495088E+05   -1.8460221E+00
   1.3123783E-04   6.1965861E+05   -1.8455307E+00
   1.3184390E-04   6.1441254E+05   -1.8450384E+00
   1.3245277E-04   6.0921227E+05   -1.8445452E+00
   1.3306445E-04   6.0405739E+05   -1.8440512E+00
   1.3367895E-04   5.9894749E+05   -1.8435563E+00
   1.3429630E-04   5.9388217E+05   -1.8430606E+00
   1.3491649E-04   5.8886103E+05   -1.8425640E+00
   1.3553955E-04   5.8388369E+05   -1.8420666E+00
   1.3616548E-04   5.7894974E+05   -1.8415683E+00
   1.3679431E-04   5.7405881E+05   -1.8410692E+00
   1.3742604E-04   5.6921050E+05   -1.8405693E+00
   1.3806069E-04   5.6440445E+05   -1.8400685E+00
   1.3869827E-04   5.5964026E+05   -1.8395669E+00
   1.3933879E-04   5.5491757E+05   -1.8390644E+00
   1.3998227E-04   5.5023601E+05   -1.8385612E+00
   1.4062872E-04   5.4559522E+05   -1.8380571E+00
   1.4127816E-04   5.4099482E+05   -1.8375521E+00
   1.4193060E-04   5.3643446E+05   -1.8370464E+00
   1.4258605E-04   5.3191378E+05   -1.8365399E+00
   1.4324453E-04   5.2743244E+05   -1.8360325E+00
   1.4390605E-04   5.2299007E+05   -1.8355244E+00
   1.4457062E-04   5.1858633E+05   -1.8350154E+00
   1.4523826E-04   5.1422088E+05   -1.8345057E+00
   1.4590899E-04   5.0989338E+05   -1.8339951E+00
   1.4658281E-04   5.0560349E+05   -1.8334838E+00
   1.4725974E-04   5.0135087E+05   -1.8329716E+00
   1.4793981E-04   4.9713519E+05   -1.8324587E+00
   1.4862301E-04   4.9295613E+05   -1.8319450E+00
   1.4930936E-04   4.8881335E+05   -1.8314306E+00
   1.4999889E-04   4.8470654E+05   -1.8309153E+00
   1.5069160E-04   4.8063538E+05   -1.8303993E+00
   1.5138751E-04   4.7659954E+05   -1.8298825E+00
   1.5208663E-04   4.7259872E+05   -1.8293650E+00
   1.5278899E-04   4.6863261E+05   -1.8288467E+00
   1.5349458E-04   4.6470088E+05   -1.8283276E+00
   1.5420343E-04   4.6080325E+05   -1.8278078E+00
   1.5491556E-04   4.5693941E+05   -1.8272873E+00
   1.5563098E-04   4.5310904E+05   -1.8267660E+00
   1.5634970E-04   4.4931187E+05   -1.8262440E+00
   1.5707174E-04   4.4554759E+05   -1.8257212E+00
   1.5779711E-04   4.4181592E+05   -1.8251977E+00
   1.5852584E-04   4.3811655E+05   -1.8246735E+00
   1.5925792E-04   4.3444921E+05   -1.8241486E+00
   1.5999339E-04   4.3081361E+05   -1.8236229E+00
   1.6073226E-04   4.2720947E+05   -1.8230965E+00
   1.6147454E-04   4.2363651E+05   -1.8225694E+00
   1.6222024E-04   4.2009445E+05   -1.8220417E+00
   1.6296939E-04   4.1658302E+05   -1.8215132E+00
   1.6372200E-04   4.1310195E+05   -1.8209840E+00
   1.6447809E-04   4.0965097E+05   -1.8204541E+00
   1.6523767E-04   4.0622981E+05   -1.8199235E+00
   1.6600075E-04   4.0283821E+05   -1.8193923E+00
   1.6676736E-04   3.9947590E+05   -1.8188604E+00
   1.6753751E-04   3.9614263E+05   -1.8183277E+00
   1.6831122E-04   3.9283813E+05   -1.8177945E+00
   1.6908849E-04   3.8956216E+05   -1.8172605E+00
   1.6986936E-04   3.8631445E+05   -1.8167259E+00
   1.7065384E-04   3.8309477E+05   -1.8161906E+00
   1.7144193E-04   3.7990286E+05   -1.8156547E+00
   1.7223367E-04   3.7673847E+05   -1.8151181E+00
   1.7302906E-04   3.7360136E+05   -1.8145809E+00
   1.7382813E-04   3.7049130E+05   -1.8140431E+00
   1.7463089E-04   3.6740804E+05   -1.8135046E+00
   1.7543735E-04   3.6435134E+05   -1.8129655E+00
   1.7624754E-04   3.6132097E+05   -1.8124257E+00
   1.7706147E-04   3.5831669E+05   -1.8118854E+00
   1.7787916E-04   3.5533828E+05   -1.8113444E+00
   1.7870062E-04   3.5238551E+05   -1.8108028E+00
   1.7952588E-04   3.4945814E+05   -1.8102606E+00
   1.8035495E-04   3.4655596E+05   -1.8097178E+00
   1.8118785E-04   3.4367874E+05   -1.8091743E+00
   1.8202459E-04   3.4082627E+05   -1.8086303E+00
   1.8286520E-04   3.3799831E+05   -1.8080858E+00
   1.8370969E-04   3.3519466E+05   -1.8075406E+00
   1.8455808E-04   3.3241511E+05   -1.8069948E+00
   1.8541039E-04   3.2965943E+05   -1.8064485E+00
   1.8626663E-04   3.2692742E+05   -1.8059016E+00
   1.8712683E-04   3.2421887E+05   -1.8053542E+00
   1.8799100E-04   3.2153357E+05   -1.8048061E+00
   1.8885917E-04   3.1887131E+05   -1.8042576E+00
   1.8973134E-04   3.1623190E+05   -1.8037085E+00
   1.9060754E-04   3.1361513E+05   -1.8031588E+00
   1.9148778E-04   3.1102080E+05   -1.8026086E+00
   1.9237209E-04   3.0844871E+05   -1.8020579E+00
   1.9326049E-04   3.0589868E+05   -1.8015066E+00
   1.9415299E-04   3.0337049E+05   -1.8009548E+00
   1.9504960E-04   3.0086396E+05   -1.8004025E+00
   1.9595036E-04   2.9837891E+05   -1.7998497E+00
   1.9685528E-04   2.9591513E+05   -1.7992963E+00
   1.9776438E-04   2.9347245E+05   -1.7987425E+00
   1.9867768E-04   2.9105067E+05   -1.7981882E+00
   1.9959519E-04   2.8864962E+05   -1.7976334E+00
   2.0051694E-04   2.8626910E+05   -1.7970780E+00
   2.0144295E-04   2.8390895E+05   -1.7965222E+00
   2.0237324E-04   2.8156897E+05   -1.7959660E+00
   2.0330782E-04   2.7924900E+05   -1.7954092E+00
   2.0424671E-04   2.7694885E+05   -1.7948520E+00
   2.0518995E-04   2.7466835E+05   -1.7942944E+00
   2.0613754E-04   2.7240733E+05   -1.7937362E+00
   2.0708950E-04   2.7016562E+05   -1.7931777E+00
   2.0804586E-04   2.6794305E+05   -1.7926186E+00
   2.0900664E-04   2.6573945E+05   -1.7920592E+00
   2.0997185E-04   2.6355465E+05   -1.7914993E+00
   2.1094152E-04   2.6138848E+05   -1.7909390E+00
   2.1191567E-04   2.5924079E+05   -1.7903782E+00
   2.1289432E-04   2.5711141E+05   -1.7898170E+00
   2.1387749E-04   2.5500018E+05   -1.7892555E+00
   2.1486520E-04   2.5290694E+05   -1.7886935E+00
   2.1585747E-04   2.5083153E+05   -1.7881311E+00
   2.1685432E-04   2.4877380E+05   -1.7875683E+00
   2.1785578E-04   2.4673359E+05   -1.7870051E+00
   2.1886186E-04   2.4471075E+05   -1.7864416E+00
   2.1987259E-04   2.4270512E+05   -1.7858776E+00
   2.2088798E-04   2.4071656E+05   -1.7853133E+00
   2.2190807E-04   2.3874491E+05   -1.7847487E+00
   2.2293286E-04   2.3679002E+05   -1.7841836E+00
   2.2396239E-04   2.3485176E+05   -1.7836182E+00
   2.2499667E-04   2.3292996E+05   -1.7830525E+00
   2.2603573E-04   2.3102450E+05   -1.7824864E+00
   2.2707958E-04   2.2913522E+05   -1.7819200E+00
   2.2812826E-04   2.2726198E+05   -1.7813532E+00
   2.2918178E-04   2.2540465E+05   -1.7807861E+00
   2.3024017E-04   2.2356308E+05   -1.7802187E+00
   2.3130344E-04   2.2173714E+05   -1.7796510E+00
   2.3237162E-04   2.1992668E+05   -1.7790829E+00
   2.3344474E-04   2.1813158E+05   -1.7785146E+00
   2.3452281E-04   2.1635170E+05   -1.7779459E+00
   2.3560586E-04   2.1458690E+05   -1.7773770E+00
   2.3669392E-04   2.1283705E+05   -1.7768078E+00
   2.3778699E-04   2.1110203E+05   -1.7762383E+00
   2.3888512E-04   2.0938171E+05   -1.7756685E+00
   2.3998831E-04   2.0767594E+05   -1.7750984E+00
   2.4109661E-04   2.0598462E+05   -1.7745281E+00
   2.4221001E-04   2.0430760E+05   -1.7739575E+00
   2.4332857E-04   2.0264477E+05   -1.7733867E+00
   2.4445228E-04   2.0099601E+05   -1.7728156E+00
   2.4558119E-04   1.9936118E+05   -1.7722443E+00
   2.4671531E-04   1.9774017E+05   -1.7716728E+00
   2.4785467E-04   1.9613286E+05   -1.7711010E+00
   2.4899928E-04   1.9453913E+05   -1.7705290E+00
   2.5014919E-04   1.9295885E+05   -1.7699568E+00
   2.5130440E-04   1.9139192E+05   -1.7693843E+00
   2.5246495E-04   1.8983821E+05   -1.7688117E+00
   2.5363086E-04   1.8829761E+05   -1.7682389E+00
   2.5480216E-04   1.8677001E+05   -1.7676658E+00
   2.5597886E-04   1.8525528E+05   -1.7670926E+00
   2.5716100E-04   1.8375333E+05   -1.7665192E+00
   2.5834859E-04   1.8226404E+05   -1.7659457E+00
   2.5954168E-04   1.8078730E+05   -1.7653719E+00
   2.6074027E-04   1.7932299E+05   -1.7647980E+00
   2.6194439E-04   1.7787102E+05   -1.7642240E+00
   2.6315408E-04   1.7643126E+05   -1.7636498E+00
   2.6436935E-04   1.7500363E+05   -1.7630754E+00
   2.6559024E-04   1.7358801E+05   -1.7625009E+00
   2.6681676E-04   1.7218429E+05   -1.7619263E+00
   2.6804895E-04   1.7079238E+05   -1.7613515E+00
   2.6928683E-04   1.6941217E+05   -1.7607767E+00
   2.7053042E-04   1.6804355E+05   -1.7602017E+00
   2.7177976E-04   1.6668644E+05   -1.7596266E+00
   2.7303487E-04   1.6534072E+05   -1.7590514E+00
   2.7429577E-04   1.6400630E+05   -1.7584761E+00
   2.7556250E-04   1.6268309E+05   -1.7579007E+00
   2.7683507E-04   1.6137097E+05   -1.7573252E+00
   2.7811353E-04   1.6006987E+05   -1.7567497E+00
   2.7939788E-04   1.5877967E+05   -1.7561741E+00
   2.8068817E-04   1.5750030E+05   -1.7555984E+00
   2.8198442E-04   1.5623164E+05   -1.7550226E+00
   2.8328665E-04   1.5497362E+05   -1.7544468E+00
   2.8459490E-04   1.5372613E+05   -1.7538710E+00
   2.8590919E-04   1.5248909E+05   -1.7532951E+00
   2.8722955E-04   1.5126241E+05   -1.7527192E+00
   2.8855600E-04   1.5004599E+05   -1.7521432E+00
   2.8988859E-04   1.4883975E+05   -1.7515672E+00
   2.9122732E-04   1.4764360E+05   -1.7509912E+00
   2.9257224E-04   1.4645745E+05   -1.7504152E+00
   2.9392337E-04   1.4528122E+05   -1.7498392E+00
   2.9528074E-04   1.4411481E+05   -1.7492632E+00
   2.9664438E-04   1.4295815E+05   -1.7486872E+00
   2.9801431E-04   1.4181114E+05   -1.7481112E+00
   2.9939057E-04   1.4067372E+05   -1.7475352E+00
   3.0077319E-04   1.3954579E+05   -1.7469593E+00
   3.0216219E-04   1.3842726E+05   -1.7463834E+00
   3.0355761E-04   1.3731807E+05   -1.7458075E+00
   3.0495947E-04   1.3621813E+05   -1.7452317E+00
   3.0636780E-04   1.3512736E+05   -1.7446559E+00
   3.0778264E-04   1.3404567E+05   -1.7440802E+00
   3.0920401E-04   1.3297300E+05   -1.7435045E+00
   3.1063195E-04   1.3190926E+05   -1.7429289E+00
   3.1206648E-04   1.3085438E+05   -1.7423534E+00
   3.1350764E-04   1.2980828E+05   -1.7417780E+00
   3.1495545E-04   1.2877088E+05   -1.7412026E+00
   3.1640994E-04   1.2774211E+05   -1.7406274E+00
   3.1787116E-04   1.2672190E+05   -1.7400522E+00
   3.1933912E-04   1.2571017E+05   -1.7394771E+00
   3.2081386E-04   1.2470684E+05   -1.7389022E+00
   3.2229541E-04   1.2371186E+05   -1.7383274E+00
   3.2378381E-04   1.2272513E+05   -1.7377527E+00
   3.2527908E-04   1.2174660E+05   -1.7371781E+00
   3.2678125E-04   1.2077619E+05   -1.7366036E+00
   3.2829036E-04   1.1981383E+05   -1.7360293E+00
   3.2980644E-04   1.1885945E+05   -1.7354552E+00
   3.3132952E-04   1.1791299E+05   -1.7348812E+00
   3.3285963E-04   1.1697437E+05   -1.7343073E+00
   3.3439681E-04   1.1604353E+05   -1.7337337E+00
   3.3594109E-04   1.1512041E+05   -1.7331602E+00
   3.3749250E-04   1.1420493E+05   -1.7325868E+00
   3.3905108E-04   1.1329702E+05   -1.7320137E+00
   3.4061685E-04   1.1239664E+05   -1.7314408E+00
   3.4218986E-04   1.1150370E+05   -1.7308680E+00
   3.4377013E-04   1.1061815E+05   -1.7302954E+00
   3.4535769E-04   1.0973992E+05   -1.7297231E+00
   3.4695259E-04   1.0886895E+05   -1.7291510E+00
   3.4855485E-04   1.0800518E+05   -1.7285790E+00
   3.5016452E-04   1.0714854E+05   -1.7280073E+00
   3.5178161E-04   1.0629898E+05   -1.7274359E+00
   3.5340618E-04   1.0545643E+05   -1.7268647E+00
   3.5503824E-04   1.0462083E+05   -1.7262937E+00
   3.5667785E-04   1.0379213E+05   -1.7257229E+00
   3.5832502E-04   1.0297026E+05   -1.7251525E+00
   3.5997981E-04   1.0215517E+05   -1.7245822E+00
   3.6164223E-04   1.0134680E+05   -1.7240123E+00
   3.6331233E-04   1.0054509E+05   -1.7234426E+00
   3.6499015E-04   9.9749982E+04   -1.7228732E+00
   3.6667571E-04   9.8961421E+04   -1.7223041E+00
   3.6836906E-04   9.8179352E+04   -1.7217353E+00
   3.7007022E-04   9.7403719E+04   -1.7211667E+00
   3.7177925E-04   9.6634466E+04   -1.7205985E+00
   3.7349616E-04   9.5871539E+04   -1.7200306E+00
   3.7522101E-04   9.5114885E+04   -1.7194630E+00
   3.7695382E-04   9.4364449E+04   -1.7188957E+00
   3.7869463E-04   9.3620178E+04   -1.7183287E+00
   3.8044348E-04   9.2882020E+04   -1.7177621E+00
   3.8220041E-04   9.2149923E+04   -1.7171958E+00
   3.8396545E-04   9.1423835E+04   -1.7166298E+00
   3.8573864E-04   9.0703705E+04   -1.7160642E+00
   3.8752002E-04   8.9989481E+04   -1.7154990E+00
   3.8930963E-04   8.9281113E+04   -1.7149341E+00
   3.9110750E-04   8.8578552E+04   -1.7143695E+00
   3.9291368E-04   8.7881748E+04   -1.7138053E+00
   3.9472820E-04   8.7190652E+04   -1.7132416E+00
   3.9655109E-04   8.6505215E+04   -1.7126781E+00
   3.9838241E-04   8.5825390E+04   -1.7121151E+00
   4.0022218E-04   8.5151128E+04   -1.7115525E+00
   4.0207045E-04   8.4482382E+04   -1.7109903E+00
   4.0392725E-04   8.3819105E+04   -1.7104284E+00
   4.0579263E-04   8.3161251E+04   -1.7098670E+00
   4.0766662E-04   8.2508774E+04   -1.7093060E+00
   4.0954927E-04   8.1861627E+04   -1.7087454E+00
   4.1144061E-04   8.1219765E+04   -1.7081852E+00
   4.1334068E-04   8.0583145E+04   -1.7076255E+00
   4.1524953E-04   7.9951720E+04   -1.7070662E+00
   4.1716720E-04   7.9325447E+04   -1.7065074E+00
   4.1909372E-04   7.8704283E+04   -1.7059490E+00
   4.2102914E-04   7.8088183E+04   -1.7053910E+00
   4.2297350E-04   7.7477106E+04   -1.7048335E+00
   4.2492683E-04   7.6871008E+04   -1.7042765E+00
   4.2688919E-04   7.6269847E+04   -1.7037199E+00
   4.2886061E-04   7.5673581E+04   -1.7031638E+00
   4.3084113E-04   7.5082169E+04   -1.7026082E+00
   4.3283080E-04   7.4495570E+04   -1.7020531E+00
   4.3482966E-04   7.3913742E+04   -1.7014984E+00
   4.3683775E-04   7.3336647E+04   -1.7009443E+00
   4.3885511E-04   7.2764242E+04   -1.7003906E+00
   4.4088179E-04   7.2196490E+04   -1.6998375E+00
   4.4291783E-04   7.1633350E+04   -1.6992849E+00
   4.4496327E-04   7.1074783E+04   -1.6987328E+00
   4.4701816E-04   7.0520751E+04   -1.6981812E+00
   4.4908253E-04   6.9971216E+04   -1.6976301E+00
   4.5115644E-04   6.9426138E+04   -1.6970796E+00
   4.5323993E-04   6.8885482E+04   -1.6965296E+00
   4.5533304E-04   6.8349210E+04   -1.6959801E+00
   4.5743582E-04   6.7817284E+04   -1.6954312E+00
   4.5954830E-04   6.7289667E+04   -1.6948828E+00
   4.6167054E-04   6.6766324E+04   -1.6943350E+00
   4.6380259E-04   6.6247219E+04   -1.6937878E+00
   4.6594448E-04   6.5732315E+04   -1.6932411E+00
   4.6809626E-04   6.5221577E+04   -1.6926950E+00
   4.7025797E-04   6.4714971E+04   -1.6921494E+00
   4.7242967E-04   6.4212461E+04   -1.6916045E+00
   4.7461140E-04   6.3714013E+04   -1.6910601E+00
   4.7680321E-04   6.3219592E+04   -1.6905163E+00
   4.7900514E-04   6.2729165E+04   -1.6899731E+00
   4.8121723E-04   6.2242699E+04   -1.6894306E+00
   4.8343954E-04   6.1760159E+04   -1.6888886E+00
   4.8567212E-04   6.1281513E+04   -1.6883472E+00
   4.8791500E-04   6.0806729E+04   -1.6878064E+00
   4.9016825E-04   6.0335773E+04   -1.6872663E+00
   4.9243189E-04   5.9868613E+04   -1.6867268E+00
   4.9470600E-04   5.9405218E+04   -1.6861879E+00
   4.9699060E-04   5.8945556E+04   -1.6856496E+00
   4.9928575E-04   5.8489596E+04   -1.6851120E+00
   5.0159151E-04   5.8037307E+04   -1.6845750E+00
   5.0390791E-04   5.7588657E+04   -1.6840387E+00
   5.0623501E-04   5.7143617E+04   -1.6835030E+00
   5.0857286E-04   5.6702156E+04   -1.6829680E+00
   5.1092150E-04   5.6264243E+04   -1.6824336E+00
   5.1328099E-04   5.5829851E+04   -1.6818999E+00
   5.1565137E-04   5.5398948E+04   -1.6813669E+00
   5.1803270E-04   5.4971506E+04   -1.6808345E+00
   5.2042503E-04   5.4547496E+04   -1.6803028E+00
   5.2282841E-04   5.4126889E+04   -1.6797718E+00
   5.2524289E-04   5.3709656E+04   -1.6792415E+00
   5.2766851E-04   5.3295769E+04   -1.6787119E+00
   5.3010534E-04   5.2885201E+04   -1.6781830E+00
   5.3255342E-04   5.2477924E+04   -1.6776547E+00
   5.3501281E-04   5.2073910E+04   -1.6771272E+00
   5.3748356E-04   5.1673131E+04   -1.6766004E+00
   5.3996571E-04   5.1275562E+04   -1.6760743E+00
   5.4245933E-04   5.0881175E+04   -1.6755489E+00
   5.4496446E-04   5.0489943E+04   -1.6750242E+00
   5.4748117E-04   5.0101841E+04   -1.6745002E+00
   5.5000949E-04   4.9716841E+04   -1.6739770E+00
   5.5254949E-04   4.9334919E+04   -1.6734545E+00
   5.5510123E-04   4.8956049E+04   -1.6729327E+00
   5.5766474E-04   4.8580205E+04   -1.6724117E+00
   5.6024010E-04   4.8207362E+04   -1.6718914E+00
   5.6282734E-04   4.7837495E+04   -1.6713719E+00
   5.6542654E-04   4.7470580E+04   -1.6708531E+00
   5.6803774E-04   4.7106591E+04   -1.6703351E+00
   5.7066099E-04   4.6745505E+04   -1.6698178E+00
   5.7329637E-04   4.6387296E+04   -1.6693013E+00
   5.7594391E-04   4.6031943E+04   -1.6687856E+00
   5.7860368E-04   4.5679420E+04   -1.6682706E+00
   5.8127573E-04   4.5329704E+04   -1.6677564E+00
   5.8396012E-04   4.4982772E+04   -1.6672430E+00
   5.8665691E-04   4.4638601E+04   -1.6667304E+00
   5.8936616E-04   4.4297168E+04   -1.6662185E+00
   5.9208791E-04   4.3958450E+04   -1.6657075E+00
   5.9482223E-04   4.3622424E+04   -1.6651972E+00
   5.9756919E-04   4.3289069E+04   -1.6646877E+00
   6.0032882E-04   4.2958362E+04   -1.6641790E+00
   6.0310120E-04   4.2630281E+04   -1.6636712E+00
   6.0588639E-04   4.2304805E+04   -1.6631641E+00
   6.0868443E-04   4.1981912E+04   -1.6626578E+00
   6.1149540E-04   4.1661580E+04   -1.6621524E+00
   6.1431935E-04   4.1343789E+04   -1.6616478E+00
   6.1715634E-04   4.1028518E+04   -1.6611440E+00
   6.2000644E-04   4.0715744E+04   -1.6606410E+00
   6.2286969E-04   4.0405449E+04   -1.6601388E+00
