#        a       HoverH0(a)       dlogHdloga_of_a(a)
   1.0000000E-04   1.1124908E+06   -1.8754388E+00
   1.0046181E-04   1.1029203E+06   -1.8750073E+00
   1.0092575E-04   1.0934342E+06   -1.8745749E+00
   1.0139184E-04   1.0840319E+06   -1.8741414E+00
   1.0186008E-04   1.0747126E+06   -1.8737070E+00
   1.0233048E-04   1.0654756E+06   -1.8732716E+00
   1.0280305E-04   1.0563200E+06   -1.8728352E+00
   1.0327781E-04   1.0472453E+06   -1.8723978E+00
   1.0375475E-04   1.0382506E+06   -1.8719594E+00
   1.0423390E-04   1.0293352E+06   -1.8715200E+00
   1.0471527E-04   1.0204985E+06   -1.8710796E+00
   1.0519885E-04   1.0117396E+06   -1.8706383E+00
   1.0568467E-04   1.0030580E+06   -1.8701960E+00
   1.0617274E-04   9.9445294E+05   -1.8697526E+00
   1.0666305E-04   9.8592370E+05   -1.8693084E+00
   1.0715563E-04   9.7746961E+05   -1.8688631E+00
   1.0765049E-04   9.6909001E+05   -1.8684168E+00
   1.0814763E-04   9.6078422E+05   -1.8679696E+00
   1.0864707E-04   9.5255158E+05   -1.8675214E+00
   1.0914881E-04   9.4439143E+05   -1.8670723E+00
   1.0965287E-04   9.3630313E+05   -1.8666221E+00
   1.1015926E-04   9.2828603E+05   -1.8661710E+00
   1.1066799E-04   9.2033949E+05   -1.8657190E+00
   1.1117906E-04   9.1246288E+05   -1.8652659E+00
   1.1169250E-04   9.0465557E+05   -1.8648119E+00
   1.1220831E-04   8.9691694E+05   -1.8643570E+00
   1.1272650E-04   8.8924638E+05   -1.8639010E+00
   1.1324708E-04   8.8164326E+05   -1.8634442E+00
   1.1377007E-04   8.7410700E+05   -1.8629863E+00
   1.1429547E-04   8.6663699E+05   -1.8625275E+00
   1.1482330E-04   8.5923264E+05   -1.8620678E+00
   1.1535356E-04   8.5189335E+05   -1.8616071E+00
   1.1588628E-04   8.4461854E+05   -1.8611454E+00
   1.1642145E-04   8.3740765E+05   -1.8606829E+00
   1.1695910E-04   8.3026008E+05   -1.8602193E+00
   1.1749923E-04   8.2317529E+05   -1.8597548E+00
   1.1804185E-04   8.1615269E+05   -1.8592894E+00
   1.1858698E-04   8.0919175E+05   -1.8588231E+00
   1.1913463E-04   8.0229190E+05   -1.8583558E+00
   1.1968481E-04   7.9545259E+05   -1.8578876E+00
   1.2023752E-04   7.8867330E+05   -1.8574184E+00
   1.2079279E-04   7.8195347E+05   -1.8569483E+00
   1.2135063E-04   7.7529259E+05   -1.8564773E+00
   1.2191104E-04   7.6869011E+05   -1.8560053E+00
   1.2247403E-04   7.6214551E+05   -1.8555325E+00
   1.2303963E-04   7.5565829E+05   -1.8550587E+00
   1.2360784E-04   7.4922792E+05   -1.8545840E+00
   1.2417868E-04   7.4285389E+05   -1.8541084E+00
   1.2475215E-04   7.3653571E+05   -1.8536318E+00
   1.2532826E-04   7.3027287E+05   -1.8531544E+00
   1.2590704E-04   7.2406488E+05   -1.8526760E+00
   1.2648850E-04   7.1791125E+05   -1.8521968E+00
   1.2707263E-04   7.1181148E+05   -1.8517166E+00
   1.2765947E-04   7.0576511E+05   -1.8512355E+00
   1.2824901E-04   6.9977165E+05   -1.8507536E+00
   1.2884128E-04   6.9383063E+05   -1.8502707E+00
   1.2943628E-04   6.8794158E+05   -1.8497870E+00
   1.3003403E-04   6.8210404E+05   -1.8493023E+00
   1.3063454E-04   6.7631754E+05   -1.8488168E+00
   1.3123783E-04   6.7058164E+05   -1.8483304E+00
   1.3184390E-04   6.6489587E+05   -1.8478431E+00
   1.3245277E-04   6.5925979E+05   -1.8473549E+00
   1.3306445E-04   6.5367295E+05   -1.8468659E+00
   1.3367895E-04   6.4813493E+05   -1.8463759E+00
   1.3429630E-04   6.4264527E+05   -1.8458851E+00
   1.3491649E-04   6.3720356E+05   -1.8453935E+00
   1.3553955E-04   6.3180935E+05   -1.8449009E+00
   1.3616548E-04   6.2646224E+05   -1.8444075E+00
   1.3679431E-04   6.2116179E+05   -1.8439133E+00
   1.3742604E-04   6.1590759E+05   -1.8434182E+00
   1.3806069E-04   6.1069923E+05   -1.8429222E+00
   1.3869827E-04   6.0553630E+05   -1.8424254E+00
   1.3933879E-04   6.0041839E+05   -1.8419277E+00
   1.3998227E-04   5.9534510E+05   -1.8414292E+00
   1.4062872E-04   5.9031604E+05   -1.8409299E+00
   1.4127816E-04   5.8533081E+05   -1.8404297E+00
   1.4193060E-04   5.8038901E+05   -1.8399287E+00
   1.4258605E-04   5.7549027E+05   -1.8394268E+00
   1.4324453E-04   5.7063420E+05   -1.8389241E+00
   1.4390605E-04   5.6582041E+05   -1.8384206E+00
   1.4457062E-04   5.6104854E+05   -1.8379163E+00
   1.4523826E-04   5.5631820E+05   -1.8374112E+00
   1.4590899E-04   5.5162903E+05   -1.8369052E+00
   1.4658281E-04   5.4698066E+05   -1.8363984E+00
   1.4725974E-04   5.4237273E+05   -1.8358908E+00
   1.4793981E-04   5.3780488E+05   -1.8353825E+00
   1.4862301E-04   5.3327675E+05   -1.8348733E+00
   1.4930936E-04   5.2878798E+05   -1.8343633E+00
   1.4999889E-04   5.2433823E+05   -1.8338525E+00
   1.5069160E-04   5.1992715E+05   -1.8333410E+00
   1.5138751E-04   5.1555439E+05   -1.8328286E+00
   1.5208663E-04   5.1121962E+05   -1.8323155E+00
   1.5278899E-04   5.0692249E+05   -1.8318016E+00
   1.5349458E-04   5.0266268E+05   -1.8312869E+00
   1.5420343E-04   4.9843984E+05   -1.8307714E+00
   1.5491556E-04   4.9425366E+05   -1.8302552E+00
   1.5563098E-04   4.9010380E+05   -1.8297382E+00
   1.5634970E-04   4.8598994E+05   -1.8292205E+00
   1.5707174E-04   4.8191176E+05   -1.8287019E+00
   1.5779711E-04   4.7786895E+05   -1.8281827E+00
   1.5852584E-04   4.7386119E+05   -1.8276627E+00
   1.5925792E-04   4.6988817E+05   -1.8271419E+00
   1.5999339E-04   4.6594957E+05   -1.8266204E+00
   1.6073226E-04   4.6204510E+05   -1.8260982E+00
   1.6147454E-04   4.5817445E+05   -1.8255752E+00
   1.6222024E-04   4.5433732E+05   -1.8250515E+00
   1.6296939E-04   4.5053342E+05   -1.8245271E+00
   1.6372200E-04   4.4676244E+05   -1.8240020E+00
   1.6447809E-04   4.4302410E+05   -1.8234761E+00
   1.6523767E-04   4.3931811E+05   -1.8229495E+00
   1.6600075E-04   4.3564417E+05   -1.8224222E+00
   1.6676736E-04   4.3200201E+05   -1.8218943E+00
   1.6753751E-04   4.2839135E+05   -1.8213656E+00
   1.6831122E-04   4.2481189E+05   -1.8208362E+00
   1.6908849E-04   4.2126337E+05   -1.8203061E+00
   1.6986936E-04   4.1774552E+05   -1.8197754E+00
   1.7065384E-04   4.1425805E+05   -1.8192439E+00
   1.7144193E-04   4.1080071E+05   -1.8187118E+00
   1.7223367E-04   4.0737322E+05   -1.8181790E+00
   1.7302906E-04   4.0397532E+05   -1.8176455E+00
   1.7382813E-04   4.0060674E+05   -1.8171114E+00
   1.7463089E-04   3.9726724E+05   -1.8165766E+00
   1.7543735E-04   3.9395654E+05   -1.8160411E+00
   1.7624754E-04   3.9067440E+05   -1.8155050E+00
   1.7706147E-04   3.8742056E+05   -1.8149683E+00
   1.7787916E-04   3.8419477E+05   -1.8144309E+00
   1.7870062E-04   3.8099678E+05   -1.8138929E+00
   1.7952588E-04   3.7782635E+05   -1.8133542E+00
   1.8035495E-04   3.7468324E+05   -1.8128149E+00
   1.8118785E-04   3.7156719E+05   -1.8122750E+00
   1.8202459E-04   3.6847798E+05   -1.8117344E+00
   1.8286520E-04   3.6541536E+05   -1.8111933E+00
   1.8370969E-04   3.6237910E+05   -1.8106515E+00
   1.8455808E-04   3.5936896E+05   -1.8101091E+00
   1.8541039E-04   3.5638473E+05   -1.8095661E+00
   1.8626663E-04   3.5342615E+05   -1.8090226E+00
   1.8712683E-04   3.5049302E+05   -1.8084784E+00
   1.8799100E-04   3.4758510E+05   -1.8079336E+00
   1.8885917E-04   3.4470217E+05   -1.8073883E+00
   1.8973134E-04   3.4184402E+05   -1.8068424E+00
   1.9060754E-04   3.3901041E+05   -1.8062959E+00
   1.9148778E-04   3.3620114E+05   -1.8057489E+00
   1.9237209E-04   3.3341599E+05   -1.8052012E+00
   1.9326049E-04   3.3065475E+05   -1.8046531E+00
   1.9415299E-04   3.2791720E+05   -1.8041043E+00
   1.9504960E-04   3.2520315E+05   -1.8035551E+00
   1.9595036E-04   3.2251237E+05   -1.8030053E+00
   1.9685528E-04   3.1984467E+05   -1.8024549E+00
   1.9776438E-04   3.1719983E+05   -1.8019040E+00
   1.9867768E-04   3.1457767E+05   -1.8013526E+00
   1.9959519E-04   3.1197798E+05   -1.8008007E+00
   2.0051694E-04   3.0940055E+05   -1.8002482E+00
   2.0144295E-04   3.0684521E+05   -1.7996952E+00
   2.0237324E-04   3.0431174E+05   -1.7991418E+00
   2.0330782E-04   3.0179996E+05   -1.7985878E+00
   2.0424671E-04   2.9930967E+05   -1.7980333E+00
   2.0518995E-04   2.9684070E+05   -1.7974784E+00
   2.0613754E-04   2.9439284E+05   -1.7969229E+00
   2.0708950E-04   2.9196592E+05   -1.7963670E+00
   2.0804586E-04   2.8955974E+05   -1.7958106E+00
   2.0900664E-04   2.8717414E+05   -1.7952537E+00
   2.0997185E-04   2.8480891E+05   -1.7946964E+00
   2.1094152E-04   2.8246390E+05   -1.7941386E+00
   2.1191567E-04   2.8013891E+05   -1.7935803E+00
   2.1289432E-04   2.7783377E+05   -1.7930216E+00
   2.1387749E-04   2.7554831E+05   -1.7924625E+00
   2.1486520E-04   2.7328236E+05   -1.7919029E+00
   2.1585747E-04   2.7103574E+05   -1.7913428E+00
   2.1685432E-04   2.6880828E+05   -1.7907824E+00
   2.1785578E-04   2.6659982E+05   -1.7902215E+00
   2.1886186E-04   2.6441018E+05   -1.7896603E+00
   2.1987259E-04   2.6223921E+05   -1.7890986E+00
   2.2088798E-04   2.6008673E+05   -1.7885365E+00
   2.2190807E-04   2.5795260E+05   -1.7879740E+00
   2.2293286E-04   2.5583663E+05   -1.7874111E+00
   2.2396239E-04   2.5373868E+05   -1.7868478E+00
   2.2499667E-04   2.5165859E+05   -1.7862841E+00
   2.2603573E-04   2.4959620E+05   -1.7857201E+00
   2.2707958E-04   2.4755136E+05   -1.7851557E+00
   2.2812826E-04   2.4552390E+05   -1.7845909E+00
   2.2918178E-04   2.4351369E+05   -1.7840257E+00
   2.3024017E-04   2.4152056E+05   -1.7834602E+00
   2.3130344E-04   2.3954437E+05   -1.7828944E+00
   2.3237162E-04   2.3758497E+05   -1.7823282E+00
   2.3344474E-04   2.3564221E+05   -1.7817617E+00
   2.3452281E-04   2.3371595E+05   -1.7811948E+00
   2.3560586E-04   2.3180604E+05   -1.7806276E+00
   2.3669392E-04   2.2991234E+05   -1.7800601E+00
   2.3778699E-04   2.2803470E+05   -1.7794923E+00
   2.3888512E-04   2.2617299E+05   -1.7789242E+00
   2.3998831E-04   2.2432707E+05   -1.7783558E+00
   2.4109661E-04   2.2249680E+05   -1.7777870E+00
   2.4221001E-04   2.2068204E+05   -1.7772180E+00
   2.4332857E-04   2.1888265E+05   -1.7766487E+00
   2.4445228E-04   2.1709850E+05   -1.7760791E+00
   2.4558119E-04   2.1532947E+05   -1.7755092E+00
   2.4671531E-04   2.1357541E+05   -1.7749391E+00
   2.4785467E-04   2.1183619E+05   -1.7743687E+00
   2.4899928E-04   2.1011169E+05   -1.7737981E+00
   2.5014919E-04   2.0840178E+05   -1.7732272E+00
   2.5130440E-04   2.0670632E+05   -1.7726560E+00
   2.5246495E-04   2.0502520E+05   -1.7720846E+00
   2.5363086E-04   2.0335829E+05   -1.7715130E+00
   2.5480216E-04   2.0170546E+05   -1.7709412E+00
   2.5597886E-04   2.0006659E+05   -1.7703691E+00
   2.5716100E-04   1.9844156E+05   -1.7697968E+00
   2.5834859E-04   1.9683025E+05   -1.7692243E+00
   2.5954168E-04   1.9523254E+05   -1.7686516E+00
   2.6074027E-04   1.9364830E+05   -1.7680788E+00
   2.6194439E-04   1.9207743E+05   -1.7675057E+00
   2.6315408E-04   1.9051981E+05   -1.7669324E+00
   2.6436935E-04   1.8897531E+05   -1.7663590E+00
   2.6559024E-04   1.8744384E+05   -1.7657853E+00
   2.6681676E-04   1.8592526E+05   -1.7652115E+00
   2.6804895E-04   1.8441948E+05   -1.7646376E+00
   2.6928683E-04   1.8292637E+05   -1.7640635E+00
   2.7053042E-04   1.8144584E+05   -1.7634892E+00
   2.7177976E-04   1.7997776E+05   -1.7629148E+00
   2.7303487E-04   1.7852203E+05   -1.7623403E+00
   2.7429577E-04   1.7707855E+05   -1.7617656E+00
   2.7556250E-04   1.7564720E+05   -1.7611908E+00
   2.7683507E-04   1.7422788E+05   -1.7606159E+00
   2.7811353E-04   1.7282049E+05   -1.7600409E+00
   2.7939788E-04   1.7142493E+05   -1.7594658E+00
   2.8068817E-04   1.7004108E+05   -1.7588906E+00
   2.8198442E-04   1.6866885E+05   -1.7583152E+00
   2.8328665E-04   1.6730814E+05   -1.7577398E+00
   2.8459490E-04   1.6595885E+05   -1.7571643E+00
   2.8590919E-04   1.6462088E+05   -1.7565887E+00
   2.8722955E-04   1.6329412E+05   -1.7560131E+00
   2.8855600E-04   1.6197849E+05   -1.7554374E+00
   2.8988859E-04   1.6067388E+05   -1.7548616E+00
   2.9122732E-04   1.5938021E+05   -1.7542858E+00
   2.9257224E-04   1.5809737E+05   -1.7537099E+00
   2.9392337E-04   1.5682527E+05   -1.7531340E+00
   2.9528074E-04   1.5556382E+05   -1.7525581E+00
   2.9664438E-04   1.5431292E+05   -1.7519821E+00
   2.9801431E-04   1.5307249E+05   -1.7514062E+00
   2.9939057E-04   1.5184244E+05   -1.7508301E+00
   3.0077319E-04   1.5062267E+05   -1.7502541E+00
   3.0216219E-04   1.4941309E+05   -1.7496781E+00
   3.0355761E-04   1.4821362E+05   -1.7491021E+00
   3.0495947E-04   1.4702417E+05   -1.7485261E+00
   3.0636780E-04   1.4584465E+05   -1.7479501E+00
   3.0778264E-04   1.4467498E+05   -1.7473741E+00
   3.0920401E-04   1.4351507E+05   -1.7467982E+00
   3.1063195E-04   1.4236484E+05   -1.7462223E+00
   3.1206648E-04   1.4122420E+05   -1.7456464E+00
   3.1350764E-04   1.4009308E+05   -1.7450706E+00
   3.1495545E-04   1.3897138E+05   -1.7444948E+00
   3.1640994E-04   1.3785903E+05   -1.7439191E+00
   3.1787116E-04   1.3675594E+05   -1.7433435E+00
   3.1933912E-04   1.3566204E+05   -1.7427679E+00
   3.2081386E-04   1.3457725E+05   -1.7421924E+00
   3.2229541E-04   1.3350148E+05   -1.7416170E+00
   3.2378381E-04   1.3243467E+05   -1.7410417E+00
   3.2527908E-04   1.3137673E+05   -1.7404664E+00
   3.2678125E-04   1.3032758E+05   -1.7398913E+00
   3.2829036E-04   1.2928716E+05   -1.7393162E+00
   3.2980644E-04   1.2825538E+05   -1.7387413E+00
   3.3132952E-04   1.2723217E+05   -1.7381665E+00
   3.3285963E-04   1.2621746E+05   -1.7375919E+00
   3.3439681E-04   1.2521118E+05   -1.7370173E+00
   3.3594109E-04   1.2421324E+05   -1.7364429E+00
   3.3749250E-04   1.2322359E+05   -1.7358686E+00
   3.3905108E-04   1.2224214E+05   -1.7352945E+00
   3.4061685E-04   1.2126883E+05   -1.7347206E+00
   3.4218986E-04   1.2030359E+05   -1.7341468E+00
   3.4377013E-04   1.1934635E+05   -1.7335731E+00
   3.4535769E-04   1.1839704E+05   -1.7329997E+00
   3.4695259E-04   1.1745559E+05   -1.7324264E+00
   3.4855485E-04   1.1652193E+05   -1.7318533E+00
   3.5016452E-04   1.1559600E+05   -1.7312804E+00
   3.5178161E-04   1.1467773E+05   -1.7307077E+00
   3.5340618E-04   1.1376705E+05   -1.7301352E+00
   3.5503824E-04   1.1286391E+05   -1.7295629E+00
   3.5667785E-04   1.1196823E+05   -1.7289908E+00
   3.5832502E-04   1.1107994E+05   -1.7284190E+00
   3.5997981E-04   1.1019900E+05   -1.7278473E+00
   3.6164223E-04   1.0932533E+05   -1.7272759E+00
   3.6331233E-04   1.0845888E+05   -1.7267048E+00
   3.6499015E-04   1.0759957E+05   -1.7261338E+00
   3.6667571E-04   1.0674735E+05   -1.7255632E+00
   3.6836906E-04   1.0590216E+05   -1.7249928E+00
   3.7007022E-04   1.0506394E+05   -1.7244226E+00
   3.7177925E-04   1.0423263E+05   -1.7238527E+00
   3.7349616E-04   1.0340816E+05   -1.7232831E+00
   3.7522101E-04   1.0259049E+05   -1.7227138E+00
   3.7695382E-04   1.0177955E+05   -1.7221448E+00
   3.7869463E-04   1.0097528E+05   -1.7215760E+00
   3.8044348E-04   1.0017764E+05   -1.7210075E+00
   3.8220041E-04   9.9386549E+04   -1.7204394E+00
   3.8396545E-04   9.8601967E+04   -1.7198716E+00
   3.8573864E-04   9.7823834E+04   -1.7193040E+00
   3.8752002E-04   9.7052096E+04   -1.7187368E+00
   3.8930963E-04   9.6286698E+04   -1.7181699E+00
   3.9110750E-04   9.5527586E+04   -1.7176034E+00
   3.9291368E-04   9.4774706E+04   -1.7170372E+00
   3.9472820E-04   9.4028004E+04   -1.7164713E+00
   3.9655109E-04   9.3287429E+04   -1.7159058E+00
   3.9838241E-04   9.2552927E+04   -1.7153406E+00
   4.0022218E-04   9.1824448E+04   -1.7147758E+00
   4.0207045E-04   9.1101940E+04   -1.7142114E+00
   4.0392725E-04   9.0385352E+04   -1.7136473E+00
   4.0579263E-04   8.9674633E+04   -1.7130836E+00
   4.0766662E-04   8.8969734E+04   -1.7125203E+00
   4.0954927E-04   8.8270604E+04   -1.7119574E+00
   4.1144061E-04   8.7577196E+04   -1.7113949E+00
   4.1334068E-04   8.6889460E+04   -1.7108327E+00
   4.1524953E-04   8.6207347E+04   -1.7102710E+00
   4.1716720E-04   8.5530811E+04   -1.7097097E+00
   4.1909372E-04   8.4859803E+04   -1.7091488E+00
   4.2102914E-04   8.4194277E+04   -1.7085883E+00
   4.2297350E-04   8.3534186E+04   -1.7080283E+00
   4.2492683E-04   8.2879485E+04   -1.7074687E+00
   4.2688919E-04   8.2230126E+04   -1.7069095E+00
   4.2886061E-04   8.1586065E+04   -1.7063507E+00
   4.3084113E-04   8.0947258E+04   -1.7057925E+00
   4.3283080E-04   8.0313658E+04   -1.7052346E+00
   4.3482966E-04   7.9685222E+04   -1.7046772E+00
   4.3683775E-04   7.9061907E+04   -1.7041203E+00
   4.3885511E-04   7.8443669E+04   -1.7035639E+00
   4.4088179E-04   7.7830464E+04   -1.7030079E+00
   4.4291783E-04   7.7222251E+04   -1.7024524E+00
   4.4496327E-04   7.6618987E+04   -1.7018974E+00
   4.4701816E-04   7.6020630E+04   -1.7013429E+00
   4.4908253E-04   7.5427138E+04   -1.7007889E+00
   4.5115644E-04   7.4838470E+04   -1.7002354E+00
   4.5323993E-04   7.4254586E+04   -1.6996824E+00
   4.5533304E-04   7.3675446E+04   -1.6991299E+00
   4.5743582E-04   7.3101008E+04   -1.6985779E+00
   4.5954830E-04   7.2531233E+04   -1.6980265E+00
   4.6167054E-04   7.1966082E+04   -1.6974756E+00
   4.6380259E-04   7.1405516E+04   -1.6969252E+00
   4.6594448E-04   7.0849496E+04   -1.6963753E+00
   4.6809626E-04   7.0297983E+04   -1.6958260E+00
   4.7025797E-04   6.9750940E+04   -1.6952772E+00
   4.7242967E-04   6.9208329E+04   -1.6947290E+00
   4.7461140E-04   6.8670113E+04   -1.6941813E+00
   4.7680321E-04   6.8136253E+04   -1.6936342E+00
   4.7900514E-04   6.7606715E+04   -1.6930877E+00
   4.8121723E-04   6.7081460E+04   -1.6925418E+00
   4.8343954E-04   6.6560454E+04   -1.6919964E+00
   4.8567212E-04   6.6043661E+04   -1.6914516E+00
   4.8791500E-04   6.5531044E+04   -1.6909074E+00
   4.9016825E-04   6.5022569E+04   -1.6903637E+00
   4.9243189E-04   6.4518201E+04   -1.6898207E+00
   4.9470600E-04   6.4017906E+04   -1.6892783E+00
   4.9699060E-04   6.3521648E+04   -1.6887365E+00
   4.9928575E-04   6.3029395E+04   -1.6881953E+00
   5.0159151E-04   6.2541112E+04   -1.6876547E+00
   5.0390791E-04   6.2056766E+04   -1.6871147E+00
   5.0623501E-04   6.1576324E+04   -1.6865753E+00
   5.0857286E-04   6.1099754E+04   -1.6860366E+00
   5.1092150E-04   6.0627023E+04   -1.6854985E+00
   5.1328099E-04   6.0158098E+04   -1.6849611E+00
   5.1565137E-04   5.9692948E+04   -1.6844243E+00
   5.1803270E-04   5.9231541E+04   -1.6838881E+00
   5.2042503E-04   5.8773845E+04   -1.6833526E+00
   5.2282841E-04   5.8319830E+04   -1.6828178E+00
   5.2524289E-04   5.7869465E+04   -1.6822836E+00
   5.2766851E-04   5.7422718E+04   -1.6817500E+00
   5.3010534E-04   5.6979561E+04   -1.6812172E+00
   5.3255342E-04   5.6539962E+04   -1.6806850E+00
   5.3501281E-04   5.6103893E+04   -1.6801535E+00
   5.3748356E-04   5.5671322E+04   -1.6796227E+00
   5.3996571E-04   5.5242222E+04   -1.6790926E+00
   5.4245933E-04   5.4816564E+04   -1.6785631E+00
   5.4496446E-04   5.4394317E+04   -1.6780344E+00
   5.4748117E-04   5.3975455E+04   -1.6775063E+00
   5.5000949E-04   5.3559948E+04   -1.6769790E+00
   5.5254949E-04   5.3147769E+04   -1.6764523E+00
   5.5510123E-04   5.2738890E+04   -1.6759264E+00
   5.5766474E-04   5.2333283E+04   -1.6754012E+00
   5.6024010E-04   5.1930921E+04   -1.6748767E+00
   5.6282734E-04   5.1531778E+04   -1.6743530E+00
   5.6542654E-04   5.1135825E+04   -1.6738299E+00
   5.6803774E-04   5.0743037E+04   -1.6733076E+00
   5.7066099E-04   5.0353387E+04   -1.6727861E+00
   5.7329637E-04   4.9966849E+04   -1.6722652E+00
   5.7594391E-04   4.9583397E+04   -1.6717452E+00
   5.7860368E-04   4.9203006E+04   -1.6712258E+00
   5.8127573E-04   4.8825650E+04   -1.6707072E+00
   5.8396012E-04   4.8451303E+04   -1.6701894E+00
   5.8665691E-04   4.8079942E+04   -1.6696724E+00
   5.8936616E-04   4.7711540E+04   -1.6691561E+00
   5.9208791E-04   4.7346073E+04   -1.6686405E+00
   5.9482223E-04   4.6983518E+04   -1.6681258E+00
   5.9756919E-04   4.6623849E+04   -1.6676118E+00
   6.0032882E-04   4.6267043E+04   -1.6670986E+00
   6.0310120E-04   4.5913076E+04   -1.6665861E+00
   6.0588639E-04   4.5561925E+04   -1.6660745E+00
   6.0868443E-04   4.5213566E+04   -1.6655637E+00
   6.1149540E-04   4.4867976E+04   -1.6650536E+00
   6.1431935E-04   4.4525132E+04   -1.6645443E+00
   6.1715634E-04   4.4185011E+04   -1.6640359E+00
   6.2000644E-04   4.3847591E+04   -1.6635282E+00
   6.2286969E-04   4.3512850E+04   -1.6630214E+00
