#        a       HoverH0(a)       dlogHdloga_of_a(a)
   1.0000000E-04   1.1726026E+06   -1.8675626E+00
   1.0046181E-04   1.1625572E+06   -1.8671135E+00
   1.0092575E-04   1.1526002E+06   -1.8666634E+00
   1.0139184E-04   1.1427308E+06   -1.8662124E+00
   1.0186008E-04   1.1329483E+06   -1.8657605E+00
   1.0233048E-04   1.1232519E+06   -1.8653075E+00
   1.0280305E-04   1.1136408E+06   -1.8648536E+00
   1.0327781E-04   1.1041142E+06   -1.8643987E+00
   1.0375475E-04   1.0946715E+06   -1.8639429E+00
   1.0423390E-04   1.0853118E+06   -1.8634861E+00
   1.0471527E-04   1.0760343E+06   -1.8630284E+00
   1.0519885E-04   1.0668385E+06   -1.8625697E+00
   1.0568467E-04   1.0577234E+06   -1.8621100E+00
   1.0617274E-04   1.0486885E+06   -1.8616494E+00
   1.0666305E-04   1.0397329E+06   -1.8611878E+00
   1.0715563E-04   1.0308561E+06   -1.8607253E+00
   1.0765049E-04   1.0220572E+06   -1.8602619E+00
   1.0814763E-04   1.0133355E+06   -1.8597975E+00
   1.0864707E-04   1.0046904E+06   -1.8593322E+00
   1.0914881E-04   9.9612127E+05   -1.8588659E+00
   1.0965287E-04   9.8762731E+05   -1.8583987E+00
   1.1015926E-04   9.7920788E+05   -1.8579306E+00
   1.1066799E-04   9.7086233E+05   -1.8574615E+00
   1.1117906E-04   9.6258998E+05   -1.8569915E+00
   1.1169250E-04   9.5439019E+05   -1.8565206E+00
   1.1220831E-04   9.4626231E+05   -1.8560487E+00
   1.1272650E-04   9.3820568E+05   -1.8555759E+00
   1.1324708E-04   9.3021968E+05   -1.8551022E+00
   1.1377007E-04   9.2230367E+05   -1.8546276E+00
   1.1429547E-04   9.1445703E+05   -1.8541521E+00
   1.1482330E-04   9.0667914E+05   -1.8536756E+00
   1.1535356E-04   8.9896937E+05   -1.8531983E+00
   1.1588628E-04   8.9132712E+05   -1.8527200E+00
   1.1642145E-04   8.8375179E+05   -1.8522408E+00
   1.1695910E-04   8.7624278E+05   -1.8517608E+00
   1.1749923E-04   8.6879950E+05   -1.8512798E+00
   1.1804185E-04   8.6142135E+05   -1.8507979E+00
   1.1858698E-04   8.5410775E+05   -1.8503151E+00
   1.1913463E-04   8.4685814E+05   -1.8498315E+00
   1.1968481E-04   8.3967193E+05   -1.8493469E+00
   1.2023752E-04   8.3254857E+05   -1.8488615E+00
   1.2079279E-04   8.2548748E+05   -1.8483751E+00
   1.2135063E-04   8.1848812E+05   -1.8478879E+00
   1.2191104E-04   8.1154993E+05   -1.8473998E+00
   1.2247403E-04   8.0467237E+05   -1.8469109E+00
   1.2303963E-04   7.9785488E+05   -1.8464210E+00
   1.2360784E-04   7.9109695E+05   -1.8459303E+00
   1.2417868E-04   7.8439803E+05   -1.8454387E+00
   1.2475215E-04   7.7775760E+05   -1.8449463E+00
   1.2532826E-04   7.7117513E+05   -1.8444529E+00
   1.2590704E-04   7.6465012E+05   -1.8439588E+00
   1.2648850E-04   7.5818204E+05   -1.8434637E+00
   1.2707263E-04   7.5177039E+05   -1.8429679E+00
   1.2765947E-04   7.4541466E+05   -1.8424711E+00
   1.2824901E-04   7.3911437E+05   -1.8419735E+00
   1.2884128E-04   7.3286900E+05   -1.8414751E+00
   1.2943628E-04   7.2667808E+05   -1.8409759E+00
   1.3003403E-04   7.2054112E+05   -1.8404757E+00
   1.3063454E-04   7.1445763E+05   -1.8399748E+00
   1.3123783E-04   7.0842714E+05   -1.8394730E+00
   1.3184390E-04   7.0244917E+05   -1.8389704E+00
   1.3245277E-04   6.9652327E+05   -1.8384670E+00
   1.3306445E-04   6.9064895E+05   -1.8379628E+00
   1.3367895E-04   6.8482578E+05   -1.8374577E+00
   1.3429630E-04   6.7905328E+05   -1.8369518E+00
   1.3491649E-04   6.7333101E+05   -1.8364451E+00
   1.3553955E-04   6.6765852E+05   -1.8359376E+00
   1.3616548E-04   6.6203537E+05   -1.8354293E+00
   1.3679431E-04   6.5646112E+05   -1.8349202E+00
   1.3742604E-04   6.5093533E+05   -1.8344103E+00
   1.3806069E-04   6.4545757E+05   -1.8338996E+00
   1.3869827E-04   6.4002741E+05   -1.8333881E+00
   1.3933879E-04   6.3464444E+05   -1.8328759E+00
   1.3998227E-04   6.2930822E+05   -1.8323628E+00
   1.4062872E-04   6.2401835E+05   -1.8318490E+00
   1.4127816E-04   6.1877441E+05   -1.8313344E+00
   1.4193060E-04   6.1357599E+05   -1.8308190E+00
   1.4258605E-04   6.0842269E+05   -1.8303028E+00
   1.4324453E-04   6.0331411E+05   -1.8297859E+00
   1.4390605E-04   5.9824985E+05   -1.8292682E+00
   1.4457062E-04   5.9322951E+05   -1.8287498E+00
   1.4523826E-04   5.8825272E+05   -1.8282306E+00
   1.4590899E-04   5.8331907E+05   -1.8277107E+00
   1.4658281E-04   5.7842818E+05   -1.8271900E+00
   1.4725974E-04   5.7357968E+05   -1.8266686E+00
   1.4793981E-04   5.6877319E+05   -1.8261464E+00
   1.4862301E-04   5.6400833E+05   -1.8256235E+00
   1.4930936E-04   5.5928474E+05   -1.8250999E+00
   1.4999889E-04   5.5460204E+05   -1.8245755E+00
   1.5069160E-04   5.4995989E+05   -1.8240505E+00
   1.5138751E-04   5.4535791E+05   -1.8235247E+00
   1.5208663E-04   5.4079575E+05   -1.8229982E+00
   1.5278899E-04   5.3627305E+05   -1.8224710E+00
   1.5349458E-04   5.3178947E+05   -1.8219430E+00
   1.5420343E-04   5.2734467E+05   -1.8214144E+00
   1.5491556E-04   5.2293828E+05   -1.8208851E+00
   1.5563098E-04   5.1856998E+05   -1.8203551E+00
   1.5634970E-04   5.1423943E+05   -1.8198244E+00
   1.5707174E-04   5.0994629E+05   -1.8192930E+00
   1.5779711E-04   5.0569023E+05   -1.8187610E+00
   1.5852584E-04   5.0147092E+05   -1.8182283E+00
   1.5925792E-04   4.9728804E+05   -1.8176949E+00
   1.5999339E-04   4.9314126E+05   -1.8171608E+00
   1.6073226E-04   4.8903026E+05   -1.8166261E+00
   1.6147454E-04   4.8495473E+05   -1.8160907E+00
   1.6222024E-04   4.8091435E+05   -1.8155546E+00
   1.6296939E-04   4.7690881E+05   -1.8150179E+00
   1.6372200E-04   4.7293781E+05   -1.8144806E+00
   1.6447809E-04   4.6900103E+05   -1.8139426E+00
   1.6523767E-04   4.6509817E+05   -1.8134040E+00
   1.6600075E-04   4.6122894E+05   -1.8128648E+00
   1.6676736E-04   4.5739304E+05   -1.8123249E+00
   1.6753751E-04   4.5359016E+05   -1.8117845E+00
   1.6831122E-04   4.4982002E+05   -1.8112434E+00
   1.6908849E-04   4.4608234E+05   -1.8107017E+00
   1.6986936E-04   4.4237681E+05   -1.8101593E+00
   1.7065384E-04   4.3870317E+05   -1.8096164E+00
   1.7144193E-04   4.3506111E+05   -1.8090729E+00
   1.7223367E-04   4.3145038E+05   -1.8085288E+00
   1.7302906E-04   4.2787069E+05   -1.8079841E+00
   1.7382813E-04   4.2432176E+05   -1.8074388E+00
   1.7463089E-04   4.2080333E+05   -1.8068930E+00
   1.7543735E-04   4.1731512E+05   -1.8063466E+00
   1.7624754E-04   4.1385687E+05   -1.8057996E+00
   1.7706147E-04   4.1042831E+05   -1.8052520E+00
   1.7787916E-04   4.0702918E+05   -1.8047039E+00
   1.7870062E-04   4.0365922E+05   -1.8041552E+00
   1.7952588E-04   4.0031818E+05   -1.8036060E+00
   1.8035495E-04   3.9700580E+05   -1.8030562E+00
   1.8118785E-04   3.9372182E+05   -1.8025059E+00
   1.8202459E-04   3.9046599E+05   -1.8019551E+00
   1.8286520E-04   3.8723808E+05   -1.8014038E+00
   1.8370969E-04   3.8403782E+05   -1.8008519E+00
   1.8455808E-04   3.8086498E+05   -1.8002995E+00
   1.8541039E-04   3.7771932E+05   -1.7997466E+00
   1.8626663E-04   3.7460059E+05   -1.7991931E+00
   1.8712683E-04   3.7150856E+05   -1.7986392E+00
   1.8799100E-04   3.6844299E+05   -1.7980848E+00
   1.8885917E-04   3.6540366E+05   -1.7975299E+00
   1.8973134E-04   3.6239032E+05   -1.7969745E+00
   1.9060754E-04   3.5940275E+05   -1.7964186E+00
   1.9148778E-04   3.5644072E+05   -1.7958623E+00
   1.9237209E-04   3.5350402E+05   -1.7953054E+00
   1.9326049E-04   3.5059240E+05   -1.7947481E+00
   1.9415299E-04   3.4770567E+05   -1.7941904E+00
   1.9504960E-04   3.4484358E+05   -1.7936322E+00
   1.9595036E-04   3.4200594E+05   -1.7930735E+00
   1.9685528E-04   3.3919252E+05   -1.7925144E+00
   1.9776438E-04   3.3640311E+05   -1.7919549E+00
   1.9867768E-04   3.3363751E+05   -1.7913949E+00
   1.9959519E-04   3.3089549E+05   -1.7908345E+00
   2.0051694E-04   3.2817685E+05   -1.7902737E+00
   2.0144295E-04   3.2548139E+05   -1.7897125E+00
   2.0237324E-04   3.2280891E+05   -1.7891508E+00
   2.0330782E-04   3.2015920E+05   -1.7885888E+00
   2.0424671E-04   3.1753206E+05   -1.7880263E+00
   2.0518995E-04   3.1492729E+05   -1.7874635E+00
   2.0613754E-04   3.1234471E+05   -1.7869002E+00
   2.0708950E-04   3.0978410E+05   -1.7863366E+00
   2.0804586E-04   3.0724529E+05   -1.7857726E+00
   2.0900664E-04   3.0472807E+05   -1.7852082E+00
   2.0997185E-04   3.0223226E+05   -1.7846435E+00
   2.1094152E-04   2.9975768E+05   -1.7840784E+00
   2.1191567E-04   2.9730413E+05   -1.7835129E+00
   2.1289432E-04   2.9487143E+05   -1.7829471E+00
   2.1387749E-04   2.9245940E+05   -1.7823810E+00
   2.1486520E-04   2.9006786E+05   -1.7818145E+00
   2.1585747E-04   2.8769662E+05   -1.7812477E+00
   2.1685432E-04   2.8534552E+05   -1.7806805E+00
   2.1785578E-04   2.8301436E+05   -1.7801131E+00
   2.1886186E-04   2.8070299E+05   -1.7795453E+00
   2.1987259E-04   2.7841122E+05   -1.7789772E+00
   2.2088798E-04   2.7613889E+05   -1.7784088E+00
   2.2190807E-04   2.7388582E+05   -1.7778401E+00
   2.2293286E-04   2.7165184E+05   -1.7772711E+00
   2.2396239E-04   2.6943679E+05   -1.7767018E+00
   2.2499667E-04   2.6724051E+05   -1.7761323E+00
   2.2603573E-04   2.6506282E+05   -1.7755625E+00
   2.2707958E-04   2.6290357E+05   -1.7749924E+00
   2.2812826E-04   2.6076260E+05   -1.7744220E+00
   2.2918178E-04   2.5863974E+05   -1.7738514E+00
   2.3024017E-04   2.5653483E+05   -1.7732805E+00
   2.3130344E-04   2.5444773E+05   -1.7727094E+00
   2.3237162E-04   2.5237827E+05   -1.7721381E+00
   2.3344474E-04   2.5032630E+05   -1.7715665E+00
   2.3452281E-04   2.4829167E+05   -1.7709947E+00
   2.3560586E-04   2.4627422E+05   -1.7704226E+00
   2.3669392E-04   2.4427382E+05   -1.7698504E+00
   2.3778699E-04   2.4229029E+05   -1.7692779E+00
   2.3888512E-04   2.4032351E+05   -1.7687052E+00
   2.3998831E-04   2.3837333E+05   -1.7681324E+00
   2.4109661E-04   2.3643959E+05   -1.7675593E+00
   2.4221001E-04   2.3452216E+05   -1.7669861E+00
   2.4332857E-04   2.3262089E+05   -1.7664127E+00
   2.4445228E-04   2.3073565E+05   -1.7658391E+00
   2.4558119E-04   2.2886629E+05   -1.7652653E+00
   2.4671531E-04   2.2701267E+05   -1.7646914E+00
   2.4785467E-04   2.2517467E+05   -1.7641173E+00
   2.4899928E-04   2.2335213E+05   -1.7635431E+00
   2.5014919E-04   2.2154494E+05   -1.7629687E+00
   2.5130440E-04   2.1975295E+05   -1.7623942E+00
   2.5246495E-04   2.1797602E+05   -1.7618195E+00
   2.5363086E-04   2.1621404E+05   -1.7612448E+00
   2.5480216E-04   2.1446688E+05   -1.7606699E+00
   2.5597886E-04   2.1273439E+05   -1.7600949E+00
   2.5716100E-04   2.1101646E+05   -1.7595198E+00
   2.5834859E-04   2.0931295E+05   -1.7589446E+00
   2.5954168E-04   2.0762375E+05   -1.7583693E+00
   2.6074027E-04   2.0594872E+05   -1.7577939E+00
   2.6194439E-04   2.0428775E+05   -1.7572184E+00
   2.6315408E-04   2.0264072E+05   -1.7566428E+00
   2.6436935E-04   2.0100749E+05   -1.7560672E+00
   2.6559024E-04   1.9938796E+05   -1.7554915E+00
   2.6681676E-04   1.9778200E+05   -1.7549158E+00
   2.6804895E-04   1.9618950E+05   -1.7543400E+00
   2.6928683E-04   1.9461033E+05   -1.7537641E+00
   2.7053042E-04   1.9304439E+05   -1.7531882E+00
   2.7177976E-04   1.9149156E+05   -1.7526123E+00
   2.7303487E-04   1.8995172E+05   -1.7520363E+00
   2.7429577E-04   1.8842477E+05   -1.7514604E+00
   2.7556250E-04   1.8691058E+05   -1.7508844E+00
   2.7683507E-04   1.8540906E+05   -1.7503084E+00
   2.7811353E-04   1.8392008E+05   -1.7497324E+00
   2.7939788E-04   1.8244355E+05   -1.7491564E+00
   2.8068817E-04   1.8097935E+05   -1.7485804E+00
   2.8198442E-04   1.7952738E+05   -1.7480044E+00
   2.8328665E-04   1.7808753E+05   -1.7474285E+00
   2.8459490E-04   1.7665970E+05   -1.7468525E+00
   2.8590919E-04   1.7524378E+05   -1.7462766E+00
   2.8722955E-04   1.7383967E+05   -1.7457008E+00
   2.8855600E-04   1.7244727E+05   -1.7451250E+00
   2.8988859E-04   1.7106647E+05   -1.7445492E+00
   2.9122732E-04   1.6969718E+05   -1.7439735E+00
   2.9257224E-04   1.6833930E+05   -1.7433978E+00
   2.9392337E-04   1.6699272E+05   -1.7428223E+00
   2.9528074E-04   1.6565736E+05   -1.7422468E+00
   2.9664438E-04   1.6433311E+05   -1.7416714E+00
   2.9801431E-04   1.6301988E+05   -1.7410960E+00
   2.9939057E-04   1.6171757E+05   -1.7405208E+00
   3.0077319E-04   1.6042609E+05   -1.7399457E+00
   3.0216219E-04   1.5914534E+05   -1.7393706E+00
   3.0355761E-04   1.5787524E+05   -1.7387957E+00
   3.0495947E-04   1.5661569E+05   -1.7382209E+00
   3.0636780E-04   1.5536660E+05   -1.7376463E+00
   3.0778264E-04   1.5412788E+05   -1.7370717E+00
   3.0920401E-04   1.5289944E+05   -1.7364973E+00
   3.1063195E-04   1.5168120E+05   -1.7359231E+00
   3.1206648E-04   1.5047306E+05   -1.7353489E+00
   3.1350764E-04   1.4927493E+05   -1.7347750E+00
   3.1495545E-04   1.4808674E+05   -1.7342012E+00
   3.1640994E-04   1.4690839E+05   -1.7336275E+00
   3.1787116E-04   1.4573981E+05   -1.7330541E+00
   3.1933912E-04   1.4458090E+05   -1.7324808E+00
   3.2081386E-04   1.4343159E+05   -1.7319077E+00
   3.2229541E-04   1.4229178E+05   -1.7313348E+00
   3.2378381E-04   1.4116141E+05   -1.7307621E+00
   3.2527908E-04   1.4004039E+05   -1.7301896E+00
   3.2678125E-04   1.3892864E+05   -1.7296173E+00
   3.2829036E-04   1.3782607E+05   -1.7290452E+00
   3.2980644E-04   1.3673262E+05   -1.7284733E+00
   3.3132952E-04   1.3564820E+05   -1.7279017E+00
   3.3285963E-04   1.3457273E+05   -1.7273303E+00
   3.3439681E-04   1.3350614E+05   -1.7267591E+00
   3.3594109E-04   1.3244836E+05   -1.7261882E+00
   3.3749250E-04   1.3139930E+05   -1.7256175E+00
   3.3905108E-04   1.3035889E+05   -1.7250471E+00
   3.4061685E-04   1.2932706E+05   -1.7244769E+00
   3.4218986E-04   1.2830374E+05   -1.7239070E+00
   3.4377013E-04   1.2728884E+05   -1.7233374E+00
   3.4535769E-04   1.2628231E+05   -1.7227681E+00
   3.4695259E-04   1.2528406E+05   -1.7221990E+00
   3.4855485E-04   1.2429403E+05   -1.7216303E+00
   3.5016452E-04   1.2331214E+05   -1.7210618E+00
   3.5178161E-04   1.2233834E+05   -1.7204937E+00
   3.5340618E-04   1.2137254E+05   -1.7199258E+00
   3.5503824E-04   1.2041468E+05   -1.7193583E+00
   3.5667785E-04   1.1946469E+05   -1.7187910E+00
   3.5832502E-04   1.1852250E+05   -1.7182241E+00
   3.5997981E-04   1.1758806E+05   -1.7176576E+00
   3.6164223E-04   1.1666128E+05   -1.7170914E+00
   3.6331233E-04   1.1574212E+05   -1.7165255E+00
   3.6499015E-04   1.1483049E+05   -1.7159599E+00
   3.6667571E-04   1.1392634E+05   -1.7153948E+00
   3.6836906E-04   1.1302960E+05   -1.7148299E+00
   3.7007022E-04   1.1214022E+05   -1.7142655E+00
   3.7177925E-04   1.1125812E+05   -1.7137014E+00
   3.7349616E-04   1.1038324E+05   -1.7131377E+00
   3.7522101E-04   1.0951554E+05   -1.7125744E+00
   3.7695382E-04   1.0865493E+05   -1.7120114E+00
   3.7869463E-04   1.0780136E+05   -1.7114489E+00
   3.8044348E-04   1.0695478E+05   -1.7108867E+00
   3.8220041E-04   1.0611512E+05   -1.7103250E+00
   3.8396545E-04   1.0528233E+05   -1.7097636E+00
   3.8573864E-04   1.0445634E+05   -1.7092027E+00
   3.8752002E-04   1.0363710E+05   -1.7086422E+00
   3.8930963E-04   1.0282455E+05   -1.7080822E+00
   3.9110750E-04   1.0201864E+05   -1.7075225E+00
   3.9291368E-04   1.0121930E+05   -1.7069633E+00
   3.9472820E-04   1.0042648E+05   -1.7064046E+00
   3.9655109E-04   9.9640130E+04   -1.7058462E+00
   3.9838241E-04   9.8860191E+04   -1.7052884E+00
   4.0022218E-04   9.8086608E+04   -1.7047310E+00
   4.0207045E-04   9.7319330E+04   -1.7041741E+00
   4.0392725E-04   9.6558300E+04   -1.7036176E+00
   4.0579263E-04   9.5803468E+04   -1.7030616E+00
   4.0766662E-04   9.5054780E+04   -1.7025061E+00
   4.0954927E-04   9.4312183E+04   -1.7019511E+00
   4.1144061E-04   9.3575628E+04   -1.7013965E+00
   4.1334068E-04   9.2845062E+04   -1.7008425E+00
   4.1524953E-04   9.2120434E+04   -1.7002890E+00
   4.1716720E-04   9.1401695E+04   -1.6997359E+00
   4.1909372E-04   9.0688795E+04   -1.6991834E+00
   4.2102914E-04   8.9981684E+04   -1.6986314E+00
   4.2297350E-04   8.9280313E+04   -1.6980799E+00
   4.2492683E-04   8.8584634E+04   -1.6975290E+00
   4.2688919E-04   8.7894599E+04   -1.6969785E+00
   4.2886061E-04   8.7210161E+04   -1.6964286E+00
   4.3084113E-04   8.6531271E+04   -1.6958793E+00
   4.3283080E-04   8.5857883E+04   -1.6953305E+00
   4.3482966E-04   8.5189951E+04   -1.6947823E+00
   4.3683775E-04   8.4527429E+04   -1.6942346E+00
   4.3885511E-04   8.3870270E+04   -1.6936874E+00
   4.4088179E-04   8.3218430E+04   -1.6931409E+00
   4.4291783E-04   8.2571864E+04   -1.6925949E+00
   4.4496327E-04   8.1930527E+04   -1.6920495E+00
   4.4701816E-04   8.1294376E+04   -1.6915046E+00
   4.4908253E-04   8.0663367E+04   -1.6909604E+00
   4.5115644E-04   8.0037456E+04   -1.6904167E+00
   4.5323993E-04   7.9416601E+04   -1.6898737E+00
   4.5533304E-04   7.8800759E+04   -1.6893312E+00
   4.5743582E-04   7.8189888E+04   -1.6887894E+00
   4.5954830E-04   7.7583946E+04   -1.6882481E+00
   4.6167054E-04   7.6982892E+04   -1.6877075E+00
   4.6380259E-04   7.6386684E+04   -1.6871675E+00
   4.6594448E-04   7.5795282E+04   -1.6866281E+00
   4.6809626E-04   7.5208646E+04   -1.6860893E+00
   4.7025797E-04   7.4626735E+04   -1.6855512E+00
   4.7242967E-04   7.4049511E+04   -1.6850137E+00
   4.7461140E-04   7.3476932E+04   -1.6844769E+00
   4.7680321E-04   7.2908962E+04   -1.6839407E+00
   4.7900514E-04   7.2345560E+04   -1.6834051E+00
   4.8121723E-04   7.1786689E+04   -1.6828703E+00
   4.8343954E-04   7.1232311E+04   -1.6823360E+00
   4.8567212E-04   7.0682388E+04   -1.6818025E+00
   4.8791500E-04   7.0136883E+04   -1.6812696E+00
   4.9016825E-04   6.9595758E+04   -1.6807374E+00
   4.9243189E-04   6.9058978E+04   -1.6802058E+00
   4.9470600E-04   6.8526506E+04   -1.6796750E+00
   4.9699060E-04   6.7998305E+04   -1.6791448E+00
   4.9928575E-04   6.7474340E+04   -1.6786153E+00
   5.0159151E-04   6.6954576E+04   -1.6780865E+00
   5.0390791E-04   6.6438978E+04   -1.6775584E+00
   5.0623501E-04   6.5927510E+04   -1.6770310E+00
   5.0857286E-04   6.5420139E+04   -1.6765044E+00
   5.1092150E-04   6.4916829E+04   -1.6759784E+00
   5.1328099E-04   6.4417548E+04   -1.6754531E+00
   5.1565137E-04   6.3922262E+04   -1.6749286E+00
   5.1803270E-04   6.3430937E+04   -1.6744048E+00
   5.2042503E-04   6.2943540E+04   -1.6738817E+00
   5.2282841E-04   6.2460039E+04   -1.6733594E+00
   5.2524289E-04   6.1980401E+04   -1.6728378E+00
   5.2766851E-04   6.1504593E+04   -1.6723169E+00
   5.3010534E-04   6.1032585E+04   -1.6717968E+00
   5.3255342E-04   6.0564344E+04   -1.6712774E+00
   5.3501281E-04   6.0099839E+04   -1.6707588E+00
   5.3748356E-04   5.9639039E+04   -1.6702409E+00
   5.3996571E-04   5.9181914E+04   -1.6697238E+00
   5.4245933E-04   5.8728431E+04   -1.6692075E+00
   5.4496446E-04   5.8278563E+04   -1.6686919E+00
   5.4748117E-04   5.7832278E+04   -1.6681771E+00
   5.5000949E-04   5.7389546E+04   -1.6676631E+00
   5.5254949E-04   5.6950338E+04   -1.6671498E+00
   5.5510123E-04   5.6514625E+04   -1.6666373E+00
   5.5766474E-04   5.6082378E+04   -1.6661256E+00
   5.6024010E-04   5.5653568E+04   -1.6656148E+00
   5.6282734E-04   5.5228167E+04   -1.6651046E+00
   5.6542654E-04   5.4806146E+04   -1.6645953E+00
   5.6803774E-04   5.4387478E+04   -1.6640868E+00
   5.7066099E-04   5.3972133E+04   -1.6635791E+00
   5.7329637E-04   5.3560087E+04   -1.6630722E+00
   5.7594391E-04   5.3151309E+04   -1.6625661E+00
   5.7860368E-04   5.2745775E+04   -1.6620609E+00
   5.8127573E-04   5.2343457E+04   -1.6615564E+00
   5.8396012E-04   5.1944328E+04   -1.6610528E+00
   5.8665691E-04   5.1548361E+04   -1.6605500E+00
   5.8936616E-04   5.1155532E+04   -1.6600480E+00
   5.9208791E-04   5.0765814E+04   -1.6595468E+00
   5.9482223E-04   5.0379180E+04   -1.6590465E+00
   5.9756919E-04   4.9995607E+04   -1.6585470E+00
   6.0032882E-04   4.9615068E+04   -1.6580484E+00
   6.0310120E-04   4.9237538E+04   -1.6575506E+00
   6.0588639E-04   4.8862993E+04   -1.6570536E+00
   6.0868443E-04   4.8491409E+04   -1.6565575E+00
   6.1149540E-04   4.8122760E+04   -1.6560623E+00
   6.1431935E-04   4.7757022E+04   -1.6555679E+00
   6.1715634E-04   4.7394172E+04   -1.6550743E+00
   6.2000644E-04   4.7034186E+04   -1.6545816E+00
   6.2286969E-04   4.6677039E+04   -1.6540898E+00
