#        a       HoverH0(a)       dlogHdloga_of_a(a)
   1.0000000E-04   1.2040036E+06   -1.8709644E+00
   1.0046181E-04   1.1936704E+06   -1.8705228E+00
   1.0092575E-04   1.1834283E+06   -1.8700803E+00
   1.0139184E-04   1.1732764E+06   -1.8696367E+00
   1.0186008E-04   1.1632141E+06   -1.8691921E+00
   1.0233048E-04   1.1532404E+06   -1.8687466E+00
   1.0280305E-04   1.1433546E+06   -1.8683001E+00
   1.0327781E-04   1.1335558E+06   -1.8678527E+00
   1.0375475E-04   1.1238434E+06   -1.8674042E+00
   1.0423390E-04   1.1142164E+06   -1.8669548E+00
   1.0471527E-04   1.1046742E+06   -1.8665044E+00
   1.0519885E-04   1.0952161E+06   -1.8660530E+00
   1.0568467E-04   1.0858411E+06   -1.8656007E+00
   1.0617274E-04   1.0765487E+06   -1.8651474E+00
   1.0666305E-04   1.0673380E+06   -1.8646932E+00
   1.0715563E-04   1.0582083E+06   -1.8642380E+00
   1.0765049E-04   1.0491589E+06   -1.8637818E+00
   1.0814763E-04   1.0401891E+06   -1.8633247E+00
   1.0864707E-04   1.0312982E+06   -1.8628666E+00
   1.0914881E-04   1.0224854E+06   -1.8624076E+00
   1.0965287E-04   1.0137501E+06   -1.8619476E+00
   1.1015926E-04   1.0050915E+06   -1.8614866E+00
   1.1066799E-04   9.9650900E+05   -1.8610247E+00
   1.1117906E-04   9.8800189E+05   -1.8605619E+00
   1.1169250E-04   9.7956950E+05   -1.8600981E+00
   1.1220831E-04   9.7121116E+05   -1.8596334E+00
   1.1272650E-04   9.6292619E+05   -1.8591677E+00
   1.1324708E-04   9.5471396E+05   -1.8587011E+00
   1.1377007E-04   9.4657380E+05   -1.8582336E+00
   1.1429547E-04   9.3850506E+05   -1.8577651E+00
   1.1482330E-04   9.3050712E+05   -1.8572957E+00
   1.1535356E-04   9.2257934E+05   -1.8568254E+00
   1.1588628E-04   9.1472108E+05   -1.8563541E+00
   1.1642145E-04   9.0693172E+05   -1.8558820E+00
   1.1695910E-04   8.9921066E+05   -1.8554089E+00
   1.1749923E-04   8.9155727E+05   -1.8549348E+00
   1.1804185E-04   8.8397095E+05   -1.8544599E+00
   1.1858698E-04   8.7645111E+05   -1.8539840E+00
   1.1913463E-04   8.6899714E+05   -1.8535073E+00
   1.1968481E-04   8.6160846E+05   -1.8530296E+00
   1.2023752E-04   8.5428449E+05   -1.8525510E+00
   1.2079279E-04   8.4702464E+05   -1.8520715E+00
   1.2135063E-04   8.3982835E+05   -1.8515911E+00
   1.2191104E-04   8.3269504E+05   -1.8511098E+00
   1.2247403E-04   8.2562415E+05   -1.8506276E+00
   1.2303963E-04   8.1861513E+05   -1.8501445E+00
   1.2360784E-04   8.1166741E+05   -1.8496605E+00
   1.2417868E-04   8.0478046E+05   -1.8491757E+00
   1.2475215E-04   7.9795373E+05   -1.8486899E+00
   1.2532826E-04   7.9118668E+05   -1.8482033E+00
   1.2590704E-04   7.8447877E+05   -1.8477157E+00
   1.2648850E-04   7.7782949E+05   -1.8472273E+00
   1.2707263E-04   7.7123830E+05   -1.8467380E+00
   1.2765947E-04   7.6470470E+05   -1.8462479E+00
   1.2824901E-04   7.5822815E+05   -1.8457569E+00
   1.2884128E-04   7.5180817E+05   -1.8452650E+00
   1.2943628E-04   7.4544423E+05   -1.8447722E+00
   1.3003403E-04   7.3913584E+05   -1.8442786E+00
   1.3063454E-04   7.3288250E+05   -1.8437841E+00
   1.3123783E-04   7.2668373E+05   -1.8432888E+00
   1.3184390E-04   7.2053903E+05   -1.8427926E+00
   1.3245277E-04   7.1444792E+05   -1.8422956E+00
   1.3306445E-04   7.0840993E+05   -1.8417977E+00
   1.3367895E-04   7.0242458E+05   -1.8412990E+00
   1.3429630E-04   6.9649140E+05   -1.8407994E+00
   1.3491649E-04   6.9060993E+05   -1.8402990E+00
   1.3553955E-04   6.8477971E+05   -1.8397978E+00
   1.3616548E-04   6.7900027E+05   -1.8392957E+00
   1.3679431E-04   6.7327117E+05   -1.8387928E+00
   1.3742604E-04   6.6759196E+05   -1.8382891E+00
   1.3806069E-04   6.6196219E+05   -1.8377846E+00
   1.3869827E-04   6.5638143E+05   -1.8372792E+00
   1.3933879E-04   6.5084923E+05   -1.8367730E+00
   1.3998227E-04   6.4536516E+05   -1.8362661E+00
   1.4062872E-04   6.3992880E+05   -1.8357583E+00
   1.4127816E-04   6.3453972E+05   -1.8352497E+00
   1.4193060E-04   6.2919750E+05   -1.8347403E+00
   1.4258605E-04   6.2390171E+05   -1.8342301E+00
   1.4324453E-04   6.1865196E+05   -1.8337191E+00
   1.4390605E-04   6.1344783E+05   -1.8332074E+00
   1.4457062E-04   6.0828891E+05   -1.8326948E+00
   1.4523826E-04   6.0317480E+05   -1.8321815E+00
   1.4590899E-04   5.9810510E+05   -1.8316674E+00
   1.4658281E-04   5.9307942E+05   -1.8311525E+00
   1.4725974E-04   5.8809737E+05   -1.8306368E+00
   1.4793981E-04   5.8315855E+05   -1.8301204E+00
   1.4862301E-04   5.7826258E+05   -1.8296032E+00
   1.4930936E-04   5.7340909E+05   -1.8290853E+00
   1.4999889E-04   5.6859769E+05   -1.8285666E+00
   1.5069160E-04   5.6382801E+05   -1.8280471E+00
   1.5138751E-04   5.5909968E+05   -1.8275269E+00
   1.5208663E-04   5.5441233E+05   -1.8270060E+00
   1.5278899E-04   5.4976560E+05   -1.8264843E+00
   1.5349458E-04   5.4515913E+05   -1.8259618E+00
   1.5420343E-04   5.4059256E+05   -1.8254387E+00
   1.5491556E-04   5.3606553E+05   -1.8249148E+00
   1.5563098E-04   5.3157770E+05   -1.8243902E+00
   1.5634970E-04   5.2712872E+05   -1.8238649E+00
   1.5707174E-04   5.2271823E+05   -1.8233388E+00
   1.5779711E-04   5.1834591E+05   -1.8228121E+00
   1.5852584E-04   5.1401140E+05   -1.8222846E+00
   1.5925792E-04   5.0971438E+05   -1.8217564E+00
   1.5999339E-04   5.0545452E+05   -1.8212276E+00
   1.6073226E-04   5.0123147E+05   -1.8206980E+00
   1.6147454E-04   4.9704493E+05   -1.8201678E+00
   1.6222024E-04   4.9289455E+05   -1.8196368E+00
   1.6296939E-04   4.8878003E+05   -1.8191052E+00
   1.6372200E-04   4.8470105E+05   -1.8185729E+00
   1.6447809E-04   4.8065728E+05   -1.8180399E+00
   1.6523767E-04   4.7664843E+05   -1.8175063E+00
   1.6600075E-04   4.7267417E+05   -1.8169720E+00
   1.6676736E-04   4.6873420E+05   -1.8164370E+00
   1.6753751E-04   4.6482822E+05   -1.8159014E+00
   1.6831122E-04   4.6095593E+05   -1.8153652E+00
   1.6908849E-04   4.5711702E+05   -1.8148282E+00
   1.6986936E-04   4.5331121E+05   -1.8142907E+00
   1.7065384E-04   4.4953820E+05   -1.8137525E+00
   1.7144193E-04   4.4579769E+05   -1.8132136E+00
   1.7223367E-04   4.4208941E+05   -1.8126742E+00
   1.7302906E-04   4.3841307E+05   -1.8121341E+00
   1.7382813E-04   4.3476838E+05   -1.8115934E+00
   1.7463089E-04   4.3115507E+05   -1.8110521E+00
   1.7543735E-04   4.2757285E+05   -1.8105102E+00
   1.7624754E-04   4.2402146E+05   -1.8099676E+00
   1.7706147E-04   4.2050061E+05   -1.8094245E+00
   1.7787916E-04   4.1701005E+05   -1.8088808E+00
   1.7870062E-04   4.1354949E+05   -1.8083365E+00
   1.7952588E-04   4.1011868E+05   -1.8077916E+00
   1.8035495E-04   4.0671736E+05   -1.8072461E+00
   1.8118785E-04   4.0334525E+05   -1.8067000E+00
   1.8202459E-04   4.0000212E+05   -1.8061534E+00
   1.8286520E-04   3.9668769E+05   -1.8056062E+00
   1.8370969E-04   3.9340172E+05   -1.8050584E+00
   1.8455808E-04   3.9014395E+05   -1.8045101E+00
   1.8541039E-04   3.8691414E+05   -1.8039613E+00
   1.8626663E-04   3.8371204E+05   -1.8034118E+00
   1.8712683E-04   3.8053740E+05   -1.8028619E+00
   1.8799100E-04   3.7738999E+05   -1.8023114E+00
   1.8885917E-04   3.7426955E+05   -1.8017604E+00
   1.8973134E-04   3.7117586E+05   -1.8012088E+00
   1.9060754E-04   3.6810868E+05   -1.8006568E+00
   1.9148778E-04   3.6506777E+05   -1.8001042E+00
   1.9237209E-04   3.6205291E+05   -1.7995511E+00
   1.9326049E-04   3.5906386E+05   -1.7989975E+00
   1.9415299E-04   3.5610039E+05   -1.7984434E+00
   1.9504960E-04   3.5316228E+05   -1.7978888E+00
   1.9595036E-04   3.5024932E+05   -1.7973337E+00
   1.9685528E-04   3.4736127E+05   -1.7967781E+00
   1.9776438E-04   3.4449791E+05   -1.7962221E+00
   1.9867768E-04   3.4165903E+05   -1.7956656E+00
   1.9959519E-04   3.3884442E+05   -1.7951086E+00
   2.0051694E-04   3.3605385E+05   -1.7945511E+00
   2.0144295E-04   3.3328713E+05   -1.7939932E+00
   2.0237324E-04   3.3054403E+05   -1.7934348E+00
   2.0330782E-04   3.2782435E+05   -1.7928760E+00
   2.0424671E-04   3.2512789E+05   -1.7923167E+00
   2.0518995E-04   3.2245444E+05   -1.7917571E+00
   2.0613754E-04   3.1980379E+05   -1.7911969E+00
   2.0708950E-04   3.1717576E+05   -1.7906364E+00
   2.0804586E-04   3.1457013E+05   -1.7900754E+00
   2.0900664E-04   3.1198672E+05   -1.7895140E+00
   2.0997185E-04   3.0942532E+05   -1.7889522E+00
   2.1094152E-04   3.0688575E+05   -1.7883900E+00
   2.1191567E-04   3.0436780E+05   -1.7878274E+00
   2.1289432E-04   3.0187130E+05   -1.7872644E+00
   2.1387749E-04   2.9939606E+05   -1.7867011E+00
   2.1486520E-04   2.9694188E+05   -1.7861373E+00
   2.1585747E-04   2.9450858E+05   -1.7855732E+00
   2.1685432E-04   2.9209598E+05   -1.7850087E+00
   2.1785578E-04   2.8970390E+05   -1.7844438E+00
   2.1886186E-04   2.8733216E+05   -1.7838786E+00
   2.1987259E-04   2.8498058E+05   -1.7833130E+00
   2.2088798E-04   2.8264898E+05   -1.7827470E+00
   2.2190807E-04   2.8033719E+05   -1.7821808E+00
   2.2293286E-04   2.7804503E+05   -1.7816142E+00
   2.2396239E-04   2.7577233E+05   -1.7810472E+00
   2.2499667E-04   2.7351892E+05   -1.7804800E+00
   2.2603573E-04   2.7128464E+05   -1.7799124E+00
   2.2707958E-04   2.6906931E+05   -1.7793445E+00
   2.2812826E-04   2.6687277E+05   -1.7787763E+00
   2.2918178E-04   2.6469486E+05   -1.7782078E+00
   2.3024017E-04   2.6253540E+05   -1.7776390E+00
   2.3130344E-04   2.6039425E+05   -1.7770699E+00
   2.3237162E-04   2.5827124E+05   -1.7765005E+00
   2.3344474E-04   2.5616620E+05   -1.7759309E+00
   2.3452281E-04   2.5407900E+05   -1.7753609E+00
   2.3560586E-04   2.5200946E+05   -1.7747907E+00
   2.3669392E-04   2.4995743E+05   -1.7742203E+00
   2.3778699E-04   2.4792277E+05   -1.7736496E+00
   2.3888512E-04   2.4590531E+05   -1.7730786E+00
   2.3998831E-04   2.4390491E+05   -1.7725074E+00
   2.4109661E-04   2.4192142E+05   -1.7719360E+00
   2.4221001E-04   2.3995470E+05   -1.7713643E+00
   2.4332857E-04   2.3800459E+05   -1.7707924E+00
   2.4445228E-04   2.3607095E+05   -1.7702203E+00
   2.4558119E-04   2.3415364E+05   -1.7696479E+00
   2.4671531E-04   2.3225251E+05   -1.7690754E+00
   2.4785467E-04   2.3036742E+05   -1.7685027E+00
   2.4899928E-04   2.2849824E+05   -1.7679297E+00
   2.5014919E-04   2.2664483E+05   -1.7673566E+00
   2.5130440E-04   2.2480704E+05   -1.7667833E+00
   2.5246495E-04   2.2298474E+05   -1.7662098E+00
   2.5363086E-04   2.2117780E+05   -1.7656362E+00
   2.5480216E-04   2.1938608E+05   -1.7650623E+00
   2.5597886E-04   2.1760945E+05   -1.7644883E+00
   2.5716100E-04   2.1584778E+05   -1.7639142E+00
   2.5834859E-04   2.1410093E+05   -1.7633399E+00
   2.5954168E-04   2.1236879E+05   -1.7627655E+00
   2.6074027E-04   2.1065122E+05   -1.7621909E+00
   2.6194439E-04   2.0894809E+05   -1.7616162E+00
   2.6315408E-04   2.0725928E+05   -1.7610414E+00
   2.6436935E-04   2.0558466E+05   -1.7604665E+00
   2.6559024E-04   2.0392412E+05   -1.7598914E+00
   2.6681676E-04   2.0227752E+05   -1.7593163E+00
   2.6804895E-04   2.0064475E+05   -1.7587410E+00
   2.6928683E-04   1.9902569E+05   -1.7581657E+00
   2.7053042E-04   1.9742022E+05   -1.7575903E+00
   2.7177976E-04   1.9582821E+05   -1.7570148E+00
   2.7303487E-04   1.9424956E+05   -1.7564392E+00
   2.7429577E-04   1.9268415E+05   -1.7558635E+00
   2.7556250E-04   1.9113186E+05   -1.7552878E+00
   2.7683507E-04   1.8959258E+05   -1.7547120E+00
   2.7811353E-04   1.8806619E+05   -1.7541362E+00
   2.7939788E-04   1.8655259E+05   -1.7535603E+00
   2.8068817E-04   1.8505166E+05   -1.7529844E+00
   2.8198442E-04   1.8356329E+05   -1.7524085E+00
   2.8328665E-04   1.8208737E+05   -1.7518325E+00
   2.8459490E-04   1.8062381E+05   -1.7512565E+00
   2.8590919E-04   1.7917248E+05   -1.7506805E+00
   2.8722955E-04   1.7773329E+05   -1.7501045E+00
   2.8855600E-04   1.7630612E+05   -1.7495285E+00
   2.8988859E-04   1.7489088E+05   -1.7489525E+00
   2.9122732E-04   1.7348745E+05   -1.7483765E+00
   2.9257224E-04   1.7209575E+05   -1.7478006E+00
   2.9392337E-04   1.7071567E+05   -1.7472246E+00
   2.9528074E-04   1.6934710E+05   -1.7466487E+00
   2.9664438E-04   1.6798994E+05   -1.7460728E+00
   2.9801431E-04   1.6664411E+05   -1.7454969E+00
   2.9939057E-04   1.6530950E+05   -1.7449211E+00
   3.0077319E-04   1.6398601E+05   -1.7443454E+00
   3.0216219E-04   1.6267355E+05   -1.7437697E+00
   3.0355761E-04   1.6137202E+05   -1.7431941E+00
   3.0495947E-04   1.6008132E+05   -1.7426185E+00
   3.0636780E-04   1.5880138E+05   -1.7420431E+00
   3.0778264E-04   1.5753208E+05   -1.7414677E+00
   3.0920401E-04   1.5627335E+05   -1.7408924E+00
   3.1063195E-04   1.5502508E+05   -1.7403172E+00
   3.1206648E-04   1.5378719E+05   -1.7397421E+00
   3.1350764E-04   1.5255959E+05   -1.7391671E+00
   3.1495545E-04   1.5134219E+05   -1.7385922E+00
   3.1640994E-04   1.5013490E+05   -1.7380174E+00
   3.1787116E-04   1.4893764E+05   -1.7374428E+00
   3.1933912E-04   1.4775031E+05   -1.7368683E+00
   3.2081386E-04   1.4657284E+05   -1.7362939E+00
   3.2229541E-04   1.4540514E+05   -1.7357197E+00
   3.2378381E-04   1.4424712E+05   -1.7351457E+00
   3.2527908E-04   1.4309871E+05   -1.7345717E+00
   3.2678125E-04   1.4195981E+05   -1.7339980E+00
   3.2829036E-04   1.4083035E+05   -1.7334244E+00
   3.2980644E-04   1.3971024E+05   -1.7328510E+00
   3.3132952E-04   1.3859941E+05   -1.7322778E+00
   3.3285963E-04   1.3749777E+05   -1.7317048E+00
   3.3439681E-04   1.3640525E+05   -1.7311319E+00
   3.3594109E-04   1.3532177E+05   -1.7305593E+00
   3.3749250E-04   1.3424725E+05   -1.7299868E+00
   3.3905108E-04   1.3318161E+05   -1.7294146E+00
   3.4061685E-04   1.3212478E+05   -1.7288426E+00
   3.4218986E-04   1.3107668E+05   -1.7282708E+00
   3.4377013E-04   1.3003724E+05   -1.7276992E+00
   3.4535769E-04   1.2900638E+05   -1.7271279E+00
   3.4695259E-04   1.2798402E+05   -1.7265568E+00
   3.4855485E-04   1.2697011E+05   -1.7259860E+00
   3.5016452E-04   1.2596456E+05   -1.7254154E+00
   3.5178161E-04   1.2496730E+05   -1.7248450E+00
   3.5340618E-04   1.2397826E+05   -1.7242750E+00
   3.5503824E-04   1.2299737E+05   -1.7237052E+00
   3.5667785E-04   1.2202456E+05   -1.7231356E+00
   3.5832502E-04   1.2105977E+05   -1.7225664E+00
   3.5997981E-04   1.2010292E+05   -1.7219974E+00
   3.6164223E-04   1.1915394E+05   -1.7214288E+00
   3.6331233E-04   1.1821277E+05   -1.7208604E+00
   3.6499015E-04   1.1727934E+05   -1.7202923E+00
   3.6667571E-04   1.1635359E+05   -1.7197246E+00
   3.6836906E-04   1.1543544E+05   -1.7191572E+00
   3.7007022E-04   1.1452484E+05   -1.7185900E+00
   3.7177925E-04   1.1362173E+05   -1.7180233E+00
   3.7349616E-04   1.1272602E+05   -1.7174568E+00
   3.7522101E-04   1.1183767E+05   -1.7168907E+00
   3.7695382E-04   1.1095661E+05   -1.7163249E+00
   3.7869463E-04   1.1008278E+05   -1.7157595E+00
   3.8044348E-04   1.0921611E+05   -1.7151944E+00
   3.8220041E-04   1.0835655E+05   -1.7146297E+00
   3.8396545E-04   1.0750403E+05   -1.7140654E+00
   3.8573864E-04   1.0665850E+05   -1.7135015E+00
   3.8752002E-04   1.0581990E+05   -1.7129379E+00
   3.8930963E-04   1.0498815E+05   -1.7123747E+00
   3.9110750E-04   1.0416322E+05   -1.7118119E+00
   3.9291368E-04   1.0334504E+05   -1.7112495E+00
   3.9472820E-04   1.0253355E+05   -1.7106874E+00
   3.9655109E-04   1.0172869E+05   -1.7101258E+00
   3.9838241E-04   1.0093041E+05   -1.7095646E+00
   4.0022218E-04   1.0013866E+05   -1.7090039E+00
   4.0207045E-04   9.9353373E+04   -1.7084435E+00
   4.0392725E-04   9.8574500E+04   -1.7078836E+00
   4.0579263E-04   9.7801984E+04   -1.7073241E+00
   4.0766662E-04   9.7035773E+04   -1.7067650E+00
   4.0954927E-04   9.6275812E+04   -1.7062064E+00
   4.1144061E-04   9.5522049E+04   -1.7056483E+00
   4.1334068E-04   9.4774431E+04   -1.7050906E+00
   4.1524953E-04   9.4032905E+04   -1.7045333E+00
   4.1716720E-04   9.3297421E+04   -1.7039765E+00
   4.1909372E-04   9.2567927E+04   -1.7034202E+00
   4.2102914E-04   9.1844372E+04   -1.7028644E+00
   4.2297350E-04   9.1126706E+04   -1.7023091E+00
   4.2492683E-04   9.0414879E+04   -1.7017542E+00
   4.2688919E-04   8.9708842E+04   -1.7011998E+00
   4.2886061E-04   8.9008545E+04   -1.7006460E+00
   4.3084113E-04   8.8313941E+04   -1.7000926E+00
   4.3283080E-04   8.7624980E+04   -1.6995397E+00
   4.3482966E-04   8.6941615E+04   -1.6989874E+00
   4.3683775E-04   8.6263799E+04   -1.6984356E+00
   4.3885511E-04   8.5591485E+04   -1.6978843E+00
   4.4088179E-04   8.4924627E+04   -1.6973335E+00
   4.4291783E-04   8.4263178E+04   -1.6967832E+00
   4.4496327E-04   8.3607092E+04   -1.6962335E+00
   4.4701816E-04   8.2956325E+04   -1.6956844E+00
   4.4908253E-04   8.2310831E+04   -1.6951358E+00
   4.5115644E-04   8.1670566E+04   -1.6945877E+00
   4.5323993E-04   8.1035487E+04   -1.6940402E+00
   4.5533304E-04   8.0405548E+04   -1.6934933E+00
   4.5743582E-04   7.9780707E+04   -1.6929469E+00
   4.5954830E-04   7.9160922E+04   -1.6924011E+00
   4.6167054E-04   7.8546148E+04   -1.6918559E+00
   4.6380259E-04   7.7936345E+04   -1.6913112E+00
   4.6594448E-04   7.7331470E+04   -1.6907672E+00
   4.6809626E-04   7.6731481E+04   -1.6902237E+00
   4.7025797E-04   7.6136338E+04   -1.6896809E+00
   4.7242967E-04   7.5546000E+04   -1.6891386E+00
   4.7461140E-04   7.4960427E+04   -1.6885970E+00
   4.7680321E-04   7.4379578E+04   -1.6880559E+00
   4.7900514E-04   7.3803413E+04   -1.6875155E+00
   4.8121723E-04   7.3231894E+04   -1.6869757E+00
   4.8343954E-04   7.2664982E+04   -1.6864366E+00
   4.8567212E-04   7.2102637E+04   -1.6858980E+00
   4.8791500E-04   7.1544821E+04   -1.6853601E+00
   4.9016825E-04   7.0991497E+04   -1.6848228E+00
   4.9243189E-04   7.0442627E+04   -1.6842862E+00
   4.9470600E-04   6.9898172E+04   -1.6837502E+00
   4.9699060E-04   6.9358097E+04   -1.6832149E+00
   4.9928575E-04   6.8822365E+04   -1.6826802E+00
   5.0159151E-04   6.8290939E+04   -1.6821462E+00
   5.0390791E-04   6.7763783E+04   -1.6816129E+00
   5.0623501E-04   6.7240861E+04   -1.6810802E+00
   5.0857286E-04   6.6722138E+04   -1.6805482E+00
   5.1092150E-04   6.6207579E+04   -1.6800169E+00
   5.1328099E-04   6.5697149E+04   -1.6794863E+00
   5.1565137E-04   6.5190814E+04   -1.6789564E+00
   5.1803270E-04   6.4688539E+04   -1.6784271E+00
   5.2042503E-04   6.4190290E+04   -1.6778986E+00
   5.2282841E-04   6.3696034E+04   -1.6773707E+00
   5.2524289E-04   6.3205737E+04   -1.6768436E+00
   5.2766851E-04   6.2719366E+04   -1.6763171E+00
   5.3010534E-04   6.2236889E+04   -1.6757914E+00
   5.3255342E-04   6.1758272E+04   -1.6752664E+00
   5.3501281E-04   6.1283485E+04   -1.6747421E+00
   5.3748356E-04   6.0812494E+04   -1.6742186E+00
   5.3996571E-04   6.0345269E+04   -1.6736957E+00
   5.4245933E-04   5.9881778E+04   -1.6731736E+00
   5.4496446E-04   5.9421989E+04   -1.6726523E+00
   5.4748117E-04   5.8965873E+04   -1.6721317E+00
   5.5000949E-04   5.8513397E+04   -1.6716118E+00
   5.5254949E-04   5.8064533E+04   -1.6710927E+00
   5.5510123E-04   5.7619250E+04   -1.6705743E+00
   5.5766474E-04   5.7177518E+04   -1.6700567E+00
   5.6024010E-04   5.6739307E+04   -1.6695399E+00
   5.6282734E-04   5.6304590E+04   -1.6690238E+00
   5.6542654E-04   5.5873335E+04   -1.6685085E+00
   5.6803774E-04   5.5445515E+04   -1.6679939E+00
   5.7066099E-04   5.5021101E+04   -1.6674801E+00
   5.7329637E-04   5.4600066E+04   -1.6669672E+00
   5.7594391E-04   5.4182380E+04   -1.6664550E+00
   5.7860368E-04   5.3768016E+04   -1.6659435E+00
   5.8127573E-04   5.3356947E+04   -1.6654329E+00
   5.8396012E-04   5.2949144E+04   -1.6649231E+00
   5.8665691E-04   5.2544582E+04   -1.6644140E+00
   5.8936616E-04   5.2143234E+04   -1.6639058E+00
   5.9208791E-04   5.1745072E+04   -1.6633984E+00
   5.9482223E-04   5.1350070E+04   -1.6628917E+00
   5.9756919E-04   5.0958202E+04   -1.6623859E+00
   6.0032882E-04   5.0569443E+04   -1.6618809E+00
   6.0310120E-04   5.0183766E+04   -1.6613768E+00
   6.0588639E-04   4.9801146E+04   -1.6608734E+00
   6.0868443E-04   4.9421557E+04   -1.6603709E+00
   6.1149540E-04   4.9044976E+04   -1.6598692E+00
   6.1431935E-04   4.8671377E+04   -1.6593683E+00
   6.1715634E-04   4.8300734E+04   -1.6588683E+00
   6.2000644E-04   4.7933025E+04   -1.6583691E+00
   6.2286969E-04   4.7568224E+04   -1.6578707E+00
