#        a       HoverH0(a)       dlogHdloga_of_a(a)
   1.0000000E-04   1.1397371E+06   -1.8992445E+00
   1.0046181E-04   1.1298080E+06   -1.8988733E+00
   1.0092575E-04   1.1199674E+06   -1.8985010E+00
   1.0139184E-04   1.1102144E+06   -1.8981278E+00
   1.0186008E-04   1.1005482E+06   -1.8977535E+00
   1.0233048E-04   1.0909681E+06   -1.8973782E+00
   1.0280305E-04   1.0814732E+06   -1.8970019E+00
   1.0327781E-04   1.0720628E+06   -1.8966246E+00
   1.0375475E-04   1.0627362E+06   -1.8962462E+00
   1.0423390E-04   1.0534925E+06   -1.8958669E+00
   1.0471527E-04   1.0443311E+06   -1.8954865E+00
   1.0519885E-04   1.0352512E+06   -1.8951051E+00
   1.0568467E-04   1.0262520E+06   -1.8947226E+00
   1.0617274E-04   1.0173328E+06   -1.8943392E+00
   1.0666305E-04   1.0084929E+06   -1.8939547E+00
   1.0715563E-04   9.9973164E+05   -1.8935692E+00
   1.0765049E-04   9.9104823E+05   -1.8931827E+00
   1.0814763E-04   9.8244199E+05   -1.8927951E+00
   1.0864707E-04   9.7391224E+05   -1.8924066E+00
   1.0914881E-04   9.6545827E+05   -1.8920170E+00
   1.0965287E-04   9.5707940E+05   -1.8916264E+00
   1.1015926E-04   9.4877497E+05   -1.8912347E+00
   1.1066799E-04   9.4054428E+05   -1.8908421E+00
   1.1117906E-04   9.3238669E+05   -1.8904484E+00
   1.1169250E-04   9.2430153E+05   -1.8900537E+00
   1.1220831E-04   9.1628815E+05   -1.8896580E+00
   1.1272650E-04   9.0834589E+05   -1.8892613E+00
   1.1324708E-04   9.0047413E+05   -1.8888635E+00
   1.1377007E-04   8.9267223E+05   -1.8884648E+00
   1.1429547E-04   8.8493955E+05   -1.8880650E+00
   1.1482330E-04   8.7727548E+05   -1.8876642E+00
   1.1535356E-04   8.6967938E+05   -1.8872624E+00
   1.1588628E-04   8.6215066E+05   -1.8868595E+00
   1.1642145E-04   8.5468870E+05   -1.8864557E+00
   1.1695910E-04   8.4729290E+05   -1.8860508E+00
   1.1749923E-04   8.3996267E+05   -1.8856449E+00
   1.1804185E-04   8.3269741E+05   -1.8852380E+00
   1.1858698E-04   8.2549655E+05   -1.8848300E+00
   1.1913463E-04   8.1835949E+05   -1.8844211E+00
   1.1968481E-04   8.1128567E+05   -1.8840111E+00
   1.2023752E-04   8.0427452E+05   -1.8836002E+00
   1.2079279E-04   7.9732547E+05   -1.8831882E+00
   1.2135063E-04   7.9043796E+05   -1.8827752E+00
   1.2191104E-04   7.8361145E+05   -1.8823612E+00
   1.2247403E-04   7.7684537E+05   -1.8819462E+00
   1.2303963E-04   7.7013919E+05   -1.8815301E+00
   1.2360784E-04   7.6349236E+05   -1.8811131E+00
   1.2417868E-04   7.5690436E+05   -1.8806951E+00
   1.2475215E-04   7.5037465E+05   -1.8802760E+00
   1.2532826E-04   7.4390271E+05   -1.8798559E+00
   1.2590704E-04   7.3748802E+05   -1.8794349E+00
   1.2648850E-04   7.3113006E+05   -1.8790128E+00
   1.2707263E-04   7.2482832E+05   -1.8785897E+00
   1.2765947E-04   7.1858231E+05   -1.8781656E+00
   1.2824901E-04   7.1239151E+05   -1.8777405E+00
   1.2884128E-04   7.0625544E+05   -1.8773144E+00
   1.2943628E-04   7.0017359E+05   -1.8768873E+00
   1.3003403E-04   6.9414548E+05   -1.8764592E+00
   1.3063454E-04   6.8817063E+05   -1.8760302E+00
   1.3123783E-04   6.8224856E+05   -1.8756001E+00
   1.3184390E-04   6.7637879E+05   -1.8751690E+00
   1.3245277E-04   6.7056086E+05   -1.8747369E+00
   1.3306445E-04   6.6479429E+05   -1.8743038E+00
   1.3367895E-04   6.5907864E+05   -1.8738698E+00
   1.3429630E-04   6.5341343E+05   -1.8734347E+00
   1.3491649E-04   6.4779821E+05   -1.8729986E+00
   1.3553955E-04   6.4223255E+05   -1.8725616E+00
   1.3616548E-04   6.3671599E+05   -1.8721236E+00
   1.3679431E-04   6.3124808E+05   -1.8716845E+00
   1.3742604E-04   6.2582841E+05   -1.8712445E+00
   1.3806069E-04   6.2045652E+05   -1.8708035E+00
   1.3869827E-04   6.1513199E+05   -1.8703616E+00
   1.3933879E-04   6.0985440E+05   -1.8699186E+00
   1.3998227E-04   6.0462333E+05   -1.8694747E+00
   1.4062872E-04   5.9943835E+05   -1.8690298E+00
   1.4127816E-04   5.9429906E+05   -1.8685839E+00
   1.4193060E-04   5.8920504E+05   -1.8681370E+00
   1.4258605E-04   5.8415588E+05   -1.8676892E+00
   1.4324453E-04   5.7915119E+05   -1.8672404E+00
   1.4390605E-04   5.7419057E+05   -1.8667906E+00
   1.4457062E-04   5.6927362E+05   -1.8663398E+00
   1.4523826E-04   5.6439995E+05   -1.8658881E+00
   1.4590899E-04   5.5956917E+05   -1.8654354E+00
   1.4658281E-04   5.5478089E+05   -1.8649818E+00
   1.4725974E-04   5.5003474E+05   -1.8645271E+00
   1.4793981E-04   5.4533033E+05   -1.8640716E+00
   1.4862301E-04   5.4066730E+05   -1.8636150E+00
   1.4930936E-04   5.3604527E+05   -1.8631575E+00
   1.4999889E-04   5.3146387E+05   -1.8626991E+00
   1.5069160E-04   5.2692274E+05   -1.8622397E+00
   1.5138751E-04   5.2242152E+05   -1.8617793E+00
   1.5208663E-04   5.1795985E+05   -1.8613180E+00
   1.5278899E-04   5.1353738E+05   -1.8608558E+00
   1.5349458E-04   5.0915376E+05   -1.8603926E+00
   1.5420343E-04   5.0480863E+05   -1.8599285E+00
   1.5491556E-04   5.0050166E+05   -1.8594634E+00
   1.5563098E-04   4.9623249E+05   -1.8589974E+00
   1.5634970E-04   4.9200080E+05   -1.8585304E+00
   1.5707174E-04   4.8780625E+05   -1.8580625E+00
   1.5779711E-04   4.8364850E+05   -1.8575937E+00
   1.5852584E-04   4.7952722E+05   -1.8571239E+00
   1.5925792E-04   4.7544210E+05   -1.8566533E+00
   1.5999339E-04   4.7139280E+05   -1.8561816E+00
   1.6073226E-04   4.6737900E+05   -1.8557091E+00
   1.6147454E-04   4.6340038E+05   -1.8552356E+00
   1.6222024E-04   4.5945664E+05   -1.8547613E+00
   1.6296939E-04   4.5554747E+05   -1.8542860E+00
   1.6372200E-04   4.5167254E+05   -1.8538098E+00
   1.6447809E-04   4.4783155E+05   -1.8533327E+00
   1.6523767E-04   4.4402421E+05   -1.8528546E+00
   1.6600075E-04   4.4025020E+05   -1.8523757E+00
   1.6676736E-04   4.3650924E+05   -1.8518958E+00
   1.6753751E-04   4.3280102E+05   -1.8514151E+00
   1.6831122E-04   4.2912525E+05   -1.8509335E+00
   1.6908849E-04   4.2548165E+05   -1.8504509E+00
   1.6986936E-04   4.2186993E+05   -1.8499675E+00
   1.7065384E-04   4.1828979E+05   -1.8494832E+00
   1.7144193E-04   4.1474097E+05   -1.8489979E+00
   1.7223367E-04   4.1122317E+05   -1.8485118E+00
   1.7302906E-04   4.0773612E+05   -1.8480249E+00
   1.7382813E-04   4.0427955E+05   -1.8475370E+00
   1.7463089E-04   4.0085319E+05   -1.8470482E+00
   1.7543735E-04   3.9745676E+05   -1.8465586E+00
   1.7624754E-04   3.9409000E+05   -1.8460681E+00
   1.7706147E-04   3.9075264E+05   -1.8455768E+00
   1.7787916E-04   3.8744443E+05   -1.8450845E+00
   1.7870062E-04   3.8416509E+05   -1.8445915E+00
   1.7952588E-04   3.8091437E+05   -1.8440975E+00
   1.8035495E-04   3.7769203E+05   -1.8436027E+00
   1.8118785E-04   3.7449779E+05   -1.8431070E+00
   1.8202459E-04   3.7133142E+05   -1.8426105E+00
   1.8286520E-04   3.6819266E+05   -1.8421131E+00
   1.8370969E-04   3.6508128E+05   -1.8416149E+00
   1.8455808E-04   3.6199702E+05   -1.8411159E+00
   1.8541039E-04   3.5893963E+05   -1.8406160E+00
   1.8626663E-04   3.5590890E+05   -1.8401153E+00
   1.8712683E-04   3.5290456E+05   -1.8396137E+00
   1.8799100E-04   3.4992640E+05   -1.8391113E+00
   1.8885917E-04   3.4697417E+05   -1.8386081E+00
   1.8973134E-04   3.4404765E+05   -1.8381041E+00
   1.9060754E-04   3.4114661E+05   -1.8375992E+00
   1.9148778E-04   3.3827081E+05   -1.8370935E+00
   1.9237209E-04   3.3542004E+05   -1.8365870E+00
   1.9326049E-04   3.3259407E+05   -1.8360797E+00
   1.9415299E-04   3.2979268E+05   -1.8355716E+00
   1.9504960E-04   3.2701565E+05   -1.8350627E+00
   1.9595036E-04   3.2426277E+05   -1.8345530E+00
   1.9685528E-04   3.2153382E+05   -1.8340425E+00
   1.9776438E-04   3.1882859E+05   -1.8335312E+00
   1.9867768E-04   3.1614686E+05   -1.8330192E+00
   1.9959519E-04   3.1348842E+05   -1.8325063E+00
   2.0051694E-04   3.1085308E+05   -1.8319927E+00
   2.0144295E-04   3.0824062E+05   -1.8314782E+00
   2.0237324E-04   3.0565084E+05   -1.8309631E+00
   2.0330782E-04   3.0308354E+05   -1.8304471E+00
   2.0424671E-04   3.0053852E+05   -1.8299304E+00
   2.0518995E-04   2.9801558E+05   -1.8294129E+00
   2.0613754E-04   2.9551453E+05   -1.8288946E+00
   2.0708950E-04   2.9303516E+05   -1.8283756E+00
   2.0804586E-04   2.9057729E+05   -1.8278559E+00
   2.0900664E-04   2.8814073E+05   -1.8273354E+00
   2.0997185E-04   2.8572529E+05   -1.8268141E+00
   2.1094152E-04   2.8333077E+05   -1.8262921E+00
   2.1191567E-04   2.8095700E+05   -1.8257694E+00
   2.1289432E-04   2.7860379E+05   -1.8252460E+00
   2.1387749E-04   2.7627095E+05   -1.8247218E+00
   2.1486520E-04   2.7395831E+05   -1.8241969E+00
   2.1585747E-04   2.7166568E+05   -1.8236713E+00
   2.1685432E-04   2.6939290E+05   -1.8231449E+00
   2.1785578E-04   2.6713977E+05   -1.8226179E+00
   2.1886186E-04   2.6490614E+05   -1.8220902E+00
   2.1987259E-04   2.6269182E+05   -1.8215617E+00
   2.2088798E-04   2.6049664E+05   -1.8210326E+00
   2.2190807E-04   2.5832044E+05   -1.8205027E+00
   2.2293286E-04   2.5616305E+05   -1.8199722E+00
   2.2396239E-04   2.5402429E+05   -1.8194410E+00
   2.2499667E-04   2.5190401E+05   -1.8189091E+00
   2.2603573E-04   2.4980204E+05   -1.8183765E+00
   2.2707958E-04   2.4771821E+05   -1.8178433E+00
   2.2812826E-04   2.4565237E+05   -1.8173093E+00
   2.2918178E-04   2.4360436E+05   -1.8167748E+00
   2.3024017E-04   2.4157402E+05   -1.8162395E+00
   2.3130344E-04   2.3956119E+05   -1.8157036E+00
   2.3237162E-04   2.3756572E+05   -1.8151671E+00
   2.3344474E-04   2.3558746E+05   -1.8146299E+00
   2.3452281E-04   2.3362625E+05   -1.8140921E+00
   2.3560586E-04   2.3168193E+05   -1.8135536E+00
   2.3669392E-04   2.2975437E+05   -1.8130145E+00
   2.3778699E-04   2.2784342E+05   -1.8124748E+00
   2.3888512E-04   2.2594892E+05   -1.8119345E+00
   2.3998831E-04   2.2407073E+05   -1.8113935E+00
   2.4109661E-04   2.2220870E+05   -1.8108520E+00
   2.4221001E-04   2.2036270E+05   -1.8103098E+00
   2.4332857E-04   2.1853259E+05   -1.8097670E+00
   2.4445228E-04   2.1671821E+05   -1.8092236E+00
   2.4558119E-04   2.1491943E+05   -1.8086796E+00
   2.4671531E-04   2.1313612E+05   -1.8081351E+00
   2.4785467E-04   2.1136814E+05   -1.8075899E+00
   2.4899928E-04   2.0961535E+05   -1.8070442E+00
   2.5014919E-04   2.0787762E+05   -1.8064979E+00
   2.5130440E-04   2.0615482E+05   -1.8059510E+00
   2.5246495E-04   2.0444680E+05   -1.8054036E+00
   2.5363086E-04   2.0275345E+05   -1.8048556E+00
   2.5480216E-04   2.0107464E+05   -1.8043070E+00
   2.5597886E-04   1.9941022E+05   -1.8037579E+00
   2.5716100E-04   1.9776009E+05   -1.8032083E+00
   2.5834859E-04   1.9612411E+05   -1.8026581E+00
   2.5954168E-04   1.9450215E+05   -1.8021074E+00
   2.6074027E-04   1.9289410E+05   -1.8015561E+00
   2.6194439E-04   1.9129983E+05   -1.8010043E+00
   2.6315408E-04   1.8971922E+05   -1.8004520E+00
   2.6436935E-04   1.8815214E+05   -1.7998992E+00
   2.6559024E-04   1.8659849E+05   -1.7993459E+00
   2.6681676E-04   1.8505814E+05   -1.7987921E+00
   2.6804895E-04   1.8353097E+05   -1.7982378E+00
   2.6928683E-04   1.8201687E+05   -1.7976830E+00
   2.7053042E-04   1.8051572E+05   -1.7971277E+00
   2.7177976E-04   1.7902741E+05   -1.7965719E+00
   2.7303487E-04   1.7755183E+05   -1.7960156E+00
   2.7429577E-04   1.7608886E+05   -1.7954589E+00
   2.7556250E-04   1.7463839E+05   -1.7949017E+00
   2.7683507E-04   1.7320031E+05   -1.7943440E+00
   2.7811353E-04   1.7177452E+05   -1.7937859E+00
   2.7939788E-04   1.7036091E+05   -1.7932273E+00
   2.8068817E-04   1.6895936E+05   -1.7926683E+00
   2.8198442E-04   1.6756977E+05   -1.7921088E+00
   2.8328665E-04   1.6619205E+05   -1.7915489E+00
   2.8459490E-04   1.6482607E+05   -1.7909886E+00
   2.8590919E-04   1.6347174E+05   -1.7904279E+00
   2.8722955E-04   1.6212897E+05   -1.7898667E+00
   2.8855600E-04   1.6079763E+05   -1.7893051E+00
   2.8988859E-04   1.5947764E+05   -1.7887431E+00
   2.9122732E-04   1.5816890E+05   -1.7881807E+00
   2.9257224E-04   1.5687131E+05   -1.7876179E+00
   2.9392337E-04   1.5558476E+05   -1.7870548E+00
   2.9528074E-04   1.5430916E+05   -1.7864912E+00
   2.9664438E-04   1.5304442E+05   -1.7859273E+00
   2.9801431E-04   1.5179044E+05   -1.7853629E+00
   2.9939057E-04   1.5054713E+05   -1.7847983E+00
   3.0077319E-04   1.4931439E+05   -1.7842332E+00
   3.0216219E-04   1.4809213E+05   -1.7836678E+00
   3.0355761E-04   1.4688026E+05   -1.7831021E+00
   3.0495947E-04   1.4567868E+05   -1.7825360E+00
   3.0636780E-04   1.4448731E+05   -1.7819695E+00
   3.0778264E-04   1.4330606E+05   -1.7814027E+00
   3.0920401E-04   1.4213484E+05   -1.7808356E+00
   3.1063195E-04   1.4097356E+05   -1.7802682E+00
   3.1206648E-04   1.3982213E+05   -1.7797004E+00
   3.1350764E-04   1.3868047E+05   -1.7791324E+00
   3.1495545E-04   1.3754849E+05   -1.7785640E+00
   3.1640994E-04   1.3642611E+05   -1.7779954E+00
   3.1787116E-04   1.3531324E+05   -1.7774264E+00
   3.1933912E-04   1.3420980E+05   -1.7768572E+00
   3.2081386E-04   1.3311571E+05   -1.7762876E+00
   3.2229541E-04   1.3203088E+05   -1.7757178E+00
   3.2378381E-04   1.3095524E+05   -1.7751477E+00
   3.2527908E-04   1.2988870E+05   -1.7745774E+00
   3.2678125E-04   1.2883119E+05   -1.7740068E+00
   3.2829036E-04   1.2778262E+05   -1.7734360E+00
   3.2980644E-04   1.2674292E+05   -1.7728648E+00
   3.3132952E-04   1.2571202E+05   -1.7722935E+00
   3.3285963E-04   1.2468982E+05   -1.7717219E+00
   3.3439681E-04   1.2367626E+05   -1.7711501E+00
   3.3594109E-04   1.2267127E+05   -1.7705781E+00
   3.3749250E-04   1.2167476E+05   -1.7700058E+00
   3.3905108E-04   1.2068667E+05   -1.7694334E+00
   3.4061685E-04   1.1970691E+05   -1.7688607E+00
   3.4218986E-04   1.1873542E+05   -1.7682878E+00
   3.4377013E-04   1.1777213E+05   -1.7677148E+00
   3.4535769E-04   1.1681696E+05   -1.7671415E+00
   3.4695259E-04   1.1586985E+05   -1.7665681E+00
   3.4855485E-04   1.1493071E+05   -1.7659945E+00
   3.5016452E-04   1.1399949E+05   -1.7654207E+00
   3.5178161E-04   1.1307612E+05   -1.7648468E+00
   3.5340618E-04   1.1216052E+05   -1.7642727E+00
   3.5503824E-04   1.1125263E+05   -1.7636984E+00
   3.5667785E-04   1.1035237E+05   -1.7631240E+00
   3.5832502E-04   1.0945970E+05   -1.7625495E+00
   3.5997981E-04   1.0857453E+05   -1.7619748E+00
   3.6164223E-04   1.0769681E+05   -1.7614000E+00
   3.6331233E-04   1.0682646E+05   -1.7608251E+00
   3.6499015E-04   1.0596343E+05   -1.7602501E+00
   3.6667571E-04   1.0510765E+05   -1.7596749E+00
   3.6836906E-04   1.0425905E+05   -1.7590997E+00
   3.7007022E-04   1.0341759E+05   -1.7585243E+00
   3.7177925E-04   1.0258318E+05   -1.7579489E+00
   3.7349616E-04   1.0175578E+05   -1.7573734E+00
   3.7522101E-04   1.0093532E+05   -1.7567978E+00
   3.7695382E-04   1.0012174E+05   -1.7562221E+00
   3.7869463E-04   9.9314977E+04   -1.7556464E+00
   3.8044348E-04   9.8514980E+04   -1.7550706E+00
   3.8220041E-04   9.7721687E+04   -1.7544947E+00
   3.8396545E-04   9.6935038E+04   -1.7539188E+00
   3.8573864E-04   9.6154977E+04   -1.7533429E+00
   3.8752002E-04   9.5381447E+04   -1.7527669E+00
   3.8930963E-04   9.4614390E+04   -1.7521909E+00
   3.9110750E-04   9.3853752E+04   -1.7516148E+00
   3.9291368E-04   9.3099475E+04   -1.7510388E+00
   3.9472820E-04   9.2351505E+04   -1.7504627E+00
   3.9655109E-04   9.1609788E+04   -1.7498866E+00
   3.9838241E-04   9.0874269E+04   -1.7493106E+00
   4.0022218E-04   9.0144894E+04   -1.7487345E+00
   4.0207045E-04   8.9421612E+04   -1.7481584E+00
   4.0392725E-04   8.8704367E+04   -1.7475824E+00
   4.0579263E-04   8.7993110E+04   -1.7470064E+00
   4.0766662E-04   8.7287787E+04   -1.7464304E+00
   4.0954927E-04   8.6588347E+04   -1.7458545E+00
   4.1144061E-04   8.5894740E+04   -1.7452786E+00
   4.1334068E-04   8.5206916E+04   -1.7447027E+00
   4.1524953E-04   8.4524823E+04   -1.7441269E+00
   4.1716720E-04   8.3848413E+04   -1.7435512E+00
   4.1909372E-04   8.3177636E+04   -1.7429755E+00
   4.2102914E-04   8.2512445E+04   -1.7423999E+00
   4.2297350E-04   8.1852790E+04   -1.7418244E+00
   4.2492683E-04   8.1198624E+04   -1.7412490E+00
   4.2688919E-04   8.0549901E+04   -1.7406736E+00
   4.2886061E-04   7.9906571E+04   -1.7400984E+00
   4.3084113E-04   7.9268590E+04   -1.7395233E+00
   4.3283080E-04   7.8635911E+04   -1.7389482E+00
   4.3482966E-04   7.8008488E+04   -1.7383733E+00
   4.3683775E-04   7.7386277E+04   -1.7377985E+00
   4.3885511E-04   7.6769231E+04   -1.7372239E+00
   4.4088179E-04   7.6157307E+04   -1.7366494E+00
   4.4291783E-04   7.5550461E+04   -1.7360750E+00
   4.4496327E-04   7.4948648E+04   -1.7355007E+00
   4.4701816E-04   7.4351826E+04   -1.7349266E+00
   4.4908253E-04   7.3759952E+04   -1.7343527E+00
   4.5115644E-04   7.3172983E+04   -1.7337789E+00
   4.5323993E-04   7.2590877E+04   -1.7332054E+00
   4.5533304E-04   7.2013592E+04   -1.7326319E+00
   4.5743582E-04   7.1441086E+04   -1.7320587E+00
   4.5954830E-04   7.0873319E+04   -1.7314857E+00
   4.6167054E-04   7.0310250E+04   -1.7309128E+00
   4.6380259E-04   6.9751838E+04   -1.7303402E+00
   4.6594448E-04   6.9198044E+04   -1.7297677E+00
   4.6809626E-04   6.8648828E+04   -1.7291955E+00
   4.7025797E-04   6.8104150E+04   -1.7286235E+00
   4.7242967E-04   6.7563972E+04   -1.7280517E+00
   4.7461140E-04   6.7028254E+04   -1.7274801E+00
   4.7680321E-04   6.6496960E+04   -1.7269088E+00
   4.7900514E-04   6.5970051E+04   -1.7263377E+00
   4.8121723E-04   6.5447489E+04   -1.7257669E+00
   4.8343954E-04   6.4929237E+04   -1.7251963E+00
   4.8567212E-04   6.4415258E+04   -1.7246260E+00
   4.8791500E-04   6.3905516E+04   -1.7240559E+00
   4.9016825E-04   6.3399974E+04   -1.7234861E+00
   4.9243189E-04   6.2898596E+04   -1.7229166E+00
   4.9470600E-04   6.2401347E+04   -1.7223474E+00
   4.9699060E-04   6.1908191E+04   -1.7217784E+00
   4.9928575E-04   6.1419094E+04   -1.7212098E+00
   5.0159151E-04   6.0934020E+04   -1.7206415E+00
   5.0390791E-04   6.0452936E+04   -1.7200734E+00
   5.0623501E-04   5.9975806E+04   -1.7195057E+00
   5.0857286E-04   5.9502598E+04   -1.7189383E+00
   5.1092150E-04   5.9033278E+04   -1.7183712E+00
   5.1328099E-04   5.8567813E+04   -1.7178045E+00
   5.1565137E-04   5.8106170E+04   -1.7172380E+00
   5.1803270E-04   5.7648315E+04   -1.7166720E+00
   5.2042503E-04   5.7194218E+04   -1.7161062E+00
   5.2282841E-04   5.6743845E+04   -1.7155409E+00
   5.2524289E-04   5.6297165E+04   -1.7149758E+00
   5.2766851E-04   5.5854147E+04   -1.7144112E+00
   5.3010534E-04   5.5414760E+04   -1.7138469E+00
   5.3255342E-04   5.4978971E+04   -1.7132830E+00
   5.3501281E-04   5.4546752E+04   -1.7127194E+00
   5.3748356E-04   5.4118070E+04   -1.7121563E+00
   5.3996571E-04   5.3692897E+04   -1.7115935E+00
   5.4245933E-04   5.3271203E+04   -1.7110312E+00
   5.4496446E-04   5.2852957E+04   -1.7104692E+00
   5.4748117E-04   5.2438131E+04   -1.7099076E+00
   5.5000949E-04   5.2026695E+04   -1.7093465E+00
   5.5254949E-04   5.1618621E+04   -1.7087858E+00
   5.5510123E-04   5.1213880E+04   -1.7082255E+00
   5.5766474E-04   5.0812443E+04   -1.7076656E+00
   5.6024010E-04   5.0414283E+04   -1.7071062E+00
   5.6282734E-04   5.0019372E+04   -1.7065472E+00
   5.6542654E-04   4.9627682E+04   -1.7059887E+00
   5.6803774E-04   4.9239186E+04   -1.7054306E+00
   5.7066099E-04   4.8853857E+04   -1.7048729E+00
   5.7329637E-04   4.8471668E+04   -1.7043158E+00
   5.7594391E-04   4.8092592E+04   -1.7037591E+00
   5.7860368E-04   4.7716603E+04   -1.7032028E+00
   5.8127573E-04   4.7343675E+04   -1.7026471E+00
   5.8396012E-04   4.6973782E+04   -1.7020918E+00
   5.8665691E-04   4.6606897E+04   -1.7015370E+00
   5.8936616E-04   4.6242997E+04   -1.7009827E+00
   5.9208791E-04   4.5882055E+04   -1.7004289E+00
   5.9482223E-04   4.5524046E+04   -1.6998756E+00
   5.9756919E-04   4.5168946E+04   -1.6993229E+00
   6.0032882E-04   4.4816729E+04   -1.6987706E+00
   6.0310120E-04   4.4467373E+04   -1.6982189E+00
   6.0588639E-04   4.4120852E+04   -1.6976676E+00
   6.0868443E-04   4.3777142E+04   -1.6971169E+00
   6.1149540E-04   4.3436220E+04   -1.6965668E+00
   6.1431935E-04   4.3098062E+04   -1.6960172E+00
   6.1715634E-04   4.2762645E+04   -1.6954681E+00
   6.2000644E-04   4.2429946E+04   -1.6949196E+00
   6.2286969E-04   4.2099941E+04   -1.6943716E+00
