#        a       HoverH0(a)       dlogHdloga_of_a(a)
   1.0000000E-04   1.0182908E+06   -1.8790958E+00
   1.0046181E-04   1.0095136E+06   -1.8786730E+00
   1.0092575E-04   1.0008140E+06   -1.8782491E+00
   1.0139184E-04   9.9219136E+05   -1.8778242E+00
   1.0186008E-04   9.8364489E+05   -1.8773983E+00
   1.0233048E-04   9.7517395E+05   -1.8769714E+00
   1.0280305E-04   9.6677786E+05   -1.8765435E+00
   1.0327781E-04   9.5845596E+05   -1.8761146E+00
   1.0375475E-04   9.5020757E+05   -1.8756848E+00
   1.0423390E-04   9.4203203E+05   -1.8752539E+00
   1.0471527E-04   9.3392869E+05   -1.8748220E+00
   1.0519885E-04   9.2589690E+05   -1.8743891E+00
   1.0568467E-04   9.1793602E+05   -1.8739553E+00
   1.0617274E-04   9.1004540E+05   -1.8735204E+00
   1.0666305E-04   9.0222443E+05   -1.8730846E+00
   1.0715563E-04   8.9447246E+05   -1.8726477E+00
   1.0765049E-04   8.8678889E+05   -1.8722099E+00
   1.0814763E-04   8.7917310E+05   -1.8717711E+00
   1.0864707E-04   8.7162447E+05   -1.8713313E+00
   1.0914881E-04   8.6414242E+05   -1.8708905E+00
   1.0965287E-04   8.5672633E+05   -1.8704487E+00
   1.1015926E-04   8.4937561E+05   -1.8700060E+00
   1.1066799E-04   8.4208968E+05   -1.8695622E+00
   1.1117906E-04   8.3486796E+05   -1.8691175E+00
   1.1169250E-04   8.2770988E+05   -1.8686718E+00
   1.1220831E-04   8.2061485E+05   -1.8682252E+00
   1.1272650E-04   8.1358231E+05   -1.8677775E+00
   1.1324708E-04   8.0661171E+05   -1.8673289E+00
   1.1377007E-04   7.9970249E+05   -1.8668793E+00
   1.1429547E-04   7.9285409E+05   -1.8664288E+00
   1.1482330E-04   7.8606598E+05   -1.8659773E+00
   1.1535356E-04   7.7933760E+05   -1.8655248E+00
   1.1588628E-04   7.7266843E+05   -1.8650713E+00
   1.1642145E-04   7.6605793E+05   -1.8646169E+00
   1.1695910E-04   7.5950558E+05   -1.8641615E+00
   1.1749923E-04   7.5301086E+05   -1.8637052E+00
   1.1804185E-04   7.4657324E+05   -1.8632479E+00
   1.1858698E-04   7.4019222E+05   -1.8627897E+00
   1.1913463E-04   7.3386730E+05   -1.8623305E+00
   1.1968481E-04   7.2759795E+05   -1.8618703E+00
   1.2023752E-04   7.2138370E+05   -1.8614092E+00
   1.2079279E-04   7.1522405E+05   -1.8609472E+00
   1.2135063E-04   7.0911850E+05   -1.8604842E+00
   1.2191104E-04   7.0306657E+05   -1.8600202E+00
   1.2247403E-04   6.9706779E+05   -1.8595553E+00
   1.2303963E-04   6.9112167E+05   -1.8590895E+00
   1.2360784E-04   6.8522774E+05   -1.8586228E+00
   1.2417868E-04   6.7938554E+05   -1.8581551E+00
   1.2475215E-04   6.7359461E+05   -1.8576864E+00
   1.2532826E-04   6.6785447E+05   -1.8572169E+00
   1.2590704E-04   6.6216469E+05   -1.8567464E+00
   1.2648850E-04   6.5652480E+05   -1.8562750E+00
   1.2707263E-04   6.5093437E+05   -1.8558026E+00
   1.2765947E-04   6.4539294E+05   -1.8553294E+00
   1.2824901E-04   6.3990009E+05   -1.8548552E+00
   1.2884128E-04   6.3445538E+05   -1.8543801E+00
   1.2943628E-04   6.2905837E+05   -1.8539041E+00
   1.3003403E-04   6.2370864E+05   -1.8534271E+00
   1.3063454E-04   6.1840576E+05   -1.8529493E+00
   1.3123783E-04   6.1314933E+05   -1.8524706E+00
   1.3184390E-04   6.0793891E+05   -1.8519909E+00
   1.3245277E-04   6.0277410E+05   -1.8515104E+00
   1.3306445E-04   5.9765450E+05   -1.8510289E+00
   1.3367895E-04   5.9257970E+05   -1.8505466E+00
   1.3429630E-04   5.8754929E+05   -1.8500633E+00
   1.3491649E-04   5.8256288E+05   -1.8495792E+00
   1.3553955E-04   5.7762009E+05   -1.8490942E+00
   1.3616548E-04   5.7272051E+05   -1.8486082E+00
   1.3679431E-04   5.6786376E+05   -1.8481214E+00
   1.3742604E-04   5.6304947E+05   -1.8476338E+00
   1.3806069E-04   5.5827724E+05   -1.8471452E+00
   1.3869827E-04   5.5354671E+05   -1.8466558E+00
   1.3933879E-04   5.4885751E+05   -1.8461655E+00
   1.3998227E-04   5.4420925E+05   -1.8456743E+00
   1.4062872E-04   5.3960159E+05   -1.8451823E+00
   1.4127816E-04   5.3503415E+05   -1.8446893E+00
   1.4193060E-04   5.3050657E+05   -1.8441956E+00
   1.4258605E-04   5.2601851E+05   -1.8437010E+00
   1.4324453E-04   5.2156961E+05   -1.8432055E+00
   1.4390605E-04   5.1715951E+05   -1.8427091E+00
   1.4457062E-04   5.1278788E+05   -1.8422120E+00
   1.4523826E-04   5.0845437E+05   -1.8417139E+00
   1.4590899E-04   5.0415864E+05   -1.8412151E+00
   1.4658281E-04   4.9990035E+05   -1.8407154E+00
   1.4725974E-04   4.9567917E+05   -1.8402148E+00
   1.4793981E-04   4.9149477E+05   -1.8397134E+00
   1.4862301E-04   4.8734682E+05   -1.8392112E+00
   1.4930936E-04   4.8323499E+05   -1.8387082E+00
   1.4999889E-04   4.7915897E+05   -1.8382043E+00
   1.5069160E-04   4.7511844E+05   -1.8376996E+00
   1.5138751E-04   4.7111307E+05   -1.8371942E+00
   1.5208663E-04   4.6714255E+05   -1.8366878E+00
   1.5278899E-04   4.6320658E+05   -1.8361807E+00
   1.5349458E-04   4.5930485E+05   -1.8356728E+00
   1.5420343E-04   4.5543705E+05   -1.8351641E+00
   1.5491556E-04   4.5160288E+05   -1.8346545E+00
   1.5563098E-04   4.4780204E+05   -1.8341442E+00
   1.5634970E-04   4.4403424E+05   -1.8336331E+00
   1.5707174E-04   4.4029917E+05   -1.8331212E+00
   1.5779711E-04   4.3659656E+05   -1.8326085E+00
   1.5852584E-04   4.3292610E+05   -1.8320950E+00
   1.5925792E-04   4.2928752E+05   -1.8315808E+00
   1.5999339E-04   4.2568053E+05   -1.8310658E+00
   1.6073226E-04   4.2210484E+05   -1.8305500E+00
   1.6147454E-04   4.1856019E+05   -1.8300334E+00
   1.6222024E-04   4.1504629E+05   -1.8295161E+00
   1.6296939E-04   4.1156288E+05   -1.8289980E+00
   1.6372200E-04   4.0810967E+05   -1.8284792E+00
   1.6447809E-04   4.0468641E+05   -1.8279596E+00
   1.6523767E-04   4.0129282E+05   -1.8274393E+00
   1.6600075E-04   3.9792865E+05   -1.8269182E+00
   1.6676736E-04   3.9459363E+05   -1.8263964E+00
   1.6753751E-04   3.9128750E+05   -1.8258738E+00
   1.6831122E-04   3.8801000E+05   -1.8253505E+00
   1.6908849E-04   3.8476088E+05   -1.8248265E+00
   1.6986936E-04   3.8153990E+05   -1.8243018E+00
   1.7065384E-04   3.7834679E+05   -1.8237763E+00
   1.7144193E-04   3.7518132E+05   -1.8232502E+00
   1.7223367E-04   3.7204323E+05   -1.8227233E+00
   1.7302906E-04   3.6893229E+05   -1.8221957E+00
   1.7382813E-04   3.6584825E+05   -1.8216674E+00
   1.7463089E-04   3.6279087E+05   -1.8211384E+00
   1.7543735E-04   3.5975992E+05   -1.8206088E+00
   1.7624754E-04   3.5675517E+05   -1.8200784E+00
   1.7706147E-04   3.5377638E+05   -1.8195473E+00
   1.7787916E-04   3.5082331E+05   -1.8190156E+00
   1.7870062E-04   3.4789575E+05   -1.8184832E+00
   1.7952588E-04   3.4499347E+05   -1.8179501E+00
   1.8035495E-04   3.4211624E+05   -1.8174163E+00
   1.8118785E-04   3.3926384E+05   -1.8168819E+00
   1.8202459E-04   3.3643605E+05   -1.8163468E+00
   1.8286520E-04   3.3363265E+05   -1.8158111E+00
   1.8370969E-04   3.3085343E+05   -1.8152747E+00
   1.8455808E-04   3.2809818E+05   -1.8147377E+00
   1.8541039E-04   3.2536667E+05   -1.8142000E+00
   1.8626663E-04   3.2265871E+05   -1.8136617E+00
   1.8712683E-04   3.1997408E+05   -1.8131227E+00
   1.8799100E-04   3.1731257E+05   -1.8125832E+00
   1.8885917E-04   3.1467398E+05   -1.8120430E+00
   1.8973134E-04   3.1205811E+05   -1.8115022E+00
   1.9060754E-04   3.0946476E+05   -1.8109607E+00
   1.9148778E-04   3.0689373E+05   -1.8104187E+00
   1.9237209E-04   3.0434481E+05   -1.8098761E+00
   1.9326049E-04   3.0181782E+05   -1.8093328E+00
   1.9415299E-04   2.9931257E+05   -1.8087890E+00
   1.9504960E-04   2.9682885E+05   -1.8082446E+00
   1.9595036E-04   2.9436648E+05   -1.8076996E+00
   1.9685528E-04   2.9192527E+05   -1.8071540E+00
   1.9776438E-04   2.8950504E+05   -1.8066078E+00
   1.9867768E-04   2.8710559E+05   -1.8060611E+00
   1.9959519E-04   2.8472675E+05   -1.8055138E+00
   2.0051694E-04   2.8236833E+05   -1.8049659E+00
   2.0144295E-04   2.8003015E+05   -1.8044175E+00
   2.0237324E-04   2.7771204E+05   -1.8038685E+00
   2.0330782E-04   2.7541381E+05   -1.8033190E+00
   2.0424671E-04   2.7313529E+05   -1.8027690E+00
   2.0518995E-04   2.7087631E+05   -1.8022184E+00
   2.0613754E-04   2.6863669E+05   -1.8016673E+00
   2.0708950E-04   2.6641627E+05   -1.8011156E+00
   2.0804586E-04   2.6421488E+05   -1.8005635E+00
   2.0900664E-04   2.6203234E+05   -1.8000108E+00
   2.0997185E-04   2.5986849E+05   -1.7994576E+00
   2.1094152E-04   2.5772317E+05   -1.7989039E+00
   2.1191567E-04   2.5559621E+05   -1.7983497E+00
   2.1289432E-04   2.5348745E+05   -1.7977950E+00
   2.1387749E-04   2.5139674E+05   -1.7972399E+00
   2.1486520E-04   2.4932390E+05   -1.7966842E+00
   2.1585747E-04   2.4726879E+05   -1.7961281E+00
   2.1685432E-04   2.4523125E+05   -1.7955715E+00
   2.1785578E-04   2.4321112E+05   -1.7950144E+00
   2.1886186E-04   2.4120825E+05   -1.7944568E+00
   2.1987259E-04   2.3922249E+05   -1.7938988E+00
   2.2088798E-04   2.3725369E+05   -1.7933404E+00
   2.2190807E-04   2.3530170E+05   -1.7927815E+00
   2.2293286E-04   2.3336636E+05   -1.7922221E+00
   2.2396239E-04   2.3144755E+05   -1.7916624E+00
   2.2499667E-04   2.2954510E+05   -1.7911022E+00
   2.2603573E-04   2.2765888E+05   -1.7905415E+00
   2.2707958E-04   2.2578874E+05   -1.7899805E+00
   2.2812826E-04   2.2393454E+05   -1.7894190E+00
   2.2918178E-04   2.2209615E+05   -1.7888571E+00
   2.3024017E-04   2.2027341E+05   -1.7882949E+00
   2.3130344E-04   2.1846620E+05   -1.7877322E+00
   2.3237162E-04   2.1667439E+05   -1.7871691E+00
   2.3344474E-04   2.1489782E+05   -1.7866057E+00
   2.3452281E-04   2.1313638E+05   -1.7860418E+00
   2.3560586E-04   2.1138992E+05   -1.7854776E+00
   2.3669392E-04   2.0965832E+05   -1.7849131E+00
   2.3778699E-04   2.0794144E+05   -1.7843481E+00
   2.3888512E-04   2.0623916E+05   -1.7837828E+00
   2.3998831E-04   2.0455135E+05   -1.7832172E+00
   2.4109661E-04   2.0287788E+05   -1.7826512E+00
   2.4221001E-04   2.0121862E+05   -1.7820848E+00
   2.4332857E-04   1.9957346E+05   -1.7815182E+00
   2.4445228E-04   1.9794227E+05   -1.7809512E+00
   2.4558119E-04   1.9632492E+05   -1.7803838E+00
   2.4671531E-04   1.9472129E+05   -1.7798162E+00
   2.4785467E-04   1.9313127E+05   -1.7792482E+00
   2.4899928E-04   1.9155473E+05   -1.7786800E+00
   2.5014919E-04   1.8999156E+05   -1.7781114E+00
   2.5130440E-04   1.8844164E+05   -1.7775425E+00
   2.5246495E-04   1.8690486E+05   -1.7769734E+00
   2.5363086E-04   1.8538109E+05   -1.7764039E+00
   2.5480216E-04   1.8387023E+05   -1.7758342E+00
   2.5597886E-04   1.8237216E+05   -1.7752642E+00
   2.5716100E-04   1.8088677E+05   -1.7746940E+00
   2.5834859E-04   1.7941395E+05   -1.7741235E+00
   2.5954168E-04   1.7795360E+05   -1.7735527E+00
   2.6074027E-04   1.7650559E+05   -1.7729817E+00
   2.6194439E-04   1.7506982E+05   -1.7724105E+00
   2.6315408E-04   1.7364619E+05   -1.7718390E+00
   2.6436935E-04   1.7223460E+05   -1.7712672E+00
   2.6559024E-04   1.7083492E+05   -1.7706953E+00
   2.6681676E-04   1.6944707E+05   -1.7701231E+00
   2.6804895E-04   1.6807094E+05   -1.7695508E+00
   2.6928683E-04   1.6670642E+05   -1.7689782E+00
   2.7053042E-04   1.6535342E+05   -1.7684054E+00
   2.7177976E-04   1.6401183E+05   -1.7678324E+00
   2.7303487E-04   1.6268155E+05   -1.7672592E+00
   2.7429577E-04   1.6136249E+05   -1.7666859E+00
   2.7556250E-04   1.6005455E+05   -1.7661124E+00
   2.7683507E-04   1.5875763E+05   -1.7655387E+00
   2.7811353E-04   1.5747164E+05   -1.7649648E+00
   2.7939788E-04   1.5619647E+05   -1.7643908E+00
   2.8068817E-04   1.5493204E+05   -1.7638166E+00
   2.8198442E-04   1.5367826E+05   -1.7632423E+00
   2.8328665E-04   1.5243502E+05   -1.7626678E+00
   2.8459490E-04   1.5120224E+05   -1.7620932E+00
   2.8590919E-04   1.4997983E+05   -1.7615185E+00
   2.8722955E-04   1.4876769E+05   -1.7609436E+00
   2.8855600E-04   1.4756574E+05   -1.7603687E+00
   2.8988859E-04   1.4637390E+05   -1.7597936E+00
   2.9122732E-04   1.4519206E+05   -1.7592184E+00
   2.9257224E-04   1.4402014E+05   -1.7586431E+00
   2.9392337E-04   1.4285807E+05   -1.7580678E+00
   2.9528074E-04   1.4170574E+05   -1.7574923E+00
   2.9664438E-04   1.4056308E+05   -1.7569168E+00
   2.9801431E-04   1.3943001E+05   -1.7563412E+00
   2.9939057E-04   1.3830644E+05   -1.7557655E+00
   3.0077319E-04   1.3719229E+05   -1.7551898E+00
   3.0216219E-04   1.3608747E+05   -1.7546140E+00
   3.0355761E-04   1.3499190E+05   -1.7540381E+00
   3.0495947E-04   1.3390552E+05   -1.7534622E+00
   3.0636780E-04   1.3282822E+05   -1.7528863E+00
   3.0778264E-04   1.3175995E+05   -1.7523103E+00
   3.0920401E-04   1.3070061E+05   -1.7517344E+00
   3.1063195E-04   1.2965013E+05   -1.7511584E+00
   3.1206648E-04   1.2860844E+05   -1.7505823E+00
   3.1350764E-04   1.2757546E+05   -1.7500063E+00
   3.1495545E-04   1.2655111E+05   -1.7494303E+00
   3.1640994E-04   1.2553532E+05   -1.7488543E+00
   3.1787116E-04   1.2452801E+05   -1.7482783E+00
   3.1933912E-04   1.2352911E+05   -1.7477023E+00
   3.2081386E-04   1.2253855E+05   -1.7471263E+00
   3.2229541E-04   1.2155625E+05   -1.7465504E+00
   3.2378381E-04   1.2058215E+05   -1.7459745E+00
   3.2527908E-04   1.1961618E+05   -1.7453986E+00
   3.2678125E-04   1.1865825E+05   -1.7448228E+00
   3.2829036E-04   1.1770831E+05   -1.7442471E+00
   3.2980644E-04   1.1676629E+05   -1.7436714E+00
   3.3132952E-04   1.1583211E+05   -1.7430958E+00
   3.3285963E-04   1.1490571E+05   -1.7425202E+00
   3.3439681E-04   1.1398702E+05   -1.7419447E+00
   3.3594109E-04   1.1307597E+05   -1.7413693E+00
   3.3749250E-04   1.1217251E+05   -1.7407940E+00
   3.3905108E-04   1.1127656E+05   -1.7402188E+00
   3.4061685E-04   1.1038805E+05   -1.7396437E+00
   3.4218986E-04   1.0950693E+05   -1.7390688E+00
   3.4377013E-04   1.0863314E+05   -1.7384939E+00
   3.4535769E-04   1.0776660E+05   -1.7379191E+00
   3.4695259E-04   1.0690725E+05   -1.7373445E+00
   3.4855485E-04   1.0605504E+05   -1.7367700E+00
   3.5016452E-04   1.0520990E+05   -1.7361957E+00
   3.5178161E-04   1.0437177E+05   -1.7356214E+00
   3.5340618E-04   1.0354059E+05   -1.7350474E+00
   3.5503824E-04   1.0271631E+05   -1.7344735E+00
   3.5667785E-04   1.0189885E+05   -1.7338998E+00
   3.5832502E-04   1.0108817E+05   -1.7333262E+00
   3.5997981E-04   1.0028420E+05   -1.7327528E+00
   3.6164223E-04   9.9486888E+04   -1.7321796E+00
   3.6331233E-04   9.8696176E+04   -1.7316066E+00
   3.6499015E-04   9.7912007E+04   -1.7310337E+00
   3.6667571E-04   9.7134325E+04   -1.7304611E+00
   3.6836906E-04   9.6363074E+04   -1.7298887E+00
   3.7007022E-04   9.5598199E+04   -1.7293165E+00
   3.7177925E-04   9.4839645E+04   -1.7287445E+00
   3.7349616E-04   9.4087358E+04   -1.7281727E+00
   3.7522101E-04   9.3341284E+04   -1.7276012E+00
   3.7695382E-04   9.2601370E+04   -1.7270299E+00
   3.7869463E-04   9.1867563E+04   -1.7264588E+00
   3.8044348E-04   9.1139811E+04   -1.7258880E+00
   3.8220041E-04   9.0418061E+04   -1.7253174E+00
   3.8396545E-04   8.9702263E+04   -1.7247471E+00
   3.8573864E-04   8.8992366E+04   -1.7241771E+00
   3.8752002E-04   8.8288318E+04   -1.7236073E+00
   3.8930963E-04   8.7590070E+04   -1.7230378E+00
   3.9110750E-04   8.6897572E+04   -1.7224686E+00
   3.9291368E-04   8.6210775E+04   -1.7218996E+00
   3.9472820E-04   8.5529631E+04   -1.7213310E+00
   3.9655109E-04   8.4854090E+04   -1.7207627E+00
   3.9838241E-04   8.4184106E+04   -1.7201947E+00
   4.0022218E-04   8.3519630E+04   -1.7196269E+00
   4.0207045E-04   8.2860615E+04   -1.7190595E+00
   4.0392725E-04   8.2207016E+04   -1.7184925E+00
   4.0579263E-04   8.1558785E+04   -1.7179257E+00
   4.0766662E-04   8.0915877E+04   -1.7173593E+00
   4.0954927E-04   8.0278246E+04   -1.7167932E+00
   4.1144061E-04   7.9645847E+04   -1.7162275E+00
   4.1334068E-04   7.9018636E+04   -1.7156621E+00
   4.1524953E-04   7.8396569E+04   -1.7150971E+00
   4.1716720E-04   7.7779601E+04   -1.7145324E+00
   4.1909372E-04   7.7167689E+04   -1.7139681E+00
   4.2102914E-04   7.6560790E+04   -1.7134042E+00
   4.2297350E-04   7.5958861E+04   -1.7128407E+00
   4.2492683E-04   7.5361861E+04   -1.7122775E+00
   4.2688919E-04   7.4769747E+04   -1.7117148E+00
   4.2886061E-04   7.4182477E+04   -1.7111524E+00
   4.3084113E-04   7.3600011E+04   -1.7105904E+00
   4.3283080E-04   7.3022307E+04   -1.7100289E+00
   4.3482966E-04   7.2449324E+04   -1.7094677E+00
   4.3683775E-04   7.1881024E+04   -1.7089070E+00
   4.3885511E-04   7.1317366E+04   -1.7083467E+00
   4.4088179E-04   7.0758310E+04   -1.7077868E+00
   4.4291783E-04   7.0203817E+04   -1.7072274E+00
   4.4496327E-04   6.9653850E+04   -1.7066684E+00
   4.4701816E-04   6.9108368E+04   -1.7061098E+00
   4.4908253E-04   6.8567335E+04   -1.7055517E+00
   4.5115644E-04   6.8030712E+04   -1.7049941E+00
   4.5323993E-04   6.7498463E+04   -1.7044369E+00
   4.5533304E-04   6.6970549E+04   -1.7038802E+00
   4.5743582E-04   6.6446935E+04   -1.7033239E+00
   4.5954830E-04   6.5927583E+04   -1.7027682E+00
   4.6167054E-04   6.5412458E+04   -1.7022129E+00
   4.6380259E-04   6.4901525E+04   -1.7016581E+00
   4.6594448E-04   6.4394746E+04   -1.7011038E+00
   4.6809626E-04   6.3892088E+04   -1.7005500E+00
   4.7025797E-04   6.3393515E+04   -1.6999967E+00
   4.7242967E-04   6.2898993E+04   -1.6994439E+00
   4.7461140E-04   6.2408487E+04   -1.6988916E+00
   4.7680321E-04   6.1921964E+04   -1.6983398E+00
   4.7900514E-04   6.1439390E+04   -1.6977886E+00
   4.8121723E-04   6.0960732E+04   -1.6972379E+00
   4.8343954E-04   6.0485956E+04   -1.6966877E+00
   4.8567212E-04   6.0015030E+04   -1.6961380E+00
   4.8791500E-04   5.9547921E+04   -1.6955890E+00
   4.9016825E-04   5.9084597E+04   -1.6950404E+00
   4.9243189E-04   5.8625026E+04   -1.6944924E+00
   4.9470600E-04   5.8169177E+04   -1.6939450E+00
   4.9699060E-04   5.7717017E+04   -1.6933981E+00
   4.9928575E-04   5.7268517E+04   -1.6928518E+00
   5.0159151E-04   5.6823644E+04   -1.6923061E+00
   5.0390791E-04   5.6382370E+04   -1.6917610E+00
   5.0623501E-04   5.5944662E+04   -1.6912164E+00
   5.0857286E-04   5.5510492E+04   -1.6906724E+00
   5.1092150E-04   5.5079829E+04   -1.6901291E+00
   5.1328099E-04   5.4652644E+04   -1.6895863E+00
   5.1565137E-04   5.4228908E+04   -1.6890441E+00
   5.1803270E-04   5.3808591E+04   -1.6885025E+00
   5.2042503E-04   5.3391665E+04   -1.6879616E+00
   5.2282841E-04   5.2978102E+04   -1.6874212E+00
   5.2524289E-04   5.2567873E+04   -1.6868815E+00
   5.2766851E-04   5.2160950E+04   -1.6863424E+00
   5.3010534E-04   5.1757306E+04   -1.6858040E+00
   5.3255342E-04   5.1356912E+04   -1.6852661E+00
   5.3501281E-04   5.0959742E+04   -1.6847289E+00
   5.3748356E-04   5.0565769E+04   -1.6841924E+00
   5.3996571E-04   5.0174965E+04   -1.6836565E+00
   5.4245933E-04   4.9787305E+04   -1.6831213E+00
   5.4496446E-04   4.9402762E+04   -1.6825867E+00
   5.4748117E-04   4.9021309E+04   -1.6820528E+00
   5.5000949E-04   4.8642922E+04   -1.6815195E+00
   5.5254949E-04   4.8267573E+04   -1.6809869E+00
   5.5510123E-04   4.7895239E+04   -1.6804550E+00
   5.5766474E-04   4.7525893E+04   -1.6799238E+00
   5.6024010E-04   4.7159510E+04   -1.6793933E+00
   5.6282734E-04   4.6796066E+04   -1.6788634E+00
   5.6542654E-04   4.6435537E+04   -1.6783343E+00
   5.6803774E-04   4.6077897E+04   -1.6778058E+00
   5.7066099E-04   4.5723123E+04   -1.6772781E+00
   5.7329637E-04   4.5371191E+04   -1.6767510E+00
   5.7594391E-04   4.5022077E+04   -1.6762247E+00
   5.7860368E-04   4.4675758E+04   -1.6756990E+00
   5.8127573E-04   4.4332210E+04   -1.6751741E+00
   5.8396012E-04   4.3991410E+04   -1.6746499E+00
   5.8665691E-04   4.3653335E+04   -1.6741265E+00
   5.8936616E-04   4.3317963E+04   -1.6736037E+00
   5.9208791E-04   4.2985271E+04   -1.6730817E+00
   5.9482223E-04   4.2655236E+04   -1.6725605E+00
   5.9756919E-04   4.2327837E+04   -1.6720400E+00
   6.0032882E-04   4.2003052E+04   -1.6715202E+00
   6.0310120E-04   4.1680858E+04   -1.6710012E+00
   6.0588639E-04   4.1361235E+04   -1.6704829E+00
   6.0868443E-04   4.1044160E+04   -1.6699654E+00
   6.1149540E-04   4.0729614E+04   -1.6694486E+00
   6.1431935E-04   4.0417574E+04   -1.6689326E+00
   6.1715634E-04   4.0108020E+04   -1.6684174E+00
   6.2000644E-04   3.9800931E+04   -1.6679030E+00
   6.2286969E-04   3.9496287E+04   -1.6673893E+00
