#        a       HoverH0(a)       dlogHdloga_of_a(a)
   1.0000000E-04   1.1108411E+06   -1.8813156E+00
   1.0046181E-04   1.1012549E+06   -1.8808981E+00
   1.0092575E-04   1.0917535E+06   -1.8804795E+00
   1.0139184E-04   1.0823362E+06   -1.8800599E+00
   1.0186008E-04   1.0730022E+06   -1.8796394E+00
   1.0233048E-04   1.0637507E+06   -1.8792178E+00
   1.0280305E-04   1.0545811E+06   -1.8787952E+00
   1.0327781E-04   1.0454925E+06   -1.8783716E+00
   1.0375475E-04   1.0364843E+06   -1.8779470E+00
   1.0423390E-04   1.0275557E+06   -1.8775214E+00
   1.0471527E-04   1.0187061E+06   -1.8770948E+00
   1.0519885E-04   1.0099346E+06   -1.8766672E+00
   1.0568467E-04   1.0012406E+06   -1.8762386E+00
   1.0617274E-04   9.9262347E+05   -1.8758090E+00
   1.0666305E-04   9.8408242E+05   -1.8753784E+00
   1.0715563E-04   9.7561681E+05   -1.8749468E+00
   1.0765049E-04   9.6722595E+05   -1.8745142E+00
   1.0814763E-04   9.5890916E+05   -1.8740807E+00
   1.0864707E-04   9.5066579E+05   -1.8736461E+00
   1.0914881E-04   9.4249518E+05   -1.8732105E+00
   1.0965287E-04   9.3439666E+05   -1.8727740E+00
   1.1015926E-04   9.2636960E+05   -1.8723364E+00
   1.1066799E-04   9.1841335E+05   -1.8718979E+00
   1.1117906E-04   9.1052727E+05   -1.8714584E+00
   1.1169250E-04   9.0271074E+05   -1.8710179E+00
   1.1220831E-04   8.9496312E+05   -1.8705764E+00
   1.1272650E-04   8.8728381E+05   -1.8701339E+00
   1.1324708E-04   8.7967219E+05   -1.8696905E+00
   1.1377007E-04   8.7212765E+05   -1.8692460E+00
   1.1429547E-04   8.6464959E+05   -1.8688006E+00
   1.1482330E-04   8.5723741E+05   -1.8683543E+00
   1.1535356E-04   8.4989052E+05   -1.8679069E+00
   1.1588628E-04   8.4260834E+05   -1.8674586E+00
   1.1642145E-04   8.3539028E+05   -1.8670093E+00
   1.1695910E-04   8.2823577E+05   -1.8665590E+00
   1.1749923E-04   8.2114423E+05   -1.8661077E+00
   1.1804185E-04   8.1411511E+05   -1.8656555E+00
   1.1858698E-04   8.0714784E+05   -1.8652024E+00
   1.1913463E-04   8.0024188E+05   -1.8647482E+00
   1.1968481E-04   7.9339666E+05   -1.8642931E+00
   1.2023752E-04   7.8661164E+05   -1.8638371E+00
   1.2079279E-04   7.7988630E+05   -1.8633800E+00
   1.2135063E-04   7.7322008E+05   -1.8629221E+00
   1.2191104E-04   7.6661246E+05   -1.8624631E+00
   1.2247403E-04   7.6006292E+05   -1.8620033E+00
   1.2303963E-04   7.5357093E+05   -1.8615424E+00
   1.2360784E-04   7.4713598E+05   -1.8610807E+00
   1.2417868E-04   7.4075756E+05   -1.8606179E+00
   1.2475215E-04   7.3443516E+05   -1.8601543E+00
   1.2532826E-04   7.2816827E+05   -1.8596897E+00
   1.2590704E-04   7.2195641E+05   -1.8592241E+00
   1.2648850E-04   7.1579908E+05   -1.8587576E+00
   1.2707263E-04   7.0969579E+05   -1.8582902E+00
   1.2765947E-04   7.0364605E+05   -1.8578218E+00
   1.2824901E-04   6.9764940E+05   -1.8573525E+00
   1.2884128E-04   6.9170535E+05   -1.8568823E+00
   1.2943628E-04   6.8581342E+05   -1.8564112E+00
   1.3003403E-04   6.7997317E+05   -1.8559391E+00
   1.3063454E-04   6.7418411E+05   -1.8554661E+00
   1.3123783E-04   6.6844580E+05   -1.8549922E+00
   1.3184390E-04   6.6275778E+05   -1.8545173E+00
   1.3245277E-04   6.5711960E+05   -1.8540416E+00
   1.3306445E-04   6.5153081E+05   -1.8535649E+00
   1.3367895E-04   6.4599097E+05   -1.8530873E+00
   1.3429630E-04   6.4049965E+05   -1.8526089E+00
   1.3491649E-04   6.3505641E+05   -1.8521295E+00
   1.3553955E-04   6.2966083E+05   -1.8516492E+00
   1.3616548E-04   6.2431246E+05   -1.8511680E+00
   1.3679431E-04   6.1901091E+05   -1.8506859E+00
   1.3742604E-04   6.1375573E+05   -1.8502029E+00
   1.3806069E-04   6.0854653E+05   -1.8497190E+00
   1.3869827E-04   6.0338288E+05   -1.8492343E+00
   1.3933879E-04   5.9826439E+05   -1.8487486E+00
   1.3998227E-04   5.9319064E+05   -1.8482621E+00
   1.4062872E-04   5.8816125E+05   -1.8477746E+00
   1.4127816E-04   5.8317580E+05   -1.8472863E+00
   1.4193060E-04   5.7823392E+05   -1.8467971E+00
   1.4258605E-04   5.7333521E+05   -1.8463071E+00
   1.4324453E-04   5.6847928E+05   -1.8458162E+00
   1.4390605E-04   5.6366576E+05   -1.8453244E+00
   1.4457062E-04   5.5889426E+05   -1.8448317E+00
   1.4523826E-04   5.5416442E+05   -1.8443382E+00
   1.4590899E-04   5.4947585E+05   -1.8438438E+00
   1.4658281E-04   5.4482819E+05   -1.8433486E+00
   1.4725974E-04   5.4022108E+05   -1.8428525E+00
   1.4793981E-04   5.3565415E+05   -1.8423556E+00
   1.4862301E-04   5.3112705E+05   -1.8418578E+00
   1.4930936E-04   5.2663942E+05   -1.8413591E+00
   1.4999889E-04   5.2219090E+05   -1.8408597E+00
   1.5069160E-04   5.1778115E+05   -1.8403594E+00
   1.5138751E-04   5.1340983E+05   -1.8398582E+00
   1.5208663E-04   5.0907659E+05   -1.8393563E+00
   1.5278899E-04   5.0478109E+05   -1.8388535E+00
   1.5349458E-04   5.0052299E+05   -1.8383498E+00
   1.5420343E-04   4.9630197E+05   -1.8378454E+00
   1.5491556E-04   4.9211769E+05   -1.8373401E+00
   1.5563098E-04   4.8796982E+05   -1.8368341E+00
   1.5634970E-04   4.8385804E+05   -1.8363272E+00
   1.5707174E-04   4.7978203E+05   -1.8358195E+00
   1.5779711E-04   4.7574147E+05   -1.8353110E+00
   1.5852584E-04   4.7173605E+05   -1.8348017E+00
   1.5925792E-04   4.6776544E+05   -1.8342916E+00
   1.5999339E-04   4.6382935E+05   -1.8337807E+00
   1.6073226E-04   4.5992746E+05   -1.8332690E+00
   1.6147454E-04   4.5605947E+05   -1.8327566E+00
   1.6222024E-04   4.5222508E+05   -1.8322433E+00
   1.6296939E-04   4.4842400E+05   -1.8317293E+00
   1.6372200E-04   4.4465591E+05   -1.8312145E+00
   1.6447809E-04   4.4092053E+05   -1.8306989E+00
   1.6523767E-04   4.3721758E+05   -1.8301826E+00
   1.6600075E-04   4.3354675E+05   -1.8296655E+00
   1.6676736E-04   4.2990776E+05   -1.8291476E+00
   1.6753751E-04   4.2630034E+05   -1.8286290E+00
   1.6831122E-04   4.2272420E+05   -1.8281096E+00
   1.6908849E-04   4.1917907E+05   -1.8275895E+00
   1.6986936E-04   4.1566466E+05   -1.8270686E+00
   1.7065384E-04   4.1218070E+05   -1.8265470E+00
   1.7144193E-04   4.0872693E+05   -1.8260247E+00
   1.7223367E-04   4.0530308E+05   -1.8255016E+00
   1.7302906E-04   4.0190888E+05   -1.8249778E+00
   1.7382813E-04   3.9854406E+05   -1.8244533E+00
   1.7463089E-04   3.9520837E+05   -1.8239280E+00
   1.7543735E-04   3.9190155E+05   -1.8234021E+00
   1.7624754E-04   3.8862334E+05   -1.8228754E+00
   1.7706147E-04   3.8537349E+05   -1.8223480E+00
   1.7787916E-04   3.8215174E+05   -1.8218199E+00
   1.7870062E-04   3.7895785E+05   -1.8212911E+00
   1.7952588E-04   3.7579157E+05   -1.8207616E+00
   1.8035495E-04   3.7265265E+05   -1.8202315E+00
   1.8118785E-04   3.6954086E+05   -1.8197006E+00
   1.8202459E-04   3.6645595E+05   -1.8191691E+00
   1.8286520E-04   3.6339768E+05   -1.8186368E+00
   1.8370969E-04   3.6036582E+05   -1.8181039E+00
   1.8455808E-04   3.5736013E+05   -1.8175704E+00
   1.8541039E-04   3.5438038E+05   -1.8170361E+00
   1.8626663E-04   3.5142635E+05   -1.8165013E+00
   1.8712683E-04   3.4849779E+05   -1.8159657E+00
   1.8799100E-04   3.4559450E+05   -1.8154295E+00
   1.8885917E-04   3.4271624E+05   -1.8148927E+00
   1.8973134E-04   3.3986279E+05   -1.8143552E+00
   1.9060754E-04   3.3703394E+05   -1.8138170E+00
   1.9148778E-04   3.3422946E+05   -1.8132783E+00
   1.9237209E-04   3.3144913E+05   -1.8127389E+00
   1.9326049E-04   3.2869276E+05   -1.8121989E+00
   1.9415299E-04   3.2596012E+05   -1.8116582E+00
   1.9504960E-04   3.2325100E+05   -1.8111170E+00
   1.9595036E-04   3.2056520E+05   -1.8105751E+00
   1.9685528E-04   3.1790251E+05   -1.8100327E+00
   1.9776438E-04   3.1526273E+05   -1.8094896E+00
   1.9867768E-04   3.1264564E+05   -1.8089459E+00
   1.9959519E-04   3.1005106E+05   -1.8084017E+00
   2.0051694E-04   3.0747878E+05   -1.8078568E+00
   2.0144295E-04   3.0492861E+05   -1.8073114E+00
   2.0237324E-04   3.0240035E+05   -1.8067654E+00
   2.0330782E-04   2.9989381E+05   -1.8062188E+00
   2.0424671E-04   2.9740879E+05   -1.8056717E+00
   2.0518995E-04   2.9494511E+05   -1.8051240E+00
   2.0613754E-04   2.9250258E+05   -1.8045757E+00
   2.0708950E-04   2.9008100E+05   -1.8040269E+00
   2.0804586E-04   2.8768021E+05   -1.8034776E+00
   2.0900664E-04   2.8530000E+05   -1.8029277E+00
   2.0997185E-04   2.8294020E+05   -1.8023772E+00
   2.1094152E-04   2.8060064E+05   -1.8018263E+00
   2.1191567E-04   2.7828113E+05   -1.8012748E+00
   2.1289432E-04   2.7598149E+05   -1.8007228E+00
   2.1387749E-04   2.7370155E+05   -1.8001702E+00
   2.1486520E-04   2.7144114E+05   -1.7996172E+00
   2.1585747E-04   2.6920008E+05   -1.7990636E+00
   2.1685432E-04   2.6697821E+05   -1.7985096E+00
   2.1785578E-04   2.6477535E+05   -1.7979550E+00
   2.1886186E-04   2.6259134E+05   -1.7974000E+00
   2.1987259E-04   2.6042601E+05   -1.7968445E+00
   2.2088798E-04   2.5827920E+05   -1.7962885E+00
   2.2190807E-04   2.5615074E+05   -1.7957320E+00
   2.2293286E-04   2.5404047E+05   -1.7951750E+00
   2.2396239E-04   2.5194823E+05   -1.7946176E+00
   2.2499667E-04   2.4987387E+05   -1.7940598E+00
   2.2603573E-04   2.4781722E+05   -1.7935014E+00
   2.2707958E-04   2.4577814E+05   -1.7929427E+00
   2.2812826E-04   2.4375646E+05   -1.7923834E+00
   2.2918178E-04   2.4175203E+05   -1.7918238E+00
   2.3024017E-04   2.3976470E+05   -1.7912637E+00
   2.3130344E-04   2.3779433E+05   -1.7907032E+00
   2.3237162E-04   2.3584075E+05   -1.7901423E+00
   2.3344474E-04   2.3390383E+05   -1.7895809E+00
   2.3452281E-04   2.3198342E+05   -1.7890192E+00
   2.3560586E-04   2.3007937E+05   -1.7884570E+00
   2.3669392E-04   2.2819154E+05   -1.7878944E+00
   2.3778699E-04   2.2631979E+05   -1.7873315E+00
   2.3888512E-04   2.2446397E+05   -1.7867681E+00
   2.3998831E-04   2.2262395E+05   -1.7862044E+00
   2.4109661E-04   2.2079958E+05   -1.7856403E+00
   2.4221001E-04   2.1899074E+05   -1.7850758E+00
   2.4332857E-04   2.1719728E+05   -1.7845110E+00
   2.4445228E-04   2.1541906E+05   -1.7839458E+00
   2.4558119E-04   2.1365596E+05   -1.7833802E+00
   2.4671531E-04   2.1190785E+05   -1.7828143E+00
   2.4785467E-04   2.1017458E+05   -1.7822481E+00
   2.4899928E-04   2.0845604E+05   -1.7816815E+00
   2.5014919E-04   2.0675209E+05   -1.7811146E+00
   2.5130440E-04   2.0506260E+05   -1.7805474E+00
   2.5246495E-04   2.0338745E+05   -1.7799798E+00
   2.5363086E-04   2.0172651E+05   -1.7794119E+00
   2.5480216E-04   2.0007966E+05   -1.7788438E+00
   2.5597886E-04   1.9844678E+05   -1.7782753E+00
   2.5716100E-04   1.9682773E+05   -1.7777065E+00
   2.5834859E-04   1.9522241E+05   -1.7771374E+00
   2.5954168E-04   1.9363069E+05   -1.7765681E+00
   2.6074027E-04   1.9205244E+05   -1.7759984E+00
   2.6194439E-04   1.9048757E+05   -1.7754285E+00
   2.6315408E-04   1.8893594E+05   -1.7748583E+00
   2.6436935E-04   1.8739744E+05   -1.7742879E+00
   2.6559024E-04   1.8587196E+05   -1.7737172E+00
   2.6681676E-04   1.8435938E+05   -1.7731463E+00
   2.6804895E-04   1.8285959E+05   -1.7725751E+00
   2.6928683E-04   1.8137248E+05   -1.7720037E+00
   2.7053042E-04   1.7989794E+05   -1.7714320E+00
   2.7177976E-04   1.7843585E+05   -1.7708601E+00
   2.7303487E-04   1.7698611E+05   -1.7702880E+00
   2.7429577E-04   1.7554862E+05   -1.7697157E+00
   2.7556250E-04   1.7412326E+05   -1.7691432E+00
   2.7683507E-04   1.7270993E+05   -1.7685704E+00
   2.7811353E-04   1.7130852E+05   -1.7679975E+00
   2.7939788E-04   1.6991894E+05   -1.7674244E+00
   2.8068817E-04   1.6854107E+05   -1.7668511E+00
   2.8198442E-04   1.6717481E+05   -1.7662776E+00
   2.8328665E-04   1.6582007E+05   -1.7657039E+00
   2.8459490E-04   1.6447674E+05   -1.7651301E+00
   2.8590919E-04   1.6314473E+05   -1.7645561E+00
   2.8722955E-04   1.6182393E+05   -1.7639820E+00
   2.8855600E-04   1.6051425E+05   -1.7634077E+00
   2.8988859E-04   1.5921559E+05   -1.7628333E+00
   2.9122732E-04   1.5792785E+05   -1.7622587E+00
   2.9257224E-04   1.5665094E+05   -1.7616840E+00
   2.9392337E-04   1.5538477E+05   -1.7611092E+00
   2.9528074E-04   1.5412925E+05   -1.7605343E+00
   2.9664438E-04   1.5288427E+05   -1.7599592E+00
   2.9801431E-04   1.5164975E+05   -1.7593841E+00
   2.9939057E-04   1.5042560E+05   -1.7588088E+00
   3.0077319E-04   1.4921172E+05   -1.7582335E+00
   3.0216219E-04   1.4800804E+05   -1.7576580E+00
   3.0355761E-04   1.4681445E+05   -1.7570825E+00
   3.0495947E-04   1.4563087E+05   -1.7565069E+00
   3.0636780E-04   1.4445722E+05   -1.7559313E+00
   3.0778264E-04   1.4329341E+05   -1.7553555E+00
   3.0920401E-04   1.4213935E+05   -1.7547798E+00
   3.1063195E-04   1.4099496E+05   -1.7542039E+00
   3.1206648E-04   1.3986015E+05   -1.7536280E+00
   3.1350764E-04   1.3873485E+05   -1.7530521E+00
   3.1495545E-04   1.3761896E+05   -1.7524762E+00
   3.1640994E-04   1.3651241E+05   -1.7519002E+00
   3.1787116E-04   1.3541512E+05   -1.7513242E+00
   3.1933912E-04   1.3432701E+05   -1.7507482E+00
   3.2081386E-04   1.3324799E+05   -1.7501721E+00
   3.2229541E-04   1.3217799E+05   -1.7495961E+00
   3.2378381E-04   1.3111694E+05   -1.7490201E+00
   3.2527908E-04   1.3006474E+05   -1.7484441E+00
   3.2678125E-04   1.2902133E+05   -1.7478681E+00
   3.2829036E-04   1.2798663E+05   -1.7472921E+00
   3.2980644E-04   1.2696057E+05   -1.7467162E+00
   3.3132952E-04   1.2594306E+05   -1.7461402E+00
   3.3285963E-04   1.2493404E+05   -1.7455644E+00
   3.3439681E-04   1.2393344E+05   -1.7449886E+00
   3.3594109E-04   1.2294117E+05   -1.7444128E+00
   3.3749250E-04   1.2195717E+05   -1.7438371E+00
   3.3905108E-04   1.2098137E+05   -1.7432614E+00
   3.4061685E-04   1.2001370E+05   -1.7426858E+00
   3.4218986E-04   1.1905408E+05   -1.7421103E+00
   3.4377013E-04   1.1810245E+05   -1.7415349E+00
   3.4535769E-04   1.1715873E+05   -1.7409596E+00
   3.4695259E-04   1.1622286E+05   -1.7403843E+00
   3.4855485E-04   1.1529478E+05   -1.7398092E+00
   3.5016452E-04   1.1437441E+05   -1.7392342E+00
   3.5178161E-04   1.1346168E+05   -1.7386593E+00
   3.5340618E-04   1.1255654E+05   -1.7380845E+00
   3.5503824E-04   1.1165891E+05   -1.7375098E+00
   3.5667785E-04   1.1076874E+05   -1.7369353E+00
   3.5832502E-04   1.0988595E+05   -1.7363609E+00
   3.5997981E-04   1.0901049E+05   -1.7357866E+00
   3.6164223E-04   1.0814229E+05   -1.7352125E+00
   3.6331233E-04   1.0728129E+05   -1.7346386E+00
   3.6499015E-04   1.0642742E+05   -1.7340648E+00
   3.6667571E-04   1.0558063E+05   -1.7334911E+00
   3.6836906E-04   1.0474085E+05   -1.7329177E+00
   3.7007022E-04   1.0390803E+05   -1.7323444E+00
   3.7177925E-04   1.0308210E+05   -1.7317713E+00
   3.7349616E-04   1.0226301E+05   -1.7311985E+00
   3.7522101E-04   1.0145069E+05   -1.7306258E+00
   3.7695382E-04   1.0064509E+05   -1.7300533E+00
   3.7869463E-04   9.9846152E+04   -1.7294810E+00
   3.8044348E-04   9.9053816E+04   -1.7289089E+00
   3.8220041E-04   9.8268027E+04   -1.7283371E+00
   3.8396545E-04   9.7488728E+04   -1.7277655E+00
   3.8573864E-04   9.6715864E+04   -1.7271941E+00
   3.8752002E-04   9.5949380E+04   -1.7266230E+00
   3.8930963E-04   9.5189221E+04   -1.7260521E+00
   3.9110750E-04   9.4435332E+04   -1.7254814E+00
   3.9291368E-04   9.3687660E+04   -1.7249110E+00
   3.9472820E-04   9.2946152E+04   -1.7243409E+00
   3.9655109E-04   9.2210755E+04   -1.7237710E+00
   3.9838241E-04   9.1481416E+04   -1.7232015E+00
   4.0022218E-04   9.0758085E+04   -1.7226322E+00
   4.0207045E-04   9.0040709E+04   -1.7220631E+00
   4.0392725E-04   8.9329237E+04   -1.7214944E+00
   4.0579263E-04   8.8623619E+04   -1.7209260E+00
   4.0766662E-04   8.7923806E+04   -1.7203579E+00
   4.0954927E-04   8.7229746E+04   -1.7197901E+00
   4.1144061E-04   8.6541392E+04   -1.7192226E+00
   4.1334068E-04   8.5858694E+04   -1.7186554E+00
   4.1524953E-04   8.5181604E+04   -1.7180885E+00
   4.1716720E-04   8.4510075E+04   -1.7175220E+00
   4.1909372E-04   8.3844058E+04   -1.7169558E+00
   4.2102914E-04   8.3183507E+04   -1.7163900E+00
   4.2297350E-04   8.2528375E+04   -1.7158245E+00
   4.2492683E-04   8.1878616E+04   -1.7152594E+00
   4.2688919E-04   8.1234184E+04   -1.7146946E+00
   4.2886061E-04   8.0595034E+04   -1.7141302E+00
   4.3084113E-04   7.9961121E+04   -1.7135662E+00
   4.3283080E-04   7.9332400E+04   -1.7130025E+00
   4.3482966E-04   7.8708826E+04   -1.7124393E+00
   4.3683775E-04   7.8090357E+04   -1.7118764E+00
   4.3885511E-04   7.7476948E+04   -1.7113139E+00
   4.4088179E-04   7.6868557E+04   -1.7107518E+00
   4.4291783E-04   7.6265141E+04   -1.7101901E+00
   4.4496327E-04   7.5666657E+04   -1.7096288E+00
   4.4701816E-04   7.5073063E+04   -1.7090680E+00
   4.4908253E-04   7.4484319E+04   -1.7085076E+00
   4.5115644E-04   7.3900383E+04   -1.7079476E+00
   4.5323993E-04   7.3321214E+04   -1.7073880E+00
   4.5533304E-04   7.2746771E+04   -1.7068288E+00
   4.5743582E-04   7.2177015E+04   -1.7062702E+00
   4.5954830E-04   7.1611905E+04   -1.7057119E+00
   4.6167054E-04   7.1051402E+04   -1.7051541E+00
   4.6380259E-04   7.0495468E+04   -1.7045968E+00
   4.6594448E-04   6.9944063E+04   -1.7040399E+00
   4.6809626E-04   6.9397149E+04   -1.7034835E+00
   4.7025797E-04   6.8854688E+04   -1.7029276E+00
   4.7242967E-04   6.8316642E+04   -1.7023722E+00
   4.7461140E-04   6.7782973E+04   -1.7018172E+00
   4.7680321E-04   6.7253646E+04   -1.7012628E+00
   4.7900514E-04   6.6728622E+04   -1.7007088E+00
   4.8121723E-04   6.6207867E+04   -1.7001554E+00
   4.8343954E-04   6.5691342E+04   -1.6996024E+00
   4.8567212E-04   6.5179014E+04   -1.6990500E+00
   4.8791500E-04   6.4670845E+04   -1.6984981E+00
   4.9016825E-04   6.4166802E+04   -1.6979467E+00
   4.9243189E-04   6.3666849E+04   -1.6973958E+00
   4.9470600E-04   6.3170951E+04   -1.6968455E+00
   4.9699060E-04   6.2679075E+04   -1.6962957E+00
   4.9928575E-04   6.2191186E+04   -1.6957464E+00
   5.0159151E-04   6.1707251E+04   -1.6951977E+00
   5.0390791E-04   6.1227236E+04   -1.6946495E+00
   5.0623501E-04   6.0751108E+04   -1.6941019E+00
   5.0857286E-04   6.0278836E+04   -1.6935549E+00
   5.1092150E-04   5.9810385E+04   -1.6930084E+00
   5.1328099E-04   5.9345724E+04   -1.6924625E+00
   5.1565137E-04   5.8884821E+04   -1.6919172E+00
   5.1803270E-04   5.8427645E+04   -1.6913725E+00
   5.2042503E-04   5.7974163E+04   -1.6908283E+00
   5.2282841E-04   5.7524345E+04   -1.6902848E+00
   5.2524289E-04   5.7078160E+04   -1.6897418E+00
   5.2766851E-04   5.6635578E+04   -1.6891994E+00
   5.3010534E-04   5.6196567E+04   -1.6886577E+00
   5.3255342E-04   5.5761099E+04   -1.6881166E+00
   5.3501281E-04   5.5329143E+04   -1.6875760E+00
   5.3748356E-04   5.4900670E+04   -1.6870361E+00
   5.3996571E-04   5.4475650E+04   -1.6864968E+00
   5.4245933E-04   5.4054055E+04   -1.6859582E+00
   5.4496446E-04   5.3635856E+04   -1.6854202E+00
   5.4748117E-04   5.3221024E+04   -1.6848828E+00
   5.5000949E-04   5.2809531E+04   -1.6843461E+00
   5.5254949E-04   5.2401350E+04   -1.6838100E+00
   5.5510123E-04   5.1996451E+04   -1.6832745E+00
   5.5766474E-04   5.1594809E+04   -1.6827398E+00
   5.6024010E-04   5.1196395E+04   -1.6822056E+00
   5.6282734E-04   5.0801182E+04   -1.6816722E+00
   5.6542654E-04   5.0409144E+04   -1.6811394E+00
   5.6803774E-04   5.0020254E+04   -1.6806073E+00
   5.7066099E-04   4.9634486E+04   -1.6800759E+00
   5.7329637E-04   4.9251814E+04   -1.6795451E+00
   5.7594391E-04   4.8872211E+04   -1.6790151E+00
   5.7860368E-04   4.8495653E+04   -1.6784857E+00
   5.8127573E-04   4.8122113E+04   -1.6779570E+00
   5.8396012E-04   4.7751566E+04   -1.6774291E+00
   5.8665691E-04   4.7383988E+04   -1.6769018E+00
   5.8936616E-04   4.7019354E+04   -1.6763752E+00
   5.9208791E-04   4.6657639E+04   -1.6758494E+00
   5.9482223E-04   4.6298819E+04   -1.6753243E+00
   5.9756919E-04   4.5942869E+04   -1.6747999E+00
   6.0032882E-04   4.5589765E+04   -1.6742762E+00
   6.0310120E-04   4.5239485E+04   -1.6737532E+00
   6.0588639E-04   4.4892004E+04   -1.6732310E+00
   6.0868443E-04   4.4547299E+04   -1.6727095E+00
   6.1149540E-04   4.4205347E+04   -1.6721888E+00
   6.1431935E-04   4.3866126E+04   -1.6716688E+00
   6.1715634E-04   4.3529611E+04   -1.6711495E+00
   6.2000644E-04   4.3195782E+04   -1.6706310E+00
   6.2286969E-04   4.2864614E+04   -1.6701133E+00
