#        a       HoverH0(a)       dlogHdloga_of_a(a)
   1.0000000E-04   1.1616438E+06   -1.8971735E+00
   1.0046181E-04   1.1515349E+06   -1.8967966E+00
   1.0092575E-04   1.1415160E+06   -1.8964187E+00
   1.0139184E-04   1.1315862E+06   -1.8960398E+00
   1.0186008E-04   1.1217448E+06   -1.8956599E+00
   1.0233048E-04   1.1119909E+06   -1.8952789E+00
   1.0280305E-04   1.1023237E+06   -1.8948970E+00
   1.0327781E-04   1.0927425E+06   -1.8945140E+00
   1.0375475E-04   1.0832465E+06   -1.8941300E+00
   1.0423390E-04   1.0738349E+06   -1.8937449E+00
   1.0471527E-04   1.0645070E+06   -1.8933589E+00
   1.0519885E-04   1.0552620E+06   -1.8929718E+00
   1.0568467E-04   1.0460992E+06   -1.8925837E+00
   1.0617274E-04   1.0370177E+06   -1.8921946E+00
   1.0666305E-04   1.0280170E+06   -1.8918044E+00
   1.0715563E-04   1.0190962E+06   -1.8914133E+00
   1.0765049E-04   1.0102546E+06   -1.8910211E+00
   1.0814763E-04   1.0014916E+06   -1.8906279E+00
   1.0864707E-04   9.9280639E+05   -1.8902337E+00
   1.0914881E-04   9.8419828E+05   -1.8898384E+00
   1.0965287E-04   9.7566658E+05   -1.8894422E+00
   1.1015926E-04   9.6721061E+05   -1.8890449E+00
   1.1066799E-04   9.5882968E+05   -1.8886466E+00
   1.1117906E-04   9.5052312E+05   -1.8882472E+00
   1.1169250E-04   9.4229026E+05   -1.8878469E+00
   1.1220831E-04   9.3413043E+05   -1.8874455E+00
   1.1272650E-04   9.2604298E+05   -1.8870432E+00
   1.1324708E-04   9.1802725E+05   -1.8866398E+00
   1.1377007E-04   9.1008260E+05   -1.8862353E+00
   1.1429547E-04   9.0220838E+05   -1.8858299E+00
   1.1482330E-04   8.9440397E+05   -1.8854235E+00
   1.1535356E-04   8.8666873E+05   -1.8850160E+00
   1.1588628E-04   8.7900204E+05   -1.8846075E+00
   1.1642145E-04   8.7140329E+05   -1.8841980E+00
   1.1695910E-04   8.6387185E+05   -1.8837875E+00
   1.1749923E-04   8.5640713E+05   -1.8833760E+00
   1.1804185E-04   8.4900852E+05   -1.8829635E+00
   1.1858698E-04   8.4167544E+05   -1.8825499E+00
   1.1913463E-04   8.3440728E+05   -1.8821354E+00
   1.1968481E-04   8.2720347E+05   -1.8817198E+00
   1.2023752E-04   8.2006342E+05   -1.8813032E+00
   1.2079279E-04   8.1298657E+05   -1.8808856E+00
   1.2135063E-04   8.0597234E+05   -1.8804670E+00
   1.2191104E-04   7.9902017E+05   -1.8800474E+00
   1.2247403E-04   7.9212950E+05   -1.8796268E+00
   1.2303963E-04   7.8529978E+05   -1.8792052E+00
   1.2360784E-04   7.7853045E+05   -1.8787826E+00
   1.2417868E-04   7.7182099E+05   -1.8783590E+00
   1.2475215E-04   7.6517084E+05   -1.8779343E+00
   1.2532826E-04   7.5857948E+05   -1.8775087E+00
   1.2590704E-04   7.5204637E+05   -1.8770821E+00
   1.2648850E-04   7.4557100E+05   -1.8766544E+00
   1.2707263E-04   7.3915283E+05   -1.8762258E+00
   1.2765947E-04   7.3279137E+05   -1.8757961E+00
   1.2824901E-04   7.2648610E+05   -1.8753655E+00
   1.2884128E-04   7.2023651E+05   -1.8749339E+00
   1.2943628E-04   7.1404211E+05   -1.8745013E+00
   1.3003403E-04   7.0790239E+05   -1.8740676E+00
   1.3063454E-04   7.0181687E+05   -1.8736330E+00
   1.3123783E-04   6.9578506E+05   -1.8731974E+00
   1.3184390E-04   6.8980648E+05   -1.8727608E+00
   1.3245277E-04   6.8388064E+05   -1.8723233E+00
   1.3306445E-04   6.7800708E+05   -1.8718847E+00
   1.3367895E-04   6.7218532E+05   -1.8714451E+00
   1.3429630E-04   6.6641491E+05   -1.8710046E+00
   1.3491649E-04   6.6069537E+05   -1.8705631E+00
   1.3553955E-04   6.5502625E+05   -1.8701206E+00
   1.3616548E-04   6.4940711E+05   -1.8696771E+00
   1.3679431E-04   6.4383749E+05   -1.8692326E+00
   1.3742604E-04   6.3831694E+05   -1.8687872E+00
   1.3806069E-04   6.3284503E+05   -1.8683408E+00
   1.3869827E-04   6.2742132E+05   -1.8678934E+00
   1.3933879E-04   6.2204537E+05   -1.8674450E+00
   1.3998227E-04   6.1671677E+05   -1.8669956E+00
   1.4062872E-04   6.1143507E+05   -1.8665453E+00
   1.4127816E-04   6.0619987E+05   -1.8660941E+00
   1.4193060E-04   6.0101074E+05   -1.8656418E+00
   1.4258605E-04   5.9586728E+05   -1.8651886E+00
   1.4324453E-04   5.9076907E+05   -1.8647344E+00
   1.4390605E-04   5.8571570E+05   -1.8642793E+00
   1.4457062E-04   5.8070679E+05   -1.8638232E+00
   1.4523826E-04   5.7574192E+05   -1.8633661E+00
   1.4590899E-04   5.7082070E+05   -1.8629081E+00
   1.4658281E-04   5.6594274E+05   -1.8624492E+00
   1.4725974E-04   5.6110765E+05   -1.8619892E+00
   1.4793981E-04   5.5631505E+05   -1.8615284E+00
   1.4862301E-04   5.5156456E+05   -1.8610666E+00
   1.4930936E-04   5.4685580E+05   -1.8606038E+00
   1.4999889E-04   5.4218839E+05   -1.8601401E+00
   1.5069160E-04   5.3756197E+05   -1.8596754E+00
   1.5138751E-04   5.3297617E+05   -1.8592099E+00
   1.5208663E-04   5.2843062E+05   -1.8587433E+00
   1.5278899E-04   5.2392497E+05   -1.8582759E+00
   1.5349458E-04   5.1945886E+05   -1.8578075E+00
   1.5420343E-04   5.1503193E+05   -1.8573381E+00
   1.5491556E-04   5.1064383E+05   -1.8568679E+00
   1.5563098E-04   5.0629422E+05   -1.8563967E+00
   1.5634970E-04   5.0198274E+05   -1.8559246E+00
   1.5707174E-04   4.9770907E+05   -1.8554515E+00
   1.5779711E-04   4.9347286E+05   -1.8549776E+00
   1.5852584E-04   4.8927377E+05   -1.8545027E+00
   1.5925792E-04   4.8511148E+05   -1.8540269E+00
   1.5999339E-04   4.8098565E+05   -1.8535502E+00
   1.6073226E-04   4.7689595E+05   -1.8530726E+00
   1.6147454E-04   4.7284208E+05   -1.8525941E+00
   1.6222024E-04   4.6882370E+05   -1.8521147E+00
   1.6296939E-04   4.6484049E+05   -1.8516343E+00
   1.6372200E-04   4.6089215E+05   -1.8511531E+00
   1.6447809E-04   4.5697836E+05   -1.8506710E+00
   1.6523767E-04   4.5309882E+05   -1.8501879E+00
   1.6600075E-04   4.4925321E+05   -1.8497040E+00
   1.6676736E-04   4.4544123E+05   -1.8492192E+00
   1.6753751E-04   4.4166258E+05   -1.8487335E+00
   1.6831122E-04   4.3791697E+05   -1.8482469E+00
   1.6908849E-04   4.3420410E+05   -1.8477595E+00
   1.6986936E-04   4.3052368E+05   -1.8472711E+00
   1.7065384E-04   4.2687541E+05   -1.8467819E+00
   1.7144193E-04   4.2325902E+05   -1.8462918E+00
   1.7223367E-04   4.1967421E+05   -1.8458009E+00
   1.7302906E-04   4.1612070E+05   -1.8453090E+00
   1.7382813E-04   4.1259822E+05   -1.8448163E+00
   1.7463089E-04   4.0910649E+05   -1.8443228E+00
   1.7543735E-04   4.0564523E+05   -1.8438284E+00
   1.7624754E-04   4.0221417E+05   -1.8433331E+00
   1.7706147E-04   3.9881304E+05   -1.8428370E+00
   1.7787916E-04   3.9544158E+05   -1.8423400E+00
   1.7870062E-04   3.9209952E+05   -1.8418422E+00
   1.7952588E-04   3.8878659E+05   -1.8413435E+00
   1.8035495E-04   3.8550255E+05   -1.8408440E+00
   1.8118785E-04   3.8224712E+05   -1.8403436E+00
   1.8202459E-04   3.7902006E+05   -1.8398425E+00
   1.8286520E-04   3.7582111E+05   -1.8393404E+00
   1.8370969E-04   3.7265002E+05   -1.8388376E+00
   1.8455808E-04   3.6950655E+05   -1.8383339E+00
   1.8541039E-04   3.6639044E+05   -1.8378295E+00
   1.8626663E-04   3.6330146E+05   -1.8373242E+00
   1.8712683E-04   3.6023936E+05   -1.8368180E+00
   1.8799100E-04   3.5720391E+05   -1.8363111E+00
   1.8885917E-04   3.5419486E+05   -1.8358034E+00
   1.8973134E-04   3.5121197E+05   -1.8352949E+00
   1.9060754E-04   3.4825503E+05   -1.8347855E+00
   1.9148778E-04   3.4532379E+05   -1.8342754E+00
   1.9237209E-04   3.4241803E+05   -1.8337645E+00
   1.9326049E-04   3.3953752E+05   -1.8332527E+00
   1.9415299E-04   3.3668204E+05   -1.8327402E+00
   1.9504960E-04   3.3385136E+05   -1.8322270E+00
   1.9595036E-04   3.3104526E+05   -1.8317129E+00
   1.9685528E-04   3.2826353E+05   -1.8311981E+00
   1.9776438E-04   3.2550594E+05   -1.8306824E+00
   1.9867768E-04   3.2277229E+05   -1.8301661E+00
   1.9959519E-04   3.2006235E+05   -1.8296489E+00
   2.0051694E-04   3.1737593E+05   -1.8291310E+00
   2.0144295E-04   3.1471280E+05   -1.8286124E+00
   2.0237324E-04   3.1207277E+05   -1.8280930E+00
   2.0330782E-04   3.0945562E+05   -1.8275728E+00
   2.0424671E-04   3.0686116E+05   -1.8270519E+00
   2.0518995E-04   3.0428918E+05   -1.8265302E+00
   2.0613754E-04   3.0173949E+05   -1.8260079E+00
   2.0708950E-04   2.9921188E+05   -1.8254848E+00
   2.0804586E-04   2.9670616E+05   -1.8249609E+00
   2.0900664E-04   2.9422213E+05   -1.8244363E+00
   2.0997185E-04   2.9175961E+05   -1.8239111E+00
   2.1094152E-04   2.8931839E+05   -1.8233851E+00
   2.1191567E-04   2.8689830E+05   -1.8228583E+00
   2.1289432E-04   2.8449914E+05   -1.8223309E+00
   2.1387749E-04   2.8212074E+05   -1.8218028E+00
   2.1486520E-04   2.7976289E+05   -1.8212740E+00
   2.1585747E-04   2.7742543E+05   -1.8207444E+00
   2.1685432E-04   2.7510817E+05   -1.8202142E+00
   2.1785578E-04   2.7281093E+05   -1.8196833E+00
   2.1886186E-04   2.7053354E+05   -1.8191517E+00
   2.1987259E-04   2.6827581E+05   -1.8186195E+00
   2.2088798E-04   2.6603758E+05   -1.8180865E+00
   2.2190807E-04   2.6381868E+05   -1.8175529E+00
   2.2293286E-04   2.6161892E+05   -1.8170187E+00
   2.2396239E-04   2.5943814E+05   -1.8164837E+00
   2.2499667E-04   2.5727618E+05   -1.8159481E+00
   2.2603573E-04   2.5513286E+05   -1.8154119E+00
   2.2707958E-04   2.5300803E+05   -1.8148750E+00
   2.2812826E-04   2.5090151E+05   -1.8143375E+00
   2.2918178E-04   2.4881314E+05   -1.8137993E+00
   2.3024017E-04   2.4674278E+05   -1.8132605E+00
   2.3130344E-04   2.4469024E+05   -1.8127211E+00
   2.3237162E-04   2.4265538E+05   -1.8121810E+00
   2.3344474E-04   2.4063805E+05   -1.8116404E+00
   2.3452281E-04   2.3863808E+05   -1.8110991E+00
   2.3560586E-04   2.3665532E+05   -1.8105572E+00
   2.3669392E-04   2.3468963E+05   -1.8100147E+00
   2.3778699E-04   2.3274084E+05   -1.8094716E+00
   2.3888512E-04   2.3080882E+05   -1.8089279E+00
   2.3998831E-04   2.2889340E+05   -1.8083836E+00
   2.4109661E-04   2.2699445E+05   -1.8078387E+00
   2.4221001E-04   2.2511182E+05   -1.8072932E+00
   2.4332857E-04   2.2324536E+05   -1.8067472E+00
   2.4445228E-04   2.2139494E+05   -1.8062006E+00
   2.4558119E-04   2.1956041E+05   -1.8056534E+00
   2.4671531E-04   2.1774163E+05   -1.8051057E+00
   2.4785467E-04   2.1593846E+05   -1.8045574E+00
   2.4899928E-04   2.1415076E+05   -1.8040085E+00
   2.5014919E-04   2.1237841E+05   -1.8034591E+00
   2.5130440E-04   2.1062125E+05   -1.8029092E+00
   2.5246495E-04   2.0887916E+05   -1.8023587E+00
   2.5363086E-04   2.0715201E+05   -1.8018077E+00
   2.5480216E-04   2.0543966E+05   -1.8012562E+00
   2.5597886E-04   2.0374198E+05   -1.8007041E+00
   2.5716100E-04   2.0205884E+05   -1.8001515E+00
   2.5834859E-04   2.0039012E+05   -1.7995985E+00
   2.5954168E-04   1.9873569E+05   -1.7990449E+00
   2.6074027E-04   1.9709542E+05   -1.7984908E+00
   2.6194439E-04   1.9546918E+05   -1.7979362E+00
   2.6315408E-04   1.9385686E+05   -1.7973811E+00
   2.6436935E-04   1.9225834E+05   -1.7968255E+00
   2.6559024E-04   1.9067348E+05   -1.7962695E+00
   2.6681676E-04   1.8910217E+05   -1.7957130E+00
   2.6804895E-04   1.8754429E+05   -1.7951560E+00
   2.6928683E-04   1.8599972E+05   -1.7945985E+00
   2.7053042E-04   1.8446835E+05   -1.7940406E+00
   2.7177976E-04   1.8295005E+05   -1.7934823E+00
   2.7303487E-04   1.8144472E+05   -1.7929235E+00
   2.7429577E-04   1.7995224E+05   -1.7923642E+00
   2.7556250E-04   1.7847250E+05   -1.7918045E+00
   2.7683507E-04   1.7700538E+05   -1.7912444E+00
   2.7811353E-04   1.7555077E+05   -1.7906838E+00
   2.7939788E-04   1.7410857E+05   -1.7901229E+00
   2.8068817E-04   1.7267866E+05   -1.7895615E+00
   2.8198442E-04   1.7126094E+05   -1.7889997E+00
   2.8328665E-04   1.6985529E+05   -1.7884375E+00
   2.8459490E-04   1.6846163E+05   -1.7878749E+00
   2.8590919E-04   1.6707982E+05   -1.7873119E+00
   2.8722955E-04   1.6570979E+05   -1.7867485E+00
   2.8855600E-04   1.6435141E+05   -1.7861847E+00
   2.8988859E-04   1.6300460E+05   -1.7856206E+00
   2.9122732E-04   1.6166924E+05   -1.7850561E+00
   2.9257224E-04   1.6034523E+05   -1.7844912E+00
   2.9392337E-04   1.5903249E+05   -1.7839260E+00
   2.9528074E-04   1.5773090E+05   -1.7833604E+00
   2.9664438E-04   1.5644037E+05   -1.7827944E+00
   2.9801431E-04   1.5516081E+05   -1.7822281E+00
   2.9939057E-04   1.5389211E+05   -1.7816615E+00
   3.0077319E-04   1.5263419E+05   -1.7810946E+00
   3.0216219E-04   1.5138694E+05   -1.7805273E+00
   3.0355761E-04   1.5015028E+05   -1.7799597E+00
   3.0495947E-04   1.4892411E+05   -1.7793918E+00
   3.0636780E-04   1.4770834E+05   -1.7788236E+00
   3.0778264E-04   1.4650288E+05   -1.7782550E+00
   3.0920401E-04   1.4530764E+05   -1.7776862E+00
   3.1063195E-04   1.4412253E+05   -1.7771171E+00
   3.1206648E-04   1.4294745E+05   -1.7765477E+00
   3.1350764E-04   1.4178233E+05   -1.7759780E+00
   3.1495545E-04   1.4062708E+05   -1.7754081E+00
   3.1640994E-04   1.3948160E+05   -1.7748379E+00
   3.1787116E-04   1.3834582E+05   -1.7742674E+00
   3.1933912E-04   1.3721965E+05   -1.7736967E+00
   3.2081386E-04   1.3610301E+05   -1.7731257E+00
   3.2229541E-04   1.3499580E+05   -1.7725545E+00
   3.2378381E-04   1.3389796E+05   -1.7719830E+00
   3.2527908E-04   1.3280939E+05   -1.7714113E+00
   3.2678125E-04   1.3173002E+05   -1.7708394E+00
   3.2829036E-04   1.3065977E+05   -1.7702672E+00
   3.2980644E-04   1.2959855E+05   -1.7696949E+00
   3.3132952E-04   1.2854630E+05   -1.7691223E+00
   3.3285963E-04   1.2750292E+05   -1.7685495E+00
   3.3439681E-04   1.2646834E+05   -1.7679765E+00
   3.3594109E-04   1.2544249E+05   -1.7674034E+00
   3.3749250E-04   1.2442530E+05   -1.7668300E+00
   3.3905108E-04   1.2341667E+05   -1.7662565E+00
   3.4061685E-04   1.2241655E+05   -1.7656828E+00
   3.4218986E-04   1.2142485E+05   -1.7651090E+00
   3.4377013E-04   1.2044150E+05   -1.7645350E+00
   3.4535769E-04   1.1946643E+05   -1.7639608E+00
   3.4695259E-04   1.1849957E+05   -1.7633865E+00
   3.4855485E-04   1.1754085E+05   -1.7628120E+00
   3.5016452E-04   1.1659019E+05   -1.7622374E+00
   3.5178161E-04   1.1564752E+05   -1.7616626E+00
   3.5340618E-04   1.1471279E+05   -1.7610878E+00
   3.5503824E-04   1.1378590E+05   -1.7605128E+00
   3.5667785E-04   1.1286681E+05   -1.7599377E+00
   3.5832502E-04   1.1195544E+05   -1.7593625E+00
   3.5997981E-04   1.1105172E+05   -1.7587872E+00
   3.6164223E-04   1.1015559E+05   -1.7582118E+00
   3.6331233E-04   1.0926698E+05   -1.7576364E+00
   3.6499015E-04   1.0838582E+05   -1.7570608E+00
   3.6667571E-04   1.0751205E+05   -1.7564852E+00
   3.6836906E-04   1.0664562E+05   -1.7559095E+00
   3.7007022E-04   1.0578644E+05   -1.7553337E+00
   3.7177925E-04   1.0493447E+05   -1.7547579E+00
   3.7349616E-04   1.0408963E+05   -1.7541820E+00
   3.7522101E-04   1.0325187E+05   -1.7536061E+00
   3.7695382E-04   1.0242112E+05   -1.7530301E+00
   3.7869463E-04   1.0159733E+05   -1.7524541E+00
   3.8044348E-04   1.0078043E+05   -1.7518781E+00
   3.8220041E-04   9.9970365E+04   -1.7513021E+00
   3.8396545E-04   9.9167074E+04   -1.7507260E+00
   3.8573864E-04   9.8370498E+04   -1.7501499E+00
   3.8752002E-04   9.7580581E+04   -1.7495739E+00
   3.8930963E-04   9.6797263E+04   -1.7489978E+00
   3.9110750E-04   9.6020488E+04   -1.7484218E+00
   3.9291368E-04   9.5250199E+04   -1.7478457E+00
   3.9472820E-04   9.4486340E+04   -1.7472697E+00
   3.9655109E-04   9.3728855E+04   -1.7466937E+00
   3.9838241E-04   9.2977691E+04   -1.7461178E+00
   4.0022218E-04   9.2232790E+04   -1.7455418E+00
   4.0207045E-04   9.1494101E+04   -1.7449660E+00
   4.0392725E-04   9.0761569E+04   -1.7443902E+00
   4.0579263E-04   9.0035140E+04   -1.7438144E+00
   4.0766662E-04   8.9314763E+04   -1.7432387E+00
   4.0954927E-04   8.8600384E+04   -1.7426631E+00
   4.1144061E-04   8.7891952E+04   -1.7420876E+00
   4.1334068E-04   8.7189416E+04   -1.7415121E+00
   4.1524953E-04   8.6492724E+04   -1.7409367E+00
   4.1716720E-04   8.5801827E+04   -1.7403614E+00
   4.1909372E-04   8.5116674E+04   -1.7397863E+00
   4.2102914E-04   8.4437217E+04   -1.7392112E+00
   4.2297350E-04   8.3763404E+04   -1.7386362E+00
   4.2492683E-04   8.3095190E+04   -1.7380614E+00
   4.2688919E-04   8.2432524E+04   -1.7374867E+00
   4.2886061E-04   8.1775359E+04   -1.7369121E+00
   4.3084113E-04   8.1123648E+04   -1.7363377E+00
   4.3283080E-04   8.0477344E+04   -1.7357634E+00
   4.3482966E-04   7.9836401E+04   -1.7351892E+00
   4.3683775E-04   7.9200771E+04   -1.7346152E+00
   4.3885511E-04   7.8570409E+04   -1.7340414E+00
   4.4088179E-04   7.7945271E+04   -1.7334677E+00
   4.4291783E-04   7.7325311E+04   -1.7328942E+00
   4.4496327E-04   7.6710485E+04   -1.7323209E+00
   4.4701816E-04   7.6100748E+04   -1.7317478E+00
   4.4908253E-04   7.5496057E+04   -1.7311749E+00
   4.5115644E-04   7.4896369E+04   -1.7306021E+00
   4.5323993E-04   7.4301640E+04   -1.7300296E+00
   4.5533304E-04   7.3711828E+04   -1.7294573E+00
   4.5743582E-04   7.3126891E+04   -1.7288852E+00
   4.5954830E-04   7.2546787E+04   -1.7283133E+00
   4.6167054E-04   7.1971474E+04   -1.7277416E+00
   4.6380259E-04   7.1400912E+04   -1.7271702E+00
   4.6594448E-04   7.0835059E+04   -1.7265990E+00
   4.6809626E-04   7.0273876E+04   -1.7260281E+00
   4.7025797E-04   6.9717322E+04   -1.7254574E+00
   4.7242967E-04   6.9165357E+04   -1.7248870E+00
   4.7461140E-04   6.8617943E+04   -1.7243168E+00
   4.7680321E-04   6.8075040E+04   -1.7237469E+00
   4.7900514E-04   6.7536610E+04   -1.7231773E+00
   4.8121723E-04   6.7002614E+04   -1.7226079E+00
   4.8343954E-04   6.6473015E+04   -1.7220389E+00
   4.8567212E-04   6.5947775E+04   -1.7214701E+00
   4.8791500E-04   6.5426857E+04   -1.7209016E+00
   4.9016825E-04   6.4910223E+04   -1.7203335E+00
   4.9243189E-04   6.4397837E+04   -1.7197656E+00
   4.9470600E-04   6.3889663E+04   -1.7191981E+00
   4.9699060E-04   6.3385664E+04   -1.7186308E+00
   4.9928575E-04   6.2885806E+04   -1.7180639E+00
   5.0159151E-04   6.2390053E+04   -1.7174974E+00
   5.0390791E-04   6.1898369E+04   -1.7169312E+00
   5.0623501E-04   6.1410720E+04   -1.7163653E+00
   5.0857286E-04   6.0927072E+04   -1.7157997E+00
   5.1092150E-04   6.0447391E+04   -1.7152346E+00
   5.1328099E-04   5.9971642E+04   -1.7146698E+00
   5.1565137E-04   5.9499792E+04   -1.7141053E+00
   5.1803270E-04   5.9031809E+04   -1.7135412E+00
   5.2042503E-04   5.8567658E+04   -1.7129775E+00
   5.2282841E-04   5.8107307E+04   -1.7124142E+00
   5.2524289E-04   5.7650725E+04   -1.7118513E+00
   5.2766851E-04   5.7197878E+04   -1.7112887E+00
   5.3010534E-04   5.6748736E+04   -1.7107266E+00
   5.3255342E-04   5.6303266E+04   -1.7101649E+00
   5.3501281E-04   5.5861438E+04   -1.7096036E+00
   5.3748356E-04   5.5423220E+04   -1.7090427E+00
   5.3996571E-04   5.4988582E+04   -1.7084822E+00
   5.4245933E-04   5.4557493E+04   -1.7079221E+00
   5.4496446E-04   5.4129924E+04   -1.7073625E+00
   5.4748117E-04   5.3705843E+04   -1.7068033E+00
   5.5000949E-04   5.3285223E+04   -1.7062446E+00
   5.5254949E-04   5.2868033E+04   -1.7056863E+00
   5.5510123E-04   5.2454243E+04   -1.7051285E+00
   5.5766474E-04   5.2043827E+04   -1.7045711E+00
   5.6024010E-04   5.1636754E+04   -1.7040142E+00
   5.6282734E-04   5.1232996E+04   -1.7034577E+00
   5.6542654E-04   5.0832526E+04   -1.7029018E+00
   5.6803774E-04   5.0435315E+04   -1.7023463E+00
   5.7066099E-04   5.0041336E+04   -1.7017913E+00
   5.7329637E-04   4.9650562E+04   -1.7012368E+00
   5.7594391E-04   4.9262965E+04   -1.7006828E+00
   5.7860368E-04   4.8878519E+04   -1.7001293E+00
   5.8127573E-04   4.8497196E+04   -1.6995763E+00
   5.8396012E-04   4.8118971E+04   -1.6990238E+00
   5.8665691E-04   4.7743817E+04   -1.6984718E+00
   5.8936616E-04   4.7371708E+04   -1.6979204E+00
   5.9208791E-04   4.7002619E+04   -1.6973695E+00
   5.9482223E-04   4.6636524E+04   -1.6968191E+00
   5.9756919E-04   4.6273397E+04   -1.6962692E+00
   6.0032882E-04   4.5913214E+04   -1.6957199E+00
   6.0310120E-04   4.5555950E+04   -1.6951711E+00
   6.0588639E-04   4.5201580E+04   -1.6946229E+00
   6.0868443E-04   4.4850080E+04   -1.6940753E+00
   6.1149540E-04   4.4501426E+04   -1.6935282E+00
   6.1431935E-04   4.4155593E+04   -1.6929817E+00
   6.1715634E-04   4.3812558E+04   -1.6924357E+00
   6.2000644E-04   4.3472298E+04   -1.6918904E+00
   6.2286969E-04   4.3134788E+04   -1.6913456E+00
