#        a       HoverH0(a)       dlogHdloga_of_a(a)
   1.0000000E-04   1.1221637E+06   -1.8797119E+00
   1.0046181E-04   1.1124880E+06   -1.8792904E+00
   1.0092575E-04   1.1028979E+06   -1.8788680E+00
   1.0139184E-04   1.0933926E+06   -1.8784446E+00
   1.0186008E-04   1.0839713E+06   -1.8780202E+00
   1.0233048E-04   1.0746333E+06   -1.8775948E+00
   1.0280305E-04   1.0653778E+06   -1.8771683E+00
   1.0327781E-04   1.0562041E+06   -1.8767409E+00
   1.0375475E-04   1.0471115E+06   -1.8763125E+00
   1.0423390E-04   1.0380992E+06   -1.8758831E+00
   1.0471527E-04   1.0291665E+06   -1.8754526E+00
   1.0519885E-04   1.0203127E+06   -1.8750212E+00
   1.0568467E-04   1.0115371E+06   -1.8745888E+00
   1.0617274E-04   1.0028389E+06   -1.8741554E+00
   1.0666305E-04   9.9421756E+05   -1.8737210E+00
   1.0715563E-04   9.8567230E+05   -1.8732856E+00
   1.0765049E-04   9.7720244E+05   -1.8728492E+00
   1.0814763E-04   9.6880731E+05   -1.8724118E+00
   1.0864707E-04   9.6048625E+05   -1.8719735E+00
   1.0914881E-04   9.5223857E+05   -1.8715341E+00
   1.0965287E-04   9.4406364E+05   -1.8710938E+00
   1.1015926E-04   9.3596078E+05   -1.8706525E+00
   1.1066799E-04   9.2792936E+05   -1.8702102E+00
   1.1117906E-04   9.1996874E+05   -1.8697669E+00
   1.1169250E-04   9.1207827E+05   -1.8693227E+00
   1.1220831E-04   9.0425733E+05   -1.8688774E+00
   1.1272650E-04   8.9650529E+05   -1.8684312E+00
   1.1324708E-04   8.8882155E+05   -1.8679840E+00
   1.1377007E-04   8.8120547E+05   -1.8675358E+00
   1.1429547E-04   8.7365647E+05   -1.8670867E+00
   1.1482330E-04   8.6617392E+05   -1.8666366E+00
   1.1535356E-04   8.5875725E+05   -1.8661855E+00
   1.1588628E-04   8.5140585E+05   -1.8657335E+00
   1.1642145E-04   8.4411914E+05   -1.8652805E+00
   1.1695910E-04   8.3689655E+05   -1.8648265E+00
   1.1749923E-04   8.2973749E+05   -1.8643716E+00
   1.1804185E-04   8.2264140E+05   -1.8639157E+00
   1.1858698E-04   8.1560771E+05   -1.8634588E+00
   1.1913463E-04   8.0863586E+05   -1.8630010E+00
   1.1968481E-04   8.0172530E+05   -1.8625423E+00
   1.2023752E-04   7.9487548E+05   -1.8620825E+00
   1.2079279E-04   7.8808585E+05   -1.8616219E+00
   1.2135063E-04   7.8135589E+05   -1.8611603E+00
   1.2191104E-04   7.7468504E+05   -1.8606977E+00
   1.2247403E-04   7.6807278E+05   -1.8602342E+00
   1.2303963E-04   7.6151859E+05   -1.8597698E+00
   1.2360784E-04   7.5502195E+05   -1.8593044E+00
   1.2417868E-04   7.4858233E+05   -1.8588380E+00
   1.2475215E-04   7.4219924E+05   -1.8583708E+00
   1.2532826E-04   7.3587216E+05   -1.8579026E+00
   1.2590704E-04   7.2960059E+05   -1.8574334E+00
   1.2648850E-04   7.2338404E+05   -1.8569634E+00
   1.2707263E-04   7.1722201E+05   -1.8564924E+00
   1.2765947E-04   7.1111401E+05   -1.8560205E+00
   1.2824901E-04   7.0505957E+05   -1.8555476E+00
   1.2884128E-04   6.9905820E+05   -1.8550739E+00
   1.2943628E-04   6.9310943E+05   -1.8545992E+00
   1.3003403E-04   6.8721278E+05   -1.8541236E+00
   1.3063454E-04   6.8136780E+05   -1.8536471E+00
   1.3123783E-04   6.7557401E+05   -1.8531697E+00
   1.3184390E-04   6.6983096E+05   -1.8526914E+00
   1.3245277E-04   6.6413820E+05   -1.8522121E+00
   1.3306445E-04   6.5849528E+05   -1.8517320E+00
   1.3367895E-04   6.5290174E+05   -1.8512510E+00
   1.3429630E-04   6.4735716E+05   -1.8507690E+00
   1.3491649E-04   6.4186109E+05   -1.8502862E+00
   1.3553955E-04   6.3641310E+05   -1.8498025E+00
   1.3616548E-04   6.3101275E+05   -1.8493178E+00
   1.3679431E-04   6.2565964E+05   -1.8488323E+00
   1.3742604E-04   6.2035332E+05   -1.8483459E+00
   1.3806069E-04   6.1509339E+05   -1.8478587E+00
   1.3869827E-04   6.0987942E+05   -1.8473705E+00
   1.3933879E-04   6.0471102E+05   -1.8468815E+00
   1.3998227E-04   5.9958776E+05   -1.8463916E+00
   1.4062872E-04   5.9450925E+05   -1.8459008E+00
   1.4127816E-04   5.8947510E+05   -1.8454092E+00
   1.4193060E-04   5.8448489E+05   -1.8449167E+00
   1.4258605E-04   5.7953825E+05   -1.8444233E+00
   1.4324453E-04   5.7463478E+05   -1.8439291E+00
   1.4390605E-04   5.6977409E+05   -1.8434340E+00
   1.4457062E-04   5.6495581E+05   -1.8429380E+00
   1.4523826E-04   5.6017956E+05   -1.8424412E+00
   1.4590899E-04   5.5544496E+05   -1.8419436E+00
   1.4658281E-04   5.5075164E+05   -1.8414451E+00
   1.4725974E-04   5.4609924E+05   -1.8409458E+00
   1.4793981E-04   5.4148737E+05   -1.8404456E+00
   1.4862301E-04   5.3691570E+05   -1.8399446E+00
   1.4930936E-04   5.3238385E+05   -1.8394428E+00
   1.4999889E-04   5.2789148E+05   -1.8389402E+00
   1.5069160E-04   5.2343823E+05   -1.8384367E+00
   1.5138751E-04   5.1902374E+05   -1.8379324E+00
   1.5208663E-04   5.1464769E+05   -1.8374273E+00
   1.5278899E-04   5.1030972E+05   -1.8369213E+00
   1.5349458E-04   5.0600950E+05   -1.8364146E+00
   1.5420343E-04   5.0174668E+05   -1.8359070E+00
   1.5491556E-04   4.9752094E+05   -1.8353987E+00
   1.5563098E-04   4.9333195E+05   -1.8348895E+00
   1.5634970E-04   4.8917938E+05   -1.8343796E+00
   1.5707174E-04   4.8506290E+05   -1.8338688E+00
   1.5779711E-04   4.8098219E+05   -1.8333573E+00
   1.5852584E-04   4.7693694E+05   -1.8328449E+00
   1.5925792E-04   4.7292682E+05   -1.8323318E+00
   1.5999339E-04   4.6895154E+05   -1.8318179E+00
   1.6073226E-04   4.6501077E+05   -1.8313033E+00
   1.6147454E-04   4.6110421E+05   -1.8307878E+00
   1.6222024E-04   4.5723156E+05   -1.8302716E+00
   1.6296939E-04   4.5339251E+05   -1.8297547E+00
   1.6372200E-04   4.4958676E+05   -1.8292369E+00
   1.6447809E-04   4.4581403E+05   -1.8287184E+00
   1.6523767E-04   4.4207401E+05   -1.8281992E+00
   1.6600075E-04   4.3836642E+05   -1.8276792E+00
   1.6676736E-04   4.3469096E+05   -1.8271585E+00
   1.6753751E-04   4.3104736E+05   -1.8266370E+00
   1.6831122E-04   4.2743532E+05   -1.8261148E+00
   1.6908849E-04   4.2385458E+05   -1.8255918E+00
   1.6986936E-04   4.2030484E+05   -1.8250682E+00
   1.7065384E-04   4.1678584E+05   -1.8245438E+00
   1.7144193E-04   4.1329730E+05   -1.8240186E+00
   1.7223367E-04   4.0983895E+05   -1.8234928E+00
   1.7302906E-04   4.0641052E+05   -1.8229662E+00
   1.7382813E-04   4.0301176E+05   -1.8224390E+00
   1.7463089E-04   3.9964239E+05   -1.8219110E+00
   1.7543735E-04   3.9630215E+05   -1.8213823E+00
   1.7624754E-04   3.9299079E+05   -1.8208530E+00
   1.7706147E-04   3.8970805E+05   -1.8203229E+00
   1.7787916E-04   3.8645367E+05   -1.8197922E+00
   1.7870062E-04   3.8322741E+05   -1.8192608E+00
   1.7952588E-04   3.8002901E+05   -1.8187287E+00
   1.8035495E-04   3.7685823E+05   -1.8181959E+00
   1.8118785E-04   3.7371483E+05   -1.8176624E+00
   1.8202459E-04   3.7059856E+05   -1.8171283E+00
   1.8286520E-04   3.6750917E+05   -1.8165935E+00
   1.8370969E-04   3.6444644E+05   -1.8160581E+00
   1.8455808E-04   3.6141013E+05   -1.8155220E+00
   1.8541039E-04   3.5839999E+05   -1.8149853E+00
   1.8626663E-04   3.5541581E+05   -1.8144479E+00
   1.8712683E-04   3.5245735E+05   -1.8139099E+00
   1.8799100E-04   3.4952438E+05   -1.8133712E+00
   1.8885917E-04   3.4661668E+05   -1.8128319E+00
   1.8973134E-04   3.4373402E+05   -1.8122920E+00
   1.9060754E-04   3.4087619E+05   -1.8117515E+00
   1.9148778E-04   3.3804296E+05   -1.8112104E+00
   1.9237209E-04   3.3523411E+05   -1.8106686E+00
   1.9326049E-04   3.3244943E+05   -1.8101262E+00
   1.9415299E-04   3.2968871E+05   -1.8095833E+00
   1.9504960E-04   3.2695173E+05   -1.8090397E+00
   1.9595036E-04   3.2423829E+05   -1.8084956E+00
   1.9685528E-04   3.2154817E+05   -1.8079508E+00
   1.9776438E-04   3.1888117E+05   -1.8074055E+00
   1.9867768E-04   3.1623709E+05   -1.8068596E+00
   1.9959519E-04   3.1361572E+05   -1.8063131E+00
   2.0051694E-04   3.1101686E+05   -1.8057661E+00
   2.0144295E-04   3.0844032E+05   -1.8052185E+00
   2.0237324E-04   3.0588589E+05   -1.8046703E+00
   2.0330782E-04   3.0335339E+05   -1.8041216E+00
   2.0424671E-04   3.0084261E+05   -1.8035724E+00
   2.0518995E-04   2.9835337E+05   -1.8030226E+00
   2.0613754E-04   2.9588548E+05   -1.8024722E+00
   2.0708950E-04   2.9343875E+05   -1.8019214E+00
   2.0804586E-04   2.9101298E+05   -1.8013700E+00
   2.0900664E-04   2.8860801E+05   -1.8008180E+00
   2.0997185E-04   2.8622363E+05   -1.8002656E+00
   2.1094152E-04   2.8385968E+05   -1.7997126E+00
   2.1191567E-04   2.8151597E+05   -1.7991592E+00
   2.1289432E-04   2.7919233E+05   -1.7986052E+00
   2.1387749E-04   2.7688856E+05   -1.7980507E+00
   2.1486520E-04   2.7460452E+05   -1.7974958E+00
   2.1585747E-04   2.7234000E+05   -1.7969404E+00
   2.1685432E-04   2.7009486E+05   -1.7963844E+00
   2.1785578E-04   2.6786891E+05   -1.7958280E+00
   2.1886186E-04   2.6566198E+05   -1.7952712E+00
   2.1987259E-04   2.6347392E+05   -1.7947138E+00
   2.2088798E-04   2.6130455E+05   -1.7941561E+00
   2.2190807E-04   2.5915370E+05   -1.7935978E+00
   2.2293286E-04   2.5702122E+05   -1.7930391E+00
   2.2396239E-04   2.5490695E+05   -1.7924800E+00
   2.2499667E-04   2.5281072E+05   -1.7919204E+00
   2.2603573E-04   2.5073237E+05   -1.7913604E+00
   2.2707958E-04   2.4867175E+05   -1.7908000E+00
   2.2812826E-04   2.4662871E+05   -1.7902391E+00
   2.2918178E-04   2.4460308E+05   -1.7896778E+00
   2.3024017E-04   2.4259471E+05   -1.7891161E+00
   2.3130344E-04   2.4060346E+05   -1.7885540E+00
   2.3237162E-04   2.3862917E+05   -1.7879915E+00
   2.3344474E-04   2.3667170E+05   -1.7874287E+00
   2.3452281E-04   2.3473089E+05   -1.7868654E+00
   2.3560586E-04   2.3280660E+05   -1.7863017E+00
   2.3669392E-04   2.3089869E+05   -1.7857377E+00
   2.3778699E-04   2.2900701E+05   -1.7851733E+00
   2.3888512E-04   2.2713141E+05   -1.7846085E+00
   2.3998831E-04   2.2527177E+05   -1.7840434E+00
   2.4109661E-04   2.2342793E+05   -1.7834779E+00
   2.4221001E-04   2.2159976E+05   -1.7829120E+00
   2.4332857E-04   2.1978712E+05   -1.7823459E+00
   2.4445228E-04   2.1798988E+05   -1.7817793E+00
   2.4558119E-04   2.1620790E+05   -1.7812125E+00
   2.4671531E-04   2.1444105E+05   -1.7806453E+00
   2.4785467E-04   2.1268919E+05   -1.7800778E+00
   2.4899928E-04   2.1095219E+05   -1.7795100E+00
   2.5014919E-04   2.0922993E+05   -1.7789419E+00
   2.5130440E-04   2.0752228E+05   -1.7783734E+00
   2.5246495E-04   2.0582909E+05   -1.7778047E+00
   2.5363086E-04   2.0415026E+05   -1.7772357E+00
   2.5480216E-04   2.0248566E+05   -1.7766664E+00
   2.5597886E-04   2.0083515E+05   -1.7760968E+00
   2.5716100E-04   1.9919862E+05   -1.7755269E+00
   2.5834859E-04   1.9757594E+05   -1.7749568E+00
   2.5954168E-04   1.9596700E+05   -1.7743864E+00
   2.6074027E-04   1.9437167E+05   -1.7738158E+00
   2.6194439E-04   1.9278984E+05   -1.7732449E+00
   2.6315408E-04   1.9122138E+05   -1.7726737E+00
   2.6436935E-04   1.8966618E+05   -1.7721023E+00
   2.6559024E-04   1.8812412E+05   -1.7715307E+00
   2.6681676E-04   1.8659510E+05   -1.7709589E+00
   2.6804895E-04   1.8507898E+05   -1.7703868E+00
   2.6928683E-04   1.8357568E+05   -1.7698145E+00
   2.7053042E-04   1.8208506E+05   -1.7692421E+00
   2.7177976E-04   1.8060702E+05   -1.7686694E+00
   2.7303487E-04   1.7914145E+05   -1.7680965E+00
   2.7429577E-04   1.7768825E+05   -1.7675234E+00
   2.7556250E-04   1.7624730E+05   -1.7669501E+00
   2.7683507E-04   1.7481849E+05   -1.7663767E+00
   2.7811353E-04   1.7340173E+05   -1.7658030E+00
   2.7939788E-04   1.7199690E+05   -1.7652293E+00
   2.8068817E-04   1.7060391E+05   -1.7646553E+00
   2.8198442E-04   1.6922264E+05   -1.7640812E+00
   2.8328665E-04   1.6785300E+05   -1.7635069E+00
   2.8459490E-04   1.6649489E+05   -1.7629325E+00
   2.8590919E-04   1.6514821E+05   -1.7623580E+00
   2.8722955E-04   1.6381285E+05   -1.7617833E+00
   2.8855600E-04   1.6248871E+05   -1.7612085E+00
   2.8988859E-04   1.6117571E+05   -1.7606336E+00
   2.9122732E-04   1.5987374E+05   -1.7600586E+00
   2.9257224E-04   1.5858271E+05   -1.7594835E+00
   2.9392337E-04   1.5730252E+05   -1.7589082E+00
   2.9528074E-04   1.5603308E+05   -1.7583329E+00
   2.9664438E-04   1.5477430E+05   -1.7577575E+00
   2.9801431E-04   1.5352607E+05   -1.7571820E+00
   2.9939057E-04   1.5228832E+05   -1.7566064E+00
   3.0077319E-04   1.5106095E+05   -1.7560308E+00
   3.0216219E-04   1.4984386E+05   -1.7554550E+00
   3.0355761E-04   1.4863698E+05   -1.7548793E+00
   3.0495947E-04   1.4744021E+05   -1.7543034E+00
   3.0636780E-04   1.4625346E+05   -1.7537276E+00
   3.0778264E-04   1.4507665E+05   -1.7531517E+00
   3.0920401E-04   1.4390969E+05   -1.7525757E+00
   3.1063195E-04   1.4275249E+05   -1.7519997E+00
   3.1206648E-04   1.4160498E+05   -1.7514238E+00
   3.1350764E-04   1.4046706E+05   -1.7508477E+00
   3.1495545E-04   1.3933866E+05   -1.7502717E+00
   3.1640994E-04   1.3821969E+05   -1.7496957E+00
   3.1787116E-04   1.3711007E+05   -1.7491197E+00
   3.1933912E-04   1.3600972E+05   -1.7485437E+00
   3.2081386E-04   1.3491855E+05   -1.7479677E+00
   3.2229541E-04   1.3383650E+05   -1.7473917E+00
   3.2378381E-04   1.3276347E+05   -1.7468157E+00
   3.2527908E-04   1.3169940E+05   -1.7462398E+00
   3.2678125E-04   1.3064421E+05   -1.7456640E+00
   3.2829036E-04   1.2959781E+05   -1.7450881E+00
   3.2980644E-04   1.2856013E+05   -1.7445123E+00
   3.3132952E-04   1.2753110E+05   -1.7439366E+00
   3.3285963E-04   1.2651065E+05   -1.7433610E+00
   3.3439681E-04   1.2549869E+05   -1.7427854E+00
   3.3594109E-04   1.2449515E+05   -1.7422099E+00
   3.3749250E-04   1.2349997E+05   -1.7416344E+00
   3.3905108E-04   1.2251307E+05   -1.7410591E+00
   3.4061685E-04   1.2153438E+05   -1.7404838E+00
   3.4218986E-04   1.2056382E+05   -1.7399087E+00
   3.4377013E-04   1.1960133E+05   -1.7393336E+00
   3.4535769E-04   1.1864684E+05   -1.7387587E+00
   3.4695259E-04   1.1770028E+05   -1.7381839E+00
   3.4855485E-04   1.1676158E+05   -1.7376092E+00
   3.5016452E-04   1.1583068E+05   -1.7370347E+00
   3.5178161E-04   1.1490750E+05   -1.7364602E+00
   3.5340618E-04   1.1399198E+05   -1.7358860E+00
   3.5503824E-04   1.1308405E+05   -1.7353118E+00
   3.5667785E-04   1.1218365E+05   -1.7347379E+00
   3.5832502E-04   1.1129071E+05   -1.7341640E+00
   3.5997981E-04   1.1040518E+05   -1.7335904E+00
   3.6164223E-04   1.0952698E+05   -1.7330169E+00
   3.6331233E-04   1.0865605E+05   -1.7324436E+00
   3.6499015E-04   1.0779233E+05   -1.7318705E+00
   3.6667571E-04   1.0693576E+05   -1.7312976E+00
   3.6836906E-04   1.0608627E+05   -1.7307249E+00
   3.7007022E-04   1.0524382E+05   -1.7301524E+00
   3.7177925E-04   1.0440832E+05   -1.7295800E+00
   3.7349616E-04   1.0357974E+05   -1.7290079E+00
   3.7522101E-04   1.0275800E+05   -1.7284361E+00
   3.7695382E-04   1.0194305E+05   -1.7278644E+00
   3.7869463E-04   1.0113482E+05   -1.7272930E+00
   3.8044348E-04   1.0033327E+05   -1.7267218E+00
   3.8220041E-04   9.9538336E+04   -1.7261509E+00
   3.8396545E-04   9.8749958E+04   -1.7255802E+00
   3.8573864E-04   9.7968082E+04   -1.7250098E+00
   3.8752002E-04   9.7192651E+04   -1.7244396E+00
   3.8930963E-04   9.6423612E+04   -1.7238697E+00
   3.9110750E-04   9.5660908E+04   -1.7233001E+00
   3.9291368E-04   9.4904487E+04   -1.7227307E+00
   3.9472820E-04   9.4154294E+04   -1.7221617E+00
   3.9655109E-04   9.3410275E+04   -1.7215929E+00
   3.9838241E-04   9.2672379E+04   -1.7210244E+00
   4.0022218E-04   9.1940553E+04   -1.7204563E+00
   4.0207045E-04   9.1214744E+04   -1.7198884E+00
   4.0392725E-04   9.0494902E+04   -1.7193208E+00
   4.0579263E-04   8.9780976E+04   -1.7187536E+00
   4.0766662E-04   8.9072914E+04   -1.7181867E+00
   4.0954927E-04   8.8370668E+04   -1.7176201E+00
   4.1144061E-04   8.7674187E+04   -1.7170539E+00
   4.1334068E-04   8.6983421E+04   -1.7164880E+00
   4.1524953E-04   8.6298323E+04   -1.7159225E+00
   4.1716720E-04   8.5618844E+04   -1.7153573E+00
   4.1909372E-04   8.4944936E+04   -1.7147925E+00
   4.2102914E-04   8.4276552E+04   -1.7142280E+00
   4.2297350E-04   8.3613644E+04   -1.7136639E+00
   4.2492683E-04   8.2956166E+04   -1.7131002E+00
   4.2688919E-04   8.2304072E+04   -1.7125369E+00
   4.2886061E-04   8.1657316E+04   -1.7119739E+00
   4.3084113E-04   8.1015852E+04   -1.7114114E+00
   4.3283080E-04   8.0379635E+04   -1.7108492E+00
   4.3482966E-04   7.9748621E+04   -1.7102875E+00
   4.3683775E-04   7.9122766E+04   -1.7097261E+00
   4.3885511E-04   7.8502025E+04   -1.7091652E+00
   4.4088179E-04   7.7886355E+04   -1.7086047E+00
   4.4291783E-04   7.7275713E+04   -1.7080446E+00
   4.4496327E-04   7.6670056E+04   -1.7074850E+00
   4.4701816E-04   7.6069342E+04   -1.7069258E+00
   4.4908253E-04   7.5473530E+04   -1.7063670E+00
   4.5115644E-04   7.4882576E+04   -1.7058087E+00
   4.5323993E-04   7.4296441E+04   -1.7052508E+00
   4.5533304E-04   7.3715084E+04   -1.7046934E+00
   4.5743582E-04   7.3138463E+04   -1.7041365E+00
   4.5954830E-04   7.2566539E+04   -1.7035800E+00
   4.6167054E-04   7.1999271E+04   -1.7030240E+00
   4.6380259E-04   7.1436621E+04   -1.7024685E+00
   4.6594448E-04   7.0878549E+04   -1.7019135E+00
   4.6809626E-04   7.0325017E+04   -1.7013590E+00
   4.7025797E-04   6.9775985E+04   -1.7008049E+00
   4.7242967E-04   6.9231417E+04   -1.7002514E+00
   4.7461140E-04   6.8691274E+04   -1.6996984E+00
   4.7680321E-04   6.8155518E+04   -1.6991458E+00
   4.7900514E-04   6.7624113E+04   -1.6985938E+00
   4.8121723E-04   6.7097023E+04   -1.6980423E+00
   4.8343954E-04   6.6574210E+04   -1.6974914E+00
   4.8567212E-04   6.6055638E+04   -1.6969410E+00
   4.8791500E-04   6.5541271E+04   -1.6963911E+00
   4.9016825E-04   6.5031075E+04   -1.6958417E+00
   4.9243189E-04   6.4525013E+04   -1.6952929E+00
   4.9470600E-04   6.4023051E+04   -1.6947447E+00
   4.9699060E-04   6.3525154E+04   -1.6941970E+00
   4.9928575E-04   6.3031289E+04   -1.6936499E+00
   5.0159151E-04   6.2541420E+04   -1.6931033E+00
   5.0390791E-04   6.2055515E+04   -1.6925573E+00
   5.0623501E-04   6.1573540E+04   -1.6920119E+00
   5.0857286E-04   6.1095462E+04   -1.6914671E+00
   5.1092150E-04   6.0621248E+04   -1.6909228E+00
   5.1328099E-04   6.0150865E+04   -1.6903792E+00
   5.1565137E-04   5.9684282E+04   -1.6898361E+00
   5.1803270E-04   5.9221466E+04   -1.6892936E+00
   5.2042503E-04   5.8762385E+04   -1.6887518E+00
   5.2282841E-04   5.8307009E+04   -1.6882106E+00
   5.2524289E-04   5.7855306E+04   -1.6876699E+00
   5.2766851E-04   5.7407245E+04   -1.6871299E+00
   5.3010534E-04   5.6962796E+04   -1.6865905E+00
   5.3255342E-04   5.6521928E+04   -1.6860518E+00
   5.3501281E-04   5.6084612E+04   -1.6855137E+00
   5.3748356E-04   5.5650817E+04   -1.6849762E+00
   5.3996571E-04   5.5220513E+04   -1.6844393E+00
   5.4245933E-04   5.4793673E+04   -1.6839031E+00
   5.4496446E-04   5.4370266E+04   -1.6833676E+00
   5.4748117E-04   5.3950264E+04   -1.6828327E+00
   5.5000949E-04   5.3533638E+04   -1.6822985E+00
   5.5254949E-04   5.3120361E+04   -1.6817649E+00
   5.5510123E-04   5.2710403E+04   -1.6812320E+00
   5.5766474E-04   5.2303737E+04   -1.6806998E+00
   5.6024010E-04   5.1900336E+04   -1.6801683E+00
   5.6282734E-04   5.1500173E+04   -1.6796374E+00
   5.6542654E-04   5.1103220E+04   -1.6791072E+00
   5.6803774E-04   5.0709450E+04   -1.6785778E+00
   5.7066099E-04   5.0318837E+04   -1.6780490E+00
   5.7329637E-04   4.9931354E+04   -1.6775209E+00
   5.7594391E-04   4.9546976E+04   -1.6769935E+00
   5.7860368E-04   4.9165676E+04   -1.6764668E+00
   5.8127573E-04   4.8787429E+04   -1.6759409E+00
   5.8396012E-04   4.8412209E+04   -1.6754156E+00
   5.8665691E-04   4.8039991E+04   -1.6748911E+00
   5.8936616E-04   4.7670749E+04   -1.6743673E+00
   5.9208791E-04   4.7304461E+04   -1.6738442E+00
   5.9482223E-04   4.6941099E+04   -1.6733219E+00
   5.9756919E-04   4.6580641E+04   -1.6728003E+00
   6.0032882E-04   4.6223061E+04   -1.6722794E+00
   6.0310120E-04   4.5868337E+04   -1.6717593E+00
   6.0588639E-04   4.5516443E+04   -1.6712399E+00
   6.0868443E-04   4.5167358E+04   -1.6707213E+00
   6.1149540E-04   4.4821057E+04   -1.6702035E+00
   6.1431935E-04   4.4477517E+04   -1.6696864E+00
   6.1715634E-04   4.4136715E+04   -1.6691700E+00
   6.2000644E-04   4.3798629E+04   -1.6686544E+00
   6.2286969E-04   4.3463235E+04   -1.6681396E+00
