#        a       HoverH0(a)       dlogHdloga_of_a(a)
   1.0000000E-04   1.1615139E+06   -1.9112083E+00
   1.0046181E-04   1.1513316E+06   -1.9108714E+00
   1.0092575E-04   1.1412403E+06   -1.9105334E+00
   1.0139184E-04   1.1312393E+06   -1.9101944E+00
   1.0186008E-04   1.1213276E+06   -1.9098544E+00
   1.0233048E-04   1.1115045E+06   -1.9095135E+00
   1.0280305E-04   1.1017692E+06   -1.9091715E+00
   1.0327781E-04   1.0921209E+06   -1.9088285E+00
   1.0375475E-04   1.0825588E+06   -1.9084845E+00
   1.0423390E-04   1.0730821E+06   -1.9081395E+00
   1.0471527E-04   1.0636901E+06   -1.9077935E+00
   1.0519885E-04   1.0543820E+06   -1.9074465E+00
   1.0568467E-04   1.0451570E+06   -1.9070985E+00
   1.0617274E-04   1.0360143E+06   -1.9067494E+00
   1.0666305E-04   1.0269533E+06   -1.9063994E+00
   1.0715563E-04   1.0179732E+06   -1.9060483E+00
   1.0765049E-04   1.0090733E+06   -1.9056963E+00
   1.0814763E-04   1.0002528E+06   -1.9053432E+00
   1.0864707E-04   9.9151096E+05   -1.9049891E+00
   1.0914881E-04   9.8284717E+05   -1.9046340E+00
   1.0965287E-04   9.7426068E+05   -1.9042779E+00
   1.1015926E-04   9.6575079E+05   -1.9039208E+00
   1.1066799E-04   9.5731680E+05   -1.9035626E+00
   1.1117906E-04   9.4895804E+05   -1.9032035E+00
   1.1169250E-04   9.4067382E+05   -1.9028433E+00
   1.1220831E-04   9.3246348E+05   -1.9024821E+00
   1.1272650E-04   9.2432633E+05   -1.9021199E+00
   1.1324708E-04   9.1626172E+05   -1.9017567E+00
   1.1377007E-04   9.0826900E+05   -1.9013924E+00
   1.1429547E-04   9.0034752E+05   -1.9010272E+00
   1.1482330E-04   8.9249662E+05   -1.9006609E+00
   1.1535356E-04   8.8471568E+05   -1.9002936E+00
   1.1588628E-04   8.7700407E+05   -1.8999253E+00
   1.1642145E-04   8.6936114E+05   -1.8995560E+00
   1.1695910E-04   8.6178629E+05   -1.8991856E+00
   1.1749923E-04   8.5427891E+05   -1.8988142E+00
   1.1804185E-04   8.4683837E+05   -1.8984418E+00
   1.1858698E-04   8.3946408E+05   -1.8980684E+00
   1.1913463E-04   8.3215544E+05   -1.8976940E+00
   1.1968481E-04   8.2491185E+05   -1.8973185E+00
   1.2023752E-04   8.1773274E+05   -1.8969421E+00
   1.2079279E-04   8.1061751E+05   -1.8965646E+00
   1.2135063E-04   8.0356559E+05   -1.8961861E+00
   1.2191104E-04   7.9657641E+05   -1.8958065E+00
   1.2247403E-04   7.8964941E+05   -1.8954260E+00
   1.2303963E-04   7.8278401E+05   -1.8950444E+00
   1.2360784E-04   7.7597968E+05   -1.8946618E+00
   1.2417868E-04   7.6923584E+05   -1.8942781E+00
   1.2475215E-04   7.6255196E+05   -1.8938935E+00
   1.2532826E-04   7.5592750E+05   -1.8935078E+00
   1.2590704E-04   7.4936193E+05   -1.8931211E+00
   1.2648850E-04   7.4285470E+05   -1.8927334E+00
   1.2707263E-04   7.3640529E+05   -1.8923447E+00
   1.2765947E-04   7.3001319E+05   -1.8919549E+00
   1.2824901E-04   7.2367788E+05   -1.8915642E+00
   1.2884128E-04   7.1739884E+05   -1.8911724E+00
   1.2943628E-04   7.1117556E+05   -1.8907795E+00
   1.3003403E-04   7.0500755E+05   -1.8903857E+00
   1.3063454E-04   6.9889431E+05   -1.8899908E+00
   1.3123783E-04   6.9283533E+05   -1.8895950E+00
   1.3184390E-04   6.8683014E+05   -1.8891981E+00
   1.3245277E-04   6.8087824E+05   -1.8888002E+00
   1.3306445E-04   6.7497916E+05   -1.8884012E+00
   1.3367895E-04   6.6913242E+05   -1.8880013E+00
   1.3429630E-04   6.6333754E+05   -1.8876003E+00
   1.3491649E-04   6.5759407E+05   -1.8871983E+00
   1.3553955E-04   6.5190154E+05   -1.8867953E+00
   1.3616548E-04   6.4625949E+05   -1.8863912E+00
   1.3679431E-04   6.4066747E+05   -1.8859862E+00
   1.3742604E-04   6.3512502E+05   -1.8855801E+00
   1.3806069E-04   6.2963169E+05   -1.8851731E+00
   1.3869827E-04   6.2418705E+05   -1.8847650E+00
   1.3933879E-04   6.1879066E+05   -1.8843558E+00
   1.3998227E-04   6.1344208E+05   -1.8839457E+00
   1.4062872E-04   6.0814088E+05   -1.8835346E+00
   1.4127816E-04   6.0288663E+05   -1.8831224E+00
   1.4193060E-04   5.9767892E+05   -1.8827093E+00
   1.4258605E-04   5.9251732E+05   -1.8822951E+00
   1.4324453E-04   5.8740142E+05   -1.8818799E+00
   1.4390605E-04   5.8233081E+05   -1.8814637E+00
   1.4457062E-04   5.7730507E+05   -1.8810465E+00
   1.4523826E-04   5.7232382E+05   -1.8806283E+00
   1.4590899E-04   5.6738663E+05   -1.8802091E+00
   1.4658281E-04   5.6249313E+05   -1.8797888E+00
   1.4725974E-04   5.5764291E+05   -1.8793676E+00
   1.4793981E-04   5.5283559E+05   -1.8789453E+00
   1.4862301E-04   5.4807078E+05   -1.8785221E+00
   1.4930936E-04   5.4334809E+05   -1.8780978E+00
   1.4999889E-04   5.3866716E+05   -1.8776726E+00
   1.5069160E-04   5.3402759E+05   -1.8772463E+00
   1.5138751E-04   5.2942903E+05   -1.8768191E+00
   1.5208663E-04   5.2487111E+05   -1.8763908E+00
   1.5278899E-04   5.2035345E+05   -1.8759615E+00
   1.5349458E-04   5.1587570E+05   -1.8755313E+00
   1.5420343E-04   5.1143749E+05   -1.8751000E+00
   1.5491556E-04   5.0703848E+05   -1.8746678E+00
   1.5563098E-04   5.0267830E+05   -1.8742345E+00
   1.5634970E-04   4.9835662E+05   -1.8738003E+00
   1.5707174E-04   4.9407308E+05   -1.8733651E+00
   1.5779711E-04   4.8982734E+05   -1.8729288E+00
   1.5852584E-04   4.8561906E+05   -1.8724916E+00
   1.5925792E-04   4.8144791E+05   -1.8720534E+00
   1.5999339E-04   4.7731355E+05   -1.8716142E+00
   1.6073226E-04   4.7321566E+05   -1.8711741E+00
   1.6147454E-04   4.6915390E+05   -1.8707329E+00
   1.6222024E-04   4.6512794E+05   -1.8702908E+00
   1.6296939E-04   4.6113748E+05   -1.8698477E+00
   1.6372200E-04   4.5718219E+05   -1.8694036E+00
   1.6447809E-04   4.5326175E+05   -1.8689585E+00
   1.6523767E-04   4.4937585E+05   -1.8685124E+00
   1.6600075E-04   4.4552418E+05   -1.8680654E+00
   1.6676736E-04   4.4170644E+05   -1.8676174E+00
   1.6753751E-04   4.3792232E+05   -1.8671684E+00
   1.6831122E-04   4.3417151E+05   -1.8667184E+00
   1.6908849E-04   4.3045372E+05   -1.8662675E+00
   1.6986936E-04   4.2676866E+05   -1.8658156E+00
   1.7065384E-04   4.2311602E+05   -1.8653628E+00
   1.7144193E-04   4.1949553E+05   -1.8649090E+00
   1.7223367E-04   4.1590688E+05   -1.8644542E+00
   1.7302906E-04   4.1234980E+05   -1.8639985E+00
   1.7382813E-04   4.0882400E+05   -1.8635418E+00
   1.7463089E-04   4.0532920E+05   -1.8630841E+00
   1.7543735E-04   4.0186513E+05   -1.8626255E+00
   1.7624754E-04   3.9843150E+05   -1.8621659E+00
   1.7706147E-04   3.9502805E+05   -1.8617054E+00
   1.7787916E-04   3.9165450E+05   -1.8612439E+00
   1.7870062E-04   3.8831059E+05   -1.8607815E+00
   1.7952588E-04   3.8499605E+05   -1.8603182E+00
   1.8035495E-04   3.8171061E+05   -1.8598539E+00
   1.8118785E-04   3.7845403E+05   -1.8593886E+00
   1.8202459E-04   3.7522603E+05   -1.8589225E+00
   1.8286520E-04   3.7202637E+05   -1.8584553E+00
   1.8370969E-04   3.6885478E+05   -1.8579873E+00
   1.8455808E-04   3.6571103E+05   -1.8575183E+00
   1.8541039E-04   3.6259485E+05   -1.8570484E+00
   1.8626663E-04   3.5950601E+05   -1.8565775E+00
   1.8712683E-04   3.5644425E+05   -1.8561058E+00
   1.8799100E-04   3.5340933E+05   -1.8556331E+00
   1.8885917E-04   3.5040102E+05   -1.8551595E+00
   1.8973134E-04   3.4741908E+05   -1.8546849E+00
   1.9060754E-04   3.4446327E+05   -1.8542095E+00
   1.9148778E-04   3.4153335E+05   -1.8537331E+00
   1.9237209E-04   3.3862910E+05   -1.8532558E+00
   1.9326049E-04   3.3575028E+05   -1.8527776E+00
   1.9415299E-04   3.3289667E+05   -1.8522985E+00
   1.9504960E-04   3.3006805E+05   -1.8518185E+00
   1.9595036E-04   3.2726418E+05   -1.8513376E+00
   1.9685528E-04   3.2448485E+05   -1.8508558E+00
   1.9776438E-04   3.2172985E+05   -1.8503731E+00
   1.9867768E-04   3.1899894E+05   -1.8498895E+00
   1.9959519E-04   3.1629192E+05   -1.8494051E+00
   2.0051694E-04   3.1360857E+05   -1.8489197E+00
   2.0144295E-04   3.1094868E+05   -1.8484334E+00
   2.0237324E-04   3.0831204E+05   -1.8479463E+00
   2.0330782E-04   3.0569845E+05   -1.8474583E+00
   2.0424671E-04   3.0310769E+05   -1.8469694E+00
   2.0518995E-04   3.0053957E+05   -1.8464796E+00
   2.0613754E-04   2.9799388E+05   -1.8459890E+00
   2.0708950E-04   2.9547042E+05   -1.8454974E+00
   2.0804586E-04   2.9296899E+05   -1.8450051E+00
   2.0900664E-04   2.9048941E+05   -1.8445118E+00
   2.0997185E-04   2.8803146E+05   -1.8440177E+00
   2.1094152E-04   2.8559496E+05   -1.8435227E+00
   2.1191567E-04   2.8317972E+05   -1.8430269E+00
   2.1289432E-04   2.8078554E+05   -1.8425303E+00
   2.1387749E-04   2.7841225E+05   -1.8420327E+00
   2.1486520E-04   2.7605965E+05   -1.8415344E+00
   2.1585747E-04   2.7372755E+05   -1.8410352E+00
   2.1685432E-04   2.7141579E+05   -1.8405351E+00
   2.1785578E-04   2.6912416E+05   -1.8400343E+00
   2.1886186E-04   2.6685250E+05   -1.8395325E+00
   2.1987259E-04   2.6460063E+05   -1.8390300E+00
   2.2088798E-04   2.6236838E+05   -1.8385266E+00
   2.2190807E-04   2.6015555E+05   -1.8380225E+00
   2.2293286E-04   2.5796199E+05   -1.8375174E+00
   2.2396239E-04   2.5578752E+05   -1.8370116E+00
   2.2499667E-04   2.5363197E+05   -1.8365050E+00
   2.2603573E-04   2.5149518E+05   -1.8359975E+00
   2.2707958E-04   2.4937696E+05   -1.8354893E+00
   2.2812826E-04   2.4727717E+05   -1.8349802E+00
   2.2918178E-04   2.4519564E+05   -1.8344704E+00
   2.3024017E-04   2.4313220E+05   -1.8339598E+00
   2.3130344E-04   2.4108669E+05   -1.8334483E+00
   2.3237162E-04   2.3905895E+05   -1.8329361E+00
   2.3344474E-04   2.3704883E+05   -1.8324231E+00
   2.3452281E-04   2.3505617E+05   -1.8319093E+00
   2.3560586E-04   2.3308081E+05   -1.8313947E+00
   2.3669392E-04   2.3112260E+05   -1.8308794E+00
   2.3778699E-04   2.2918139E+05   -1.8303633E+00
   2.3888512E-04   2.2725702E+05   -1.8298464E+00
   2.3998831E-04   2.2534934E+05   -1.8293288E+00
   2.4109661E-04   2.2345821E+05   -1.8288104E+00
   2.4221001E-04   2.2158349E+05   -1.8282913E+00
   2.4332857E-04   2.1972501E+05   -1.8277714E+00
   2.4445228E-04   2.1788265E+05   -1.8272507E+00
   2.4558119E-04   2.1605625E+05   -1.8267293E+00
   2.4671531E-04   2.1424568E+05   -1.8262072E+00
   2.4785467E-04   2.1245079E+05   -1.8256844E+00
   2.4899928E-04   2.1067145E+05   -1.8251608E+00
   2.5014919E-04   2.0890752E+05   -1.8246365E+00
   2.5130440E-04   2.0715885E+05   -1.8241114E+00
   2.5246495E-04   2.0542532E+05   -1.8235857E+00
   2.5363086E-04   2.0370679E+05   -1.8230592E+00
   2.5480216E-04   2.0200312E+05   -1.8225320E+00
   2.5597886E-04   2.0031420E+05   -1.8220042E+00
   2.5716100E-04   1.9863987E+05   -1.8214756E+00
   2.5834859E-04   1.9698002E+05   -1.8209463E+00
   2.5954168E-04   1.9533452E+05   -1.8204163E+00
   2.6074027E-04   1.9370323E+05   -1.8198856E+00
   2.6194439E-04   1.9208604E+05   -1.8193543E+00
   2.6315408E-04   1.9048282E+05   -1.8188223E+00
   2.6436935E-04   1.8889344E+05   -1.8182896E+00
   2.6559024E-04   1.8731779E+05   -1.8177562E+00
   2.6681676E-04   1.8575573E+05   -1.8172222E+00
   2.6804895E-04   1.8420716E+05   -1.8166874E+00
   2.6928683E-04   1.8267194E+05   -1.8161521E+00
   2.7053042E-04   1.8114996E+05   -1.8156161E+00
   2.7177976E-04   1.7964112E+05   -1.8150794E+00
   2.7303487E-04   1.7814527E+05   -1.8145421E+00
   2.7429577E-04   1.7666233E+05   -1.8140041E+00
   2.7556250E-04   1.7519216E+05   -1.8134655E+00
   2.7683507E-04   1.7373465E+05   -1.8129263E+00
   2.7811353E-04   1.7228970E+05   -1.8123865E+00
   2.7939788E-04   1.7085720E+05   -1.8118460E+00
   2.8068817E-04   1.6943702E+05   -1.8113049E+00
   2.8198442E-04   1.6802908E+05   -1.8107632E+00
   2.8328665E-04   1.6663324E+05   -1.8102209E+00
   2.8459490E-04   1.6524942E+05   -1.8096780E+00
   2.8590919E-04   1.6387749E+05   -1.8091345E+00
   2.8722955E-04   1.6251737E+05   -1.8085904E+00
   2.8855600E-04   1.6116893E+05   -1.8080457E+00
   2.8988859E-04   1.5983209E+05   -1.8075005E+00
   2.9122732E-04   1.5850673E+05   -1.8069546E+00
   2.9257224E-04   1.5719276E+05   -1.8064082E+00
   2.9392337E-04   1.5589007E+05   -1.8058612E+00
   2.9528074E-04   1.5459857E+05   -1.8053137E+00
   2.9664438E-04   1.5331816E+05   -1.8047655E+00
   2.9801431E-04   1.5204873E+05   -1.8042169E+00
   2.9939057E-04   1.5079020E+05   -1.8036677E+00
   3.0077319E-04   1.4954246E+05   -1.8031179E+00
   3.0216219E-04   1.4830543E+05   -1.8025676E+00
   3.0355761E-04   1.4707899E+05   -1.8020168E+00
   3.0495947E-04   1.4586308E+05   -1.8014654E+00
   3.0636780E-04   1.4465758E+05   -1.8009135E+00
   3.0778264E-04   1.4346241E+05   -1.8003611E+00
   3.0920401E-04   1.4227747E+05   -1.7998082E+00
   3.1063195E-04   1.4110268E+05   -1.7992548E+00
   3.1206648E-04   1.3993795E+05   -1.7987008E+00
   3.1350764E-04   1.3878319E+05   -1.7981464E+00
   3.1495545E-04   1.3763831E+05   -1.7975915E+00
   3.1640994E-04   1.3650322E+05   -1.7970361E+00
   3.1787116E-04   1.3537785E+05   -1.7964802E+00
   3.1933912E-04   1.3426209E+05   -1.7959238E+00
   3.2081386E-04   1.3315587E+05   -1.7953669E+00
   3.2229541E-04   1.3205910E+05   -1.7948096E+00
   3.2378381E-04   1.3097171E+05   -1.7942519E+00
   3.2527908E-04   1.2989360E+05   -1.7936936E+00
   3.2678125E-04   1.2882469E+05   -1.7931350E+00
   3.2829036E-04   1.2776492E+05   -1.7925758E+00
   3.2980644E-04   1.2671418E+05   -1.7920163E+00
   3.3132952E-04   1.2567242E+05   -1.7914563E+00
   3.3285963E-04   1.2463953E+05   -1.7908959E+00
   3.3439681E-04   1.2361546E+05   -1.7903350E+00
   3.3594109E-04   1.2260012E+05   -1.7897737E+00
   3.3749250E-04   1.2159343E+05   -1.7892121E+00
   3.3905108E-04   1.2059532E+05   -1.7886500E+00
   3.4061685E-04   1.1960572E+05   -1.7880875E+00
   3.4218986E-04   1.1862454E+05   -1.7875246E+00
   3.4377013E-04   1.1765172E+05   -1.7869613E+00
   3.4535769E-04   1.1668717E+05   -1.7863977E+00
   3.4695259E-04   1.1573084E+05   -1.7858336E+00
   3.4855485E-04   1.1478264E+05   -1.7852692E+00
   3.5016452E-04   1.1384251E+05   -1.7847044E+00
   3.5178161E-04   1.1291037E+05   -1.7841393E+00
   3.5340618E-04   1.1198615E+05   -1.7835738E+00
   3.5503824E-04   1.1106979E+05   -1.7830080E+00
   3.5667785E-04   1.1016122E+05   -1.7824418E+00
   3.5832502E-04   1.0926036E+05   -1.7818752E+00
   3.5997981E-04   1.0836715E+05   -1.7813084E+00
   3.6164223E-04   1.0748153E+05   -1.7807412E+00
   3.6331233E-04   1.0660342E+05   -1.7801736E+00
   3.6499015E-04   1.0573276E+05   -1.7796058E+00
   3.6667571E-04   1.0486949E+05   -1.7790377E+00
   3.6836906E-04   1.0401354E+05   -1.7784692E+00
   3.7007022E-04   1.0316484E+05   -1.7779005E+00
   3.7177925E-04   1.0232334E+05   -1.7773314E+00
   3.7349616E-04   1.0148897E+05   -1.7767621E+00
   3.7522101E-04   1.0066166E+05   -1.7761925E+00
   3.7695382E-04   9.9841364E+04   -1.7756226E+00
   3.7869463E-04   9.9028011E+04   -1.7750524E+00
   3.8044348E-04   9.8221542E+04   -1.7744820E+00
   3.8220041E-04   9.7421896E+04   -1.7739113E+00
   3.8396545E-04   9.6629015E+04   -1.7733404E+00
   3.8573864E-04   9.5842839E+04   -1.7727692E+00
   3.8752002E-04   9.5063309E+04   -1.7721978E+00
   3.8930963E-04   9.4290368E+04   -1.7716261E+00
   3.9110750E-04   9.3523958E+04   -1.7710542E+00
   3.9291368E-04   9.2764022E+04   -1.7704821E+00
   3.9472820E-04   9.2010504E+04   -1.7699098E+00
   3.9655109E-04   9.1263346E+04   -1.7693373E+00
   3.9838241E-04   9.0522495E+04   -1.7687645E+00
   4.0022218E-04   8.9787895E+04   -1.7681916E+00
   4.0207045E-04   8.9059492E+04   -1.7676185E+00
   4.0392725E-04   8.8337231E+04   -1.7670451E+00
   4.0579263E-04   8.7621059E+04   -1.7664716E+00
   4.0766662E-04   8.6910923E+04   -1.7658980E+00
   4.0954927E-04   8.6206770E+04   -1.7653241E+00
   4.1144061E-04   8.5508548E+04   -1.7647501E+00
   4.1334068E-04   8.4816206E+04   -1.7641759E+00
   4.1524953E-04   8.4129692E+04   -1.7636016E+00
   4.1716720E-04   8.3448956E+04   -1.7630272E+00
   4.1909372E-04   8.2773947E+04   -1.7624526E+00
   4.2102914E-04   8.2104615E+04   -1.7618778E+00
   4.2297350E-04   8.1440911E+04   -1.7613030E+00
   4.2492683E-04   8.0782787E+04   -1.7607280E+00
   4.2688919E-04   8.0130193E+04   -1.7601529E+00
   4.2886061E-04   7.9483082E+04   -1.7595777E+00
   4.3084113E-04   7.8841406E+04   -1.7590024E+00
   4.3283080E-04   7.8205117E+04   -1.7584269E+00
   4.3482966E-04   7.7574170E+04   -1.7578515E+00
   4.3683775E-04   7.6948516E+04   -1.7572759E+00
   4.3885511E-04   7.6328111E+04   -1.7567002E+00
   4.4088179E-04   7.5712909E+04   -1.7561245E+00
   4.4291783E-04   7.5102865E+04   -1.7555487E+00
   4.4496327E-04   7.4497933E+04   -1.7549728E+00
   4.4701816E-04   7.3898071E+04   -1.7543969E+00
   4.4908253E-04   7.3303232E+04   -1.7538209E+00
   4.5115644E-04   7.2713375E+04   -1.7532449E+00
   4.5323993E-04   7.2128457E+04   -1.7526689E+00
   4.5533304E-04   7.1548433E+04   -1.7520928E+00
   4.5743582E-04   7.0973261E+04   -1.7515167E+00
   4.5954830E-04   7.0402901E+04   -1.7509406E+00
   4.6167054E-04   6.9837309E+04   -1.7503645E+00
   4.6380259E-04   6.9276445E+04   -1.7497884E+00
   4.6594448E-04   6.8720268E+04   -1.7492123E+00
   4.6809626E-04   6.8168736E+04   -1.7486362E+00
   4.7025797E-04   6.7621811E+04   -1.7480600E+00
   4.7242967E-04   6.7079452E+04   -1.7474840E+00
   4.7461140E-04   6.6541619E+04   -1.7469079E+00
   4.7680321E-04   6.6008274E+04   -1.7463319E+00
   4.7900514E-04   6.5479378E+04   -1.7457559E+00
   4.8121723E-04   6.4954891E+04   -1.7451799E+00
   4.8343954E-04   6.4434777E+04   -1.7446040E+00
   4.8567212E-04   6.3918997E+04   -1.7440282E+00
   4.8791500E-04   6.3407515E+04   -1.7434524E+00
   4.9016825E-04   6.2900291E+04   -1.7428767E+00
   4.9243189E-04   6.2397291E+04   -1.7423011E+00
   4.9470600E-04   6.1898477E+04   -1.7417255E+00
   4.9699060E-04   6.1403814E+04   -1.7411500E+00
   4.9928575E-04   6.0913265E+04   -1.7405747E+00
   5.0159151E-04   6.0426796E+04   -1.7399994E+00
   5.0390791E-04   5.9944370E+04   -1.7394242E+00
   5.0623501E-04   5.9465954E+04   -1.7388491E+00
   5.0857286E-04   5.8991512E+04   -1.7382742E+00
   5.1092150E-04   5.8521010E+04   -1.7376994E+00
   5.1328099E-04   5.8054415E+04   -1.7371247E+00
   5.1565137E-04   5.7591692E+04   -1.7365501E+00
   5.1803270E-04   5.7132809E+04   -1.7359757E+00
   5.2042503E-04   5.6677732E+04   -1.7354014E+00
   5.2282841E-04   5.6226429E+04   -1.7348273E+00
   5.2524289E-04   5.5778866E+04   -1.7342533E+00
   5.2766851E-04   5.5335013E+04   -1.7336796E+00
   5.3010534E-04   5.4894836E+04   -1.7331059E+00
   5.3255342E-04   5.4458305E+04   -1.7325325E+00
   5.3501281E-04   5.4025388E+04   -1.7319592E+00
   5.3748356E-04   5.3596054E+04   -1.7313861E+00
   5.3996571E-04   5.3170273E+04   -1.7308133E+00
   5.4245933E-04   5.2748013E+04   -1.7302406E+00
   5.4496446E-04   5.2329244E+04   -1.7296681E+00
   5.4748117E-04   5.1913938E+04   -1.7290958E+00
   5.5000949E-04   5.1502063E+04   -1.7285238E+00
   5.5254949E-04   5.1093590E+04   -1.7279520E+00
   5.5510123E-04   5.0688490E+04   -1.7273804E+00
   5.5766474E-04   5.0286735E+04   -1.7268090E+00
   5.6024010E-04   4.9888295E+04   -1.7262379E+00
   5.6282734E-04   4.9493143E+04   -1.7256671E+00
   5.6542654E-04   4.9101249E+04   -1.7250965E+00
   5.6803774E-04   4.8712587E+04   -1.7245261E+00
   5.7066099E-04   4.8327128E+04   -1.7239561E+00
   5.7329637E-04   4.7944845E+04   -1.7233862E+00
   5.7594391E-04   4.7565711E+04   -1.7228167E+00
   5.7860368E-04   4.7189699E+04   -1.7222475E+00
   5.8127573E-04   4.6816782E+04   -1.7216785E+00
   5.8396012E-04   4.6446934E+04   -1.7211099E+00
   5.8665691E-04   4.6080128E+04   -1.7205415E+00
   5.8936616E-04   4.5716338E+04   -1.7199734E+00
   5.9208791E-04   4.5355540E+04   -1.7194057E+00
   5.9482223E-04   4.4997706E+04   -1.7188383E+00
   5.9756919E-04   4.4642812E+04   -1.7182712E+00
   6.0032882E-04   4.4290833E+04   -1.7177044E+00
   6.0310120E-04   4.3941744E+04   -1.7171380E+00
   6.0588639E-04   4.3595520E+04   -1.7165719E+00
   6.0868443E-04   4.3252137E+04   -1.7160061E+00
   6.1149540E-04   4.2911570E+04   -1.7154407E+00
   6.1431935E-04   4.2573796E+04   -1.7148757E+00
   6.1715634E-04   4.2238790E+04   -1.7143110E+00
   6.2000644E-04   4.1906530E+04   -1.7137467E+00
   6.2286969E-04   4.1576991E+04   -1.7131828E+00
