#        a       HoverH0(a)       dlogHdloga_of_a(a)
   1.0000000E-04   1.0825197E+06   -1.8501907E+00
   1.0046181E-04   1.0733319E+06   -1.8497068E+00
   1.0092575E-04   1.0642246E+06   -1.8492221E+00
   1.0139184E-04   1.0551968E+06   -1.8487364E+00
   1.0186008E-04   1.0462480E+06   -1.8482498E+00
   1.0233048E-04   1.0373774E+06   -1.8477624E+00
   1.0280305E-04   1.0285843E+06   -1.8472741E+00
   1.0327781E-04   1.0198680E+06   -1.8467849E+00
   1.0375475E-04   1.0112279E+06   -1.8462948E+00
   1.0423390E-04   1.0026633E+06   -1.8458039E+00
   1.0471527E-04   9.9417341E+05   -1.8453121E+00
   1.0519885E-04   9.8575767E+05   -1.8448194E+00
   1.0568467E-04   9.7741539E+05   -1.8443259E+00
   1.0617274E-04   9.6914592E+05   -1.8438315E+00
   1.0666305E-04   9.6094860E+05   -1.8433363E+00
   1.0715563E-04   9.5282280E+05   -1.8428402E+00
   1.0765049E-04   9.4476786E+05   -1.8423432E+00
   1.0814763E-04   9.3678317E+05   -1.8418454E+00
   1.0864707E-04   9.2886810E+05   -1.8413468E+00
   1.0914881E-04   9.2102201E+05   -1.8408473E+00
   1.0965287E-04   9.1324431E+05   -1.8403470E+00
   1.1015926E-04   9.0553438E+05   -1.8398459E+00
   1.1066799E-04   8.9789160E+05   -1.8393439E+00
   1.1117906E-04   8.9031540E+05   -1.8388411E+00
   1.1169250E-04   8.8280517E+05   -1.8383374E+00
   1.1220831E-04   8.7536032E+05   -1.8378330E+00
   1.1272650E-04   8.6798028E+05   -1.8373277E+00
   1.1324708E-04   8.6066446E+05   -1.8368216E+00
   1.1377007E-04   8.5341230E+05   -1.8363148E+00
   1.1429547E-04   8.4622322E+05   -1.8358071E+00
   1.1482330E-04   8.3909667E+05   -1.8352986E+00
   1.1535356E-04   8.3203208E+05   -1.8347892E+00
   1.1588628E-04   8.2502891E+05   -1.8342791E+00
   1.1642145E-04   8.1808661E+05   -1.8337683E+00
   1.1695910E-04   8.1120464E+05   -1.8332566E+00
   1.1749923E-04   8.0438246E+05   -1.8327441E+00
   1.1804185E-04   7.9761954E+05   -1.8322309E+00
   1.1858698E-04   7.9091535E+05   -1.8317168E+00
   1.1913463E-04   7.8426936E+05   -1.8312020E+00
   1.1968481E-04   7.7768107E+05   -1.8306864E+00
   1.2023752E-04   7.7114996E+05   -1.8301701E+00
   1.2079279E-04   7.6467552E+05   -1.8296530E+00
   1.2135063E-04   7.5825725E+05   -1.8291351E+00
   1.2191104E-04   7.5189464E+05   -1.8286165E+00
   1.2247403E-04   7.4558720E+05   -1.8280971E+00
   1.2303963E-04   7.3933445E+05   -1.8275770E+00
   1.2360784E-04   7.3313589E+05   -1.8270562E+00
   1.2417868E-04   7.2699105E+05   -1.8265345E+00
   1.2475215E-04   7.2089944E+05   -1.8260122E+00
   1.2532826E-04   7.1486060E+05   -1.8254891E+00
   1.2590704E-04   7.0887405E+05   -1.8249653E+00
   1.2648850E-04   7.0293934E+05   -1.8244408E+00
   1.2707263E-04   6.9705599E+05   -1.8239155E+00
   1.2765947E-04   6.9122356E+05   -1.8233896E+00
   1.2824901E-04   6.8544160E+05   -1.8228629E+00
   1.2884128E-04   6.7970965E+05   -1.8223355E+00
   1.2943628E-04   6.7402728E+05   -1.8218074E+00
   1.3003403E-04   6.6839403E+05   -1.8212786E+00
   1.3063454E-04   6.6280949E+05   -1.8207492E+00
   1.3123783E-04   6.5727320E+05   -1.8202190E+00
   1.3184390E-04   6.5178475E+05   -1.8196881E+00
   1.3245277E-04   6.4634372E+05   -1.8191566E+00
   1.3306445E-04   6.4094967E+05   -1.8186244E+00
   1.3367895E-04   6.3560221E+05   -1.8180915E+00
   1.3429630E-04   6.3030090E+05   -1.8175579E+00
   1.3491649E-04   6.2504535E+05   -1.8170237E+00
   1.3553955E-04   6.1983514E+05   -1.8164888E+00
   1.3616548E-04   6.1466989E+05   -1.8159532E+00
   1.3679431E-04   6.0954918E+05   -1.8154170E+00
   1.3742604E-04   6.0447263E+05   -1.8148802E+00
   1.3806069E-04   5.9943984E+05   -1.8143427E+00
   1.3869827E-04   5.9445042E+05   -1.8138046E+00
   1.3933879E-04   5.8950400E+05   -1.8132658E+00
   1.3998227E-04   5.8460018E+05   -1.8127264E+00
   1.4062872E-04   5.7973860E+05   -1.8121864E+00
   1.4127816E-04   5.7491889E+05   -1.8116458E+00
   1.4193060E-04   5.7014066E+05   -1.8111046E+00
   1.4258605E-04   5.6540355E+05   -1.8105627E+00
   1.4324453E-04   5.6070721E+05   -1.8100202E+00
   1.4390605E-04   5.5605126E+05   -1.8094772E+00
   1.4457062E-04   5.5143536E+05   -1.8089335E+00
   1.4523826E-04   5.4685914E+05   -1.8083893E+00
   1.4590899E-04   5.4232227E+05   -1.8078444E+00
   1.4658281E-04   5.3782438E+05   -1.8072990E+00
   1.4725974E-04   5.3336514E+05   -1.8067530E+00
   1.4793981E-04   5.2894420E+05   -1.8062065E+00
   1.4862301E-04   5.2456122E+05   -1.8056593E+00
   1.4930936E-04   5.2021588E+05   -1.8051117E+00
   1.4999889E-04   5.1590784E+05   -1.8045634E+00
   1.5069160E-04   5.1163676E+05   -1.8040146E+00
   1.5138751E-04   5.0740233E+05   -1.8034653E+00
   1.5208663E-04   5.0320422E+05   -1.8029154E+00
   1.5278899E-04   4.9904210E+05   -1.8023650E+00
   1.5349458E-04   4.9491567E+05   -1.8018140E+00
   1.5420343E-04   4.9082461E+05   -1.8012625E+00
   1.5491556E-04   4.8676860E+05   -1.8007105E+00
   1.5563098E-04   4.8274733E+05   -1.8001580E+00
   1.5634970E-04   4.7876051E+05   -1.7996050E+00
   1.5707174E-04   4.7480782E+05   -1.7990514E+00
   1.5779711E-04   4.7088897E+05   -1.7984974E+00
   1.5852584E-04   4.6700365E+05   -1.7979428E+00
   1.5925792E-04   4.6315158E+05   -1.7973878E+00
   1.5999339E-04   4.5933245E+05   -1.7968323E+00
   1.6073226E-04   4.5554598E+05   -1.7962763E+00
   1.6147454E-04   4.5179189E+05   -1.7957199E+00
   1.6222024E-04   4.4806988E+05   -1.7951629E+00
   1.6296939E-04   4.4437967E+05   -1.7946055E+00
   1.6372200E-04   4.4072099E+05   -1.7940477E+00
   1.6447809E-04   4.3709356E+05   -1.7934894E+00
   1.6523767E-04   4.3349709E+05   -1.7929306E+00
   1.6600075E-04   4.2993133E+05   -1.7923714E+00
   1.6676736E-04   4.2639600E+05   -1.7918118E+00
   1.6753751E-04   4.2289083E+05   -1.7912517E+00
   1.6831122E-04   4.1941555E+05   -1.7906912E+00
   1.6908849E-04   4.1596991E+05   -1.7901303E+00
   1.6986936E-04   4.1255364E+05   -1.7895690E+00
   1.7065384E-04   4.0916649E+05   -1.7890072E+00
   1.7144193E-04   4.0580820E+05   -1.7884451E+00
   1.7223367E-04   4.0247851E+05   -1.7878825E+00
   1.7302906E-04   3.9917718E+05   -1.7873196E+00
   1.7382813E-04   3.9590396E+05   -1.7867563E+00
   1.7463089E-04   3.9265860E+05   -1.7861926E+00
   1.7543735E-04   3.8944085E+05   -1.7856285E+00
   1.7624754E-04   3.8625047E+05   -1.7850640E+00
   1.7706147E-04   3.8308723E+05   -1.7844992E+00
   1.7787916E-04   3.7995088E+05   -1.7839340E+00
   1.7870062E-04   3.7684119E+05   -1.7833685E+00
   1.7952588E-04   3.7375793E+05   -1.7828026E+00
   1.8035495E-04   3.7070086E+05   -1.7822364E+00
   1.8118785E-04   3.6766975E+05   -1.7816698E+00
   1.8202459E-04   3.6466438E+05   -1.7811029E+00
   1.8286520E-04   3.6168452E+05   -1.7805357E+00
   1.8370969E-04   3.5872995E+05   -1.7799682E+00
   1.8455808E-04   3.5580045E+05   -1.7794004E+00
   1.8541039E-04   3.5289579E+05   -1.7788322E+00
   1.8626663E-04   3.5001576E+05   -1.7782637E+00
   1.8712683E-04   3.4716015E+05   -1.7776950E+00
   1.8799100E-04   3.4432874E+05   -1.7771259E+00
   1.8885917E-04   3.4152131E+05   -1.7765566E+00
   1.8973134E-04   3.3873766E+05   -1.7759870E+00
   1.9060754E-04   3.3597759E+05   -1.7754171E+00
   1.9148778E-04   3.3324088E+05   -1.7748470E+00
   1.9237209E-04   3.3052732E+05   -1.7742766E+00
   1.9326049E-04   3.2783673E+05   -1.7737059E+00
   1.9415299E-04   3.2516889E+05   -1.7731350E+00
   1.9504960E-04   3.2252362E+05   -1.7725638E+00
   1.9595036E-04   3.1990070E+05   -1.7719924E+00
   1.9685528E-04   3.1729995E+05   -1.7714208E+00
   1.9776438E-04   3.1472118E+05   -1.7708489E+00
   1.9867768E-04   3.1216418E+05   -1.7702768E+00
   1.9959519E-04   3.0962878E+05   -1.7697046E+00
   2.0051694E-04   3.0711477E+05   -1.7691321E+00
   2.0144295E-04   3.0462199E+05   -1.7685594E+00
   2.0237324E-04   3.0215023E+05   -1.7679865E+00
   2.0330782E-04   2.9969933E+05   -1.7674134E+00
   2.0424671E-04   2.9726908E+05   -1.7668401E+00
   2.0518995E-04   2.9485933E+05   -1.7662667E+00
   2.0613754E-04   2.9246988E+05   -1.7656930E+00
   2.0708950E-04   2.9010056E+05   -1.7651192E+00
   2.0804586E-04   2.8775119E+05   -1.7645453E+00
   2.0900664E-04   2.8542161E+05   -1.7639712E+00
   2.0997185E-04   2.8311164E+05   -1.7633969E+00
   2.1094152E-04   2.8082110E+05   -1.7628226E+00
   2.1191567E-04   2.7854983E+05   -1.7622480E+00
   2.1289432E-04   2.7629767E+05   -1.7616734E+00
   2.1387749E-04   2.7406444E+05   -1.7610986E+00
   2.1486520E-04   2.7184998E+05   -1.7605237E+00
   2.1585747E-04   2.6965412E+05   -1.7599487E+00
   2.1685432E-04   2.6747672E+05   -1.7593736E+00
   2.1785578E-04   2.6531759E+05   -1.7587983E+00
   2.1886186E-04   2.6317660E+05   -1.7582230E+00
   2.1987259E-04   2.6105357E+05   -1.7576476E+00
   2.2088798E-04   2.5894836E+05   -1.7570722E+00
   2.2190807E-04   2.5686080E+05   -1.7564966E+00
   2.2293286E-04   2.5479075E+05   -1.7559210E+00
   2.2396239E-04   2.5273806E+05   -1.7553453E+00
   2.2499667E-04   2.5070256E+05   -1.7547695E+00
   2.2603573E-04   2.4868412E+05   -1.7541937E+00
   2.2707958E-04   2.4668258E+05   -1.7536179E+00
   2.2812826E-04   2.4469780E+05   -1.7530420E+00
   2.2918178E-04   2.4272964E+05   -1.7524661E+00
   2.3024017E-04   2.4077794E+05   -1.7518902E+00
   2.3130344E-04   2.3884257E+05   -1.7513142E+00
   2.3237162E-04   2.3692339E+05   -1.7507382E+00
   2.3344474E-04   2.3502025E+05   -1.7501623E+00
   2.3452281E-04   2.3313302E+05   -1.7495863E+00
   2.3560586E-04   2.3126155E+05   -1.7490103E+00
   2.3669392E-04   2.2940572E+05   -1.7484343E+00
   2.3778699E-04   2.2756539E+05   -1.7478584E+00
   2.3888512E-04   2.2574041E+05   -1.7472825E+00
   2.3998831E-04   2.2393067E+05   -1.7467066E+00
   2.4109661E-04   2.2213602E+05   -1.7461307E+00
   2.4221001E-04   2.2035635E+05   -1.7455549E+00
   2.4332857E-04   2.1859151E+05   -1.7449791E+00
   2.4445228E-04   2.1684138E+05   -1.7444034E+00
   2.4558119E-04   2.1510583E+05   -1.7438277E+00
   2.4671531E-04   2.1338474E+05   -1.7432521E+00
   2.4785467E-04   2.1167798E+05   -1.7426765E+00
   2.4899928E-04   2.0998543E+05   -1.7421011E+00
   2.5014919E-04   2.0830696E+05   -1.7415257E+00
   2.5130440E-04   2.0664246E+05   -1.7409504E+00
   2.5246495E-04   2.0499181E+05   -1.7403753E+00
   2.5363086E-04   2.0335488E+05   -1.7398002E+00
   2.5480216E-04   2.0173155E+05   -1.7392252E+00
   2.5597886E-04   2.0012171E+05   -1.7386503E+00
   2.5716100E-04   1.9852525E+05   -1.7380756E+00
   2.5834859E-04   1.9694204E+05   -1.7375010E+00
   2.5954168E-04   1.9537197E+05   -1.7369265E+00
   2.6074027E-04   1.9381494E+05   -1.7363521E+00
   2.6194439E-04   1.9227082E+05   -1.7357779E+00
   2.6315408E-04   1.9073951E+05   -1.7352039E+00
   2.6436935E-04   1.8922089E+05   -1.7346300E+00
   2.6559024E-04   1.8771487E+05   -1.7340563E+00
   2.6681676E-04   1.8622132E+05   -1.7334827E+00
   2.6804895E-04   1.8474014E+05   -1.7329093E+00
   2.6928683E-04   1.8327123E+05   -1.7323361E+00
   2.7053042E-04   1.8181448E+05   -1.7317631E+00
   2.7177976E-04   1.8036978E+05   -1.7311902E+00
   2.7303487E-04   1.7893703E+05   -1.7306176E+00
   2.7429577E-04   1.7751614E+05   -1.7300452E+00
   2.7556250E-04   1.7610699E+05   -1.7294729E+00
   2.7683507E-04   1.7470949E+05   -1.7289009E+00
   2.7811353E-04   1.7332353E+05   -1.7283292E+00
   2.7939788E-04   1.7194902E+05   -1.7277576E+00
   2.8068817E-04   1.7058586E+05   -1.7271863E+00
   2.8198442E-04   1.6923396E+05   -1.7266152E+00
   2.8328665E-04   1.6789321E+05   -1.7260444E+00
   2.8459490E-04   1.6656352E+05   -1.7254738E+00
   2.8590919E-04   1.6524479E+05   -1.7249035E+00
   2.8722955E-04   1.6393694E+05   -1.7243334E+00
   2.8855600E-04   1.6263986E+05   -1.7237636E+00
   2.8988859E-04   1.6135347E+05   -1.7231941E+00
   2.9122732E-04   1.6007768E+05   -1.7226248E+00
   2.9257224E-04   1.5881238E+05   -1.7220559E+00
   2.9392337E-04   1.5755751E+05   -1.7214872E+00
   2.9528074E-04   1.5631295E+05   -1.7209189E+00
   2.9664438E-04   1.5507864E+05   -1.7203508E+00
   2.9801431E-04   1.5385447E+05   -1.7197831E+00
   2.9939057E-04   1.5264037E+05   -1.7192156E+00
   3.0077319E-04   1.5143624E+05   -1.7186485E+00
   3.0216219E-04   1.5024201E+05   -1.7180817E+00
   3.0355761E-04   1.4905758E+05   -1.7175153E+00
   3.0495947E-04   1.4788287E+05   -1.7169492E+00
   3.0636780E-04   1.4671781E+05   -1.7163834E+00
   3.0778264E-04   1.4556230E+05   -1.7158180E+00
   3.0920401E-04   1.4441627E+05   -1.7152529E+00
   3.1063195E-04   1.4327963E+05   -1.7146882E+00
   3.1206648E-04   1.4215232E+05   -1.7141239E+00
   3.1350764E-04   1.4103423E+05   -1.7135599E+00
   3.1495545E-04   1.3992531E+05   -1.7129963E+00
   3.1640994E-04   1.3882546E+05   -1.7124331E+00
   3.1787116E-04   1.3773462E+05   -1.7118703E+00
   3.1933912E-04   1.3665270E+05   -1.7113079E+00
   3.2081386E-04   1.3557963E+05   -1.7107459E+00
   3.2229541E-04   1.3451534E+05   -1.7101843E+00
   3.2378381E-04   1.3345975E+05   -1.7096231E+00
   3.2527908E-04   1.3241278E+05   -1.7090623E+00
   3.2678125E-04   1.3137436E+05   -1.7085020E+00
   3.2829036E-04   1.3034443E+05   -1.7079420E+00
   3.2980644E-04   1.2932290E+05   -1.7073825E+00
   3.3132952E-04   1.2830971E+05   -1.7068235E+00
   3.3285963E-04   1.2730479E+05   -1.7062649E+00
   3.3439681E-04   1.2630806E+05   -1.7057067E+00
   3.3594109E-04   1.2531945E+05   -1.7051490E+00
   3.3749250E-04   1.2433891E+05   -1.7045917E+00
   3.3905108E-04   1.2336635E+05   -1.7040350E+00
   3.4061685E-04   1.2240171E+05   -1.7034786E+00
   3.4218986E-04   1.2144493E+05   -1.7029228E+00
   3.4377013E-04   1.2049593E+05   -1.7023675E+00
   3.4535769E-04   1.1955466E+05   -1.7018126E+00
   3.4695259E-04   1.1862104E+05   -1.7012582E+00
   3.4855485E-04   1.1769502E+05   -1.7007043E+00
   3.5016452E-04   1.1677652E+05   -1.7001510E+00
   3.5178161E-04   1.1586548E+05   -1.6995981E+00
   3.5340618E-04   1.1496184E+05   -1.6990457E+00
   3.5503824E-04   1.1406555E+05   -1.6984939E+00
   3.5667785E-04   1.1317652E+05   -1.6979426E+00
   3.5832502E-04   1.1229471E+05   -1.6973918E+00
   3.5997981E-04   1.1142006E+05   -1.6968415E+00
   3.6164223E-04   1.1055250E+05   -1.6962918E+00
   3.6331233E-04   1.0969197E+05   -1.6957426E+00
   3.6499015E-04   1.0883841E+05   -1.6951940E+00
   3.6667571E-04   1.0799177E+05   -1.6946459E+00
   3.6836906E-04   1.0715198E+05   -1.6940984E+00
   3.7007022E-04   1.0631900E+05   -1.6935515E+00
   3.7177925E-04   1.0549275E+05   -1.6930051E+00
   3.7349616E-04   1.0467319E+05   -1.6924593E+00
   3.7522101E-04   1.0386026E+05   -1.6919141E+00
   3.7695382E-04   1.0305390E+05   -1.6913694E+00
   3.7869463E-04   1.0225405E+05   -1.6908254E+00
   3.8044348E-04   1.0146067E+05   -1.6902819E+00
   3.8220041E-04   1.0067370E+05   -1.6897390E+00
   3.8396545E-04   9.9893079E+04   -1.6891968E+00
   3.8573864E-04   9.9118759E+04   -1.6886551E+00
   3.8752002E-04   9.8350687E+04   -1.6881140E+00
   3.8930963E-04   9.7588810E+04   -1.6875736E+00
   3.9110750E-04   9.6833076E+04   -1.6870338E+00
   3.9291368E-04   9.6083433E+04   -1.6864946E+00
   3.9472820E-04   9.5339830E+04   -1.6859560E+00
   3.9655109E-04   9.4602217E+04   -1.6854181E+00
   3.9838241E-04   9.3870543E+04   -1.6848808E+00
   4.0022218E-04   9.3144758E+04   -1.6843442E+00
   4.0207045E-04   9.2424813E+04   -1.6838082E+00
   4.0392725E-04   9.1710659E+04   -1.6832729E+00
   4.0579263E-04   9.1002248E+04   -1.6827382E+00
   4.0766662E-04   9.0299531E+04   -1.6822042E+00
   4.0954927E-04   8.9602461E+04   -1.6816708E+00
   4.1144061E-04   8.8910990E+04   -1.6811381E+00
   4.1334068E-04   8.8225072E+04   -1.6806061E+00
   4.1524953E-04   8.7544660E+04   -1.6800748E+00
   4.1716720E-04   8.6869708E+04   -1.6795441E+00
   4.1909372E-04   8.6200170E+04   -1.6790142E+00
   4.2102914E-04   8.5536001E+04   -1.6784849E+00
   4.2297350E-04   8.4877157E+04   -1.6779563E+00
   4.2492683E-04   8.4223592E+04   -1.6774285E+00
   4.2688919E-04   8.3575263E+04   -1.6769013E+00
   4.2886061E-04   8.2932126E+04   -1.6763749E+00
   4.3084113E-04   8.2294138E+04   -1.6758491E+00
   4.3283080E-04   8.1661255E+04   -1.6753241E+00
   4.3482966E-04   8.1033435E+04   -1.6747998E+00
   4.3683775E-04   8.0410636E+04   -1.6742762E+00
   4.3885511E-04   7.9792816E+04   -1.6737534E+00
   4.4088179E-04   7.9179934E+04   -1.6732312E+00
   4.4291783E-04   7.8571948E+04   -1.6727099E+00
   4.4496327E-04   7.7968818E+04   -1.6721892E+00
   4.4701816E-04   7.7370502E+04   -1.6716693E+00
   4.4908253E-04   7.6776962E+04   -1.6711502E+00
   4.5115644E-04   7.6188157E+04   -1.6706318E+00
   4.5323993E-04   7.5604049E+04   -1.6701142E+00
   4.5533304E-04   7.5024597E+04   -1.6695973E+00
   4.5743582E-04   7.4449764E+04   -1.6690812E+00
   4.5954830E-04   7.3879510E+04   -1.6685659E+00
   4.6167054E-04   7.3313799E+04   -1.6680513E+00
   4.6380259E-04   7.2752591E+04   -1.6675375E+00
   4.6594448E-04   7.2195850E+04   -1.6670245E+00
   4.6809626E-04   7.1643539E+04   -1.6665123E+00
   4.7025797E-04   7.1095621E+04   -1.6660008E+00
   4.7242967E-04   7.0552059E+04   -1.6654902E+00
   4.7461140E-04   7.0012818E+04   -1.6649803E+00
   4.7680321E-04   6.9477861E+04   -1.6644713E+00
   4.7900514E-04   6.8947153E+04   -1.6639630E+00
   4.8121723E-04   6.8420659E+04   -1.6634556E+00
   4.8343954E-04   6.7898345E+04   -1.6629489E+00
   4.8567212E-04   6.7380175E+04   -1.6624431E+00
   4.8791500E-04   6.6866115E+04   -1.6619381E+00
   4.9016825E-04   6.6356131E+04   -1.6614339E+00
   4.9243189E-04   6.5850190E+04   -1.6609305E+00
   4.9470600E-04   6.5348257E+04   -1.6604279E+00
   4.9699060E-04   6.4850301E+04   -1.6599262E+00
   4.9928575E-04   6.4356288E+04   -1.6594253E+00
   5.0159151E-04   6.3866185E+04   -1.6589252E+00
   5.0390791E-04   6.3379960E+04   -1.6584260E+00
   5.0623501E-04   6.2897582E+04   -1.6579276E+00
   5.0857286E-04   6.2419018E+04   -1.6574301E+00
   5.1092150E-04   6.1944237E+04   -1.6569334E+00
   5.1328099E-04   6.1473209E+04   -1.6564376E+00
   5.1565137E-04   6.1005901E+04   -1.6559426E+00
   5.1803270E-04   6.0542284E+04   -1.6554484E+00
   5.2042503E-04   6.0082326E+04   -1.6549552E+00
   5.2282841E-04   5.9625999E+04   -1.6544628E+00
   5.2524289E-04   5.9173271E+04   -1.6539712E+00
   5.2766851E-04   5.8724114E+04   -1.6534806E+00
   5.3010534E-04   5.8278498E+04   -1.6529907E+00
   5.3255342E-04   5.7836393E+04   -1.6525018E+00
   5.3501281E-04   5.7397772E+04   -1.6520138E+00
   5.3748356E-04   5.6962605E+04   -1.6515266E+00
   5.3996571E-04   5.6530864E+04   -1.6510403E+00
   5.4245933E-04   5.6102520E+04   -1.6505549E+00
   5.4496446E-04   5.5677547E+04   -1.6500704E+00
   5.4748117E-04   5.5255917E+04   -1.6495867E+00
   5.5000949E-04   5.4837601E+04   -1.6491040E+00
   5.5254949E-04   5.4422573E+04   -1.6486222E+00
   5.5510123E-04   5.4010806E+04   -1.6481412E+00
   5.5766474E-04   5.3602274E+04   -1.6476612E+00
   5.6024010E-04   5.3196948E+04   -1.6471821E+00
   5.6282734E-04   5.2794805E+04   -1.6467038E+00
   5.6542654E-04   5.2395816E+04   -1.6462265E+00
   5.6803774E-04   5.1999957E+04   -1.6457501E+00
   5.7066099E-04   5.1607202E+04   -1.6452746E+00
   5.7329637E-04   5.1217526E+04   -1.6448000E+00
   5.7594391E-04   5.0830903E+04   -1.6443264E+00
   5.7860368E-04   5.0447308E+04   -1.6438536E+00
   5.8127573E-04   5.0066717E+04   -1.6433818E+00
   5.8396012E-04   4.9689106E+04   -1.6429109E+00
   5.8665691E-04   4.9314449E+04   -1.6424409E+00
   5.8936616E-04   4.8942723E+04   -1.6419719E+00
   5.9208791E-04   4.8573904E+04   -1.6415038E+00
   5.9482223E-04   4.8207969E+04   -1.6410366E+00
   5.9756919E-04   4.7844892E+04   -1.6405704E+00
   6.0032882E-04   4.7484653E+04   -1.6401051E+00
   6.0310120E-04   4.7127226E+04   -1.6396407E+00
   6.0588639E-04   4.6772590E+04   -1.6391773E+00
   6.0868443E-04   4.6420722E+04   -1.6387149E+00
   6.1149540E-04   4.6071598E+04   -1.6382533E+00
   6.1431935E-04   4.5725198E+04   -1.6377928E+00
   6.1715634E-04   4.5381499E+04   -1.6373332E+00
   6.2000644E-04   4.5040478E+04   -1.6368745E+00
   6.2286969E-04   4.4702114E+04   -1.6364168E+00
