#        a       HoverH0(a)       dlogHdloga_of_a(a)
   1.0000000E-04   1.1232401E+06   -1.8892889E+00
   1.0046181E-04   1.1135059E+06   -1.8888913E+00
   1.0092575E-04   1.1038581E+06   -1.8884926E+00
   1.0139184E-04   1.0942959E+06   -1.8880928E+00
   1.0186008E-04   1.0848186E+06   -1.8876921E+00
   1.0233048E-04   1.0754253E+06   -1.8872904E+00
   1.0280305E-04   1.0661153E+06   -1.8868876E+00
   1.0327781E-04   1.0568879E+06   -1.8864838E+00
   1.0375475E-04   1.0477423E+06   -1.8860790E+00
   1.0423390E-04   1.0386777E+06   -1.8856732E+00
   1.0471527E-04   1.0296935E+06   -1.8852664E+00
   1.0519885E-04   1.0207890E+06   -1.8848585E+00
   1.0568467E-04   1.0119634E+06   -1.8844496E+00
   1.0617274E-04   1.0032159E+06   -1.8840398E+00
   1.0666305E-04   9.9454596E+05   -1.8836289E+00
   1.0715563E-04   9.8595281E+05   -1.8832169E+00
   1.0765049E-04   9.7743576E+05   -1.8828040E+00
   1.0814763E-04   9.6899413E+05   -1.8823901E+00
   1.0864707E-04   9.6062724E+05   -1.8819752E+00
   1.0914881E-04   9.5233442E+05   -1.8815592E+00
   1.0965287E-04   9.4411500E+05   -1.8811422E+00
   1.1015926E-04   9.3596832E+05   -1.8807243E+00
   1.1066799E-04   9.2789372E+05   -1.8803053E+00
   1.1117906E-04   9.1989057E+05   -1.8798853E+00
   1.1169250E-04   9.1195820E+05   -1.8794643E+00
   1.1220831E-04   9.0409600E+05   -1.8790423E+00
   1.1272650E-04   8.9630332E+05   -1.8786193E+00
   1.1324708E-04   8.8857954E+05   -1.8781953E+00
   1.1377007E-04   8.8092405E+05   -1.8777703E+00
   1.1429547E-04   8.7333622E+05   -1.8773442E+00
   1.1482330E-04   8.6581546E+05   -1.8769172E+00
   1.1535356E-04   8.5836115E+05   -1.8764892E+00
   1.1588628E-04   8.5097269E+05   -1.8760602E+00
   1.1642145E-04   8.4364951E+05   -1.8756302E+00
   1.1695910E-04   8.3639100E+05   -1.8751992E+00
   1.1749923E-04   8.2919659E+05   -1.8747671E+00
   1.1804185E-04   8.2206571E+05   -1.8743341E+00
   1.1858698E-04   8.1499777E+05   -1.8739001E+00
   1.1913463E-04   8.0799223E+05   -1.8734652E+00
   1.1968481E-04   8.0104850E+05   -1.8730292E+00
   1.2023752E-04   7.9416605E+05   -1.8725922E+00
   1.2079279E-04   7.8734432E+05   -1.8721543E+00
   1.2135063E-04   7.8058276E+05   -1.8717153E+00
   1.2191104E-04   7.7388084E+05   -1.8712754E+00
   1.2247403E-04   7.6723801E+05   -1.8708345E+00
   1.2303963E-04   7.6065375E+05   -1.8703926E+00
   1.2360784E-04   7.5412754E+05   -1.8699497E+00
   1.2417868E-04   7.4765884E+05   -1.8695058E+00
   1.2475215E-04   7.4124715E+05   -1.8690610E+00
   1.2532826E-04   7.3489195E+05   -1.8686152E+00
   1.2590704E-04   7.2859274E+05   -1.8681684E+00
   1.2648850E-04   7.2234900E+05   -1.8677206E+00
   1.2707263E-04   7.1616026E+05   -1.8672719E+00
   1.2765947E-04   7.1002600E+05   -1.8668222E+00
   1.2824901E-04   7.0394575E+05   -1.8663715E+00
   1.2884128E-04   6.9791902E+05   -1.8659198E+00
   1.2943628E-04   6.9194533E+05   -1.8654672E+00
   1.3003403E-04   6.8602420E+05   -1.8650136E+00
   1.3063454E-04   6.8015516E+05   -1.8645591E+00
   1.3123783E-04   6.7433775E+05   -1.8641036E+00
   1.3184390E-04   6.6857149E+05   -1.8636471E+00
   1.3245277E-04   6.6285594E+05   -1.8631897E+00
   1.3306445E-04   6.5719064E+05   -1.8627313E+00
   1.3367895E-04   6.5157513E+05   -1.8622720E+00
   1.3429630E-04   6.4600898E+05   -1.8618117E+00
   1.3491649E-04   6.4049173E+05   -1.8613505E+00
   1.3553955E-04   6.3502296E+05   -1.8608883E+00
   1.3616548E-04   6.2960222E+05   -1.8604252E+00
   1.3679431E-04   6.2422909E+05   -1.8599611E+00
   1.3742604E-04   6.1890314E+05   -1.8594961E+00
   1.3806069E-04   6.1362395E+05   -1.8590302E+00
   1.3869827E-04   6.0839109E+05   -1.8585633E+00
   1.3933879E-04   6.0320416E+05   -1.8580955E+00
   1.3998227E-04   5.9806274E+05   -1.8576267E+00
   1.4062872E-04   5.9296643E+05   -1.8571571E+00
   1.4127816E-04   5.8791481E+05   -1.8566864E+00
   1.4193060E-04   5.8290750E+05   -1.8562149E+00
   1.4258605E-04   5.7794409E+05   -1.8557424E+00
   1.4324453E-04   5.7302420E+05   -1.8552691E+00
   1.4390605E-04   5.6814742E+05   -1.8547948E+00
   1.4457062E-04   5.6331339E+05   -1.8543195E+00
   1.4523826E-04   5.5852170E+05   -1.8538434E+00
   1.4590899E-04   5.5377200E+05   -1.8533663E+00
   1.4658281E-04   5.4906389E+05   -1.8528884E+00
   1.4725974E-04   5.4439701E+05   -1.8524095E+00
   1.4793981E-04   5.3977099E+05   -1.8519298E+00
   1.4862301E-04   5.3518546E+05   -1.8514491E+00
   1.4930936E-04   5.3064007E+05   -1.8509675E+00
   1.4999889E-04   5.2613444E+05   -1.8504850E+00
   1.5069160E-04   5.2166824E+05   -1.8500017E+00
   1.5138751E-04   5.1724110E+05   -1.8495174E+00
   1.5208663E-04   5.1285267E+05   -1.8490323E+00
   1.5278899E-04   5.0850262E+05   -1.8485462E+00
   1.5349458E-04   5.0419060E+05   -1.8480593E+00
   1.5420343E-04   4.9991626E+05   -1.8475715E+00
   1.5491556E-04   4.9567927E+05   -1.8470829E+00
   1.5563098E-04   4.9147931E+05   -1.8465933E+00
   1.5634970E-04   4.8731602E+05   -1.8461029E+00
   1.5707174E-04   4.8318910E+05   -1.8456116E+00
   1.5779711E-04   4.7909822E+05   -1.8451194E+00
   1.5852584E-04   4.7504304E+05   -1.8446264E+00
   1.5925792E-04   4.7102326E+05   -1.8441325E+00
   1.5999339E-04   4.6703856E+05   -1.8436378E+00
   1.6073226E-04   4.6308863E+05   -1.8431422E+00
   1.6147454E-04   4.5917315E+05   -1.8426457E+00
   1.6222024E-04   4.5529182E+05   -1.8421485E+00
   1.6296939E-04   4.5144433E+05   -1.8416503E+00
   1.6372200E-04   4.4763039E+05   -1.8411513E+00
   1.6447809E-04   4.4384969E+05   -1.8406515E+00
   1.6523767E-04   4.4010193E+05   -1.8401508E+00
   1.6600075E-04   4.3638683E+05   -1.8396494E+00
   1.6676736E-04   4.3270409E+05   -1.8391470E+00
   1.6753751E-04   4.2905342E+05   -1.8386439E+00
   1.6831122E-04   4.2543454E+05   -1.8381399E+00
   1.6908849E-04   4.2184716E+05   -1.8376351E+00
   1.6986936E-04   4.1829100E+05   -1.8371295E+00
   1.7065384E-04   4.1476580E+05   -1.8366231E+00
   1.7144193E-04   4.1127126E+05   -1.8361159E+00
   1.7223367E-04   4.0780711E+05   -1.8356078E+00
   1.7302906E-04   4.0437310E+05   -1.8350990E+00
   1.7382813E-04   4.0096894E+05   -1.8345894E+00
   1.7463089E-04   3.9759437E+05   -1.8340789E+00
   1.7543735E-04   3.9424913E+05   -1.8335677E+00
   1.7624754E-04   3.9093296E+05   -1.8330557E+00
   1.7706147E-04   3.8764560E+05   -1.8325429E+00
   1.7787916E-04   3.8438679E+05   -1.8320293E+00
   1.7870062E-04   3.8115627E+05   -1.8315150E+00
   1.7952588E-04   3.7795381E+05   -1.8309998E+00
   1.8035495E-04   3.7477914E+05   -1.8304839E+00
   1.8118785E-04   3.7163202E+05   -1.8299673E+00
   1.8202459E-04   3.6851221E+05   -1.8294498E+00
   1.8286520E-04   3.6541946E+05   -1.8289317E+00
   1.8370969E-04   3.6235353E+05   -1.8284127E+00
   1.8455808E-04   3.5931418E+05   -1.8278930E+00
   1.8541039E-04   3.5630118E+05   -1.8273726E+00
   1.8626663E-04   3.5331430E+05   -1.8268514E+00
   1.8712683E-04   3.5035329E+05   -1.8263295E+00
   1.8799100E-04   3.4741794E+05   -1.8258068E+00
   1.8885917E-04   3.4450801E+05   -1.8252835E+00
   1.8973134E-04   3.4162328E+05   -1.8247593E+00
   1.9060754E-04   3.3876352E+05   -1.8242345E+00
   1.9148778E-04   3.3592851E+05   -1.8237090E+00
   1.9237209E-04   3.3311804E+05   -1.8231827E+00
   1.9326049E-04   3.3033188E+05   -1.8226557E+00
   1.9415299E-04   3.2756982E+05   -1.8221280E+00
   1.9504960E-04   3.2483164E+05   -1.8215996E+00
   1.9595036E-04   3.2211714E+05   -1.8210705E+00
   1.9685528E-04   3.1942611E+05   -1.8205408E+00
   1.9776438E-04   3.1675832E+05   -1.8200103E+00
   1.9867768E-04   3.1411359E+05   -1.8194791E+00
   1.9959519E-04   3.1149170E+05   -1.8189473E+00
   2.0051694E-04   3.0889245E+05   -1.8184148E+00
   2.0144295E-04   3.0631565E+05   -1.8178816E+00
   2.0237324E-04   3.0376108E+05   -1.8173478E+00
   2.0330782E-04   3.0122857E+05   -1.8168132E+00
   2.0424671E-04   2.9871790E+05   -1.8162781E+00
   2.0518995E-04   2.9622889E+05   -1.8157422E+00
   2.0613754E-04   2.9376134E+05   -1.8152058E+00
   2.0708950E-04   2.9131507E+05   -1.8146686E+00
   2.0804586E-04   2.8888989E+05   -1.8141309E+00
   2.0900664E-04   2.8648560E+05   -1.8135925E+00
   2.0997185E-04   2.8410203E+05   -1.8130534E+00
   2.1094152E-04   2.8173899E+05   -1.8125138E+00
   2.1191567E-04   2.7939631E+05   -1.8119735E+00
   2.1289432E-04   2.7707379E+05   -1.8114326E+00
   2.1387749E-04   2.7477126E+05   -1.8108911E+00
   2.1486520E-04   2.7248855E+05   -1.8103490E+00
   2.1585747E-04   2.7022547E+05   -1.8098062E+00
   2.1685432E-04   2.6798187E+05   -1.8092629E+00
   2.1785578E-04   2.6575755E+05   -1.8087190E+00
   2.1886186E-04   2.6355236E+05   -1.8081745E+00
   2.1987259E-04   2.6136612E+05   -1.8076294E+00
   2.2088798E-04   2.5919867E+05   -1.8070837E+00
   2.2190807E-04   2.5704985E+05   -1.8065375E+00
   2.2293286E-04   2.5491947E+05   -1.8059906E+00
   2.2396239E-04   2.5280739E+05   -1.8054433E+00
   2.2499667E-04   2.5071345E+05   -1.8048953E+00
   2.2603573E-04   2.4863747E+05   -1.8043468E+00
   2.2707958E-04   2.4657931E+05   -1.8037978E+00
   2.2812826E-04   2.4453880E+05   -1.8032482E+00
   2.2918178E-04   2.4251580E+05   -1.8026981E+00
   2.3024017E-04   2.4051013E+05   -1.8021474E+00
   2.3130344E-04   2.3852167E+05   -1.8015962E+00
   2.3237162E-04   2.3655024E+05   -1.8010445E+00
   2.3344474E-04   2.3459570E+05   -1.8004922E+00
   2.3452281E-04   2.3265791E+05   -1.7999395E+00
   2.3560586E-04   2.3073671E+05   -1.7993862E+00
   2.3669392E-04   2.2883196E+05   -1.7988324E+00
   2.3778699E-04   2.2694351E+05   -1.7982782E+00
   2.3888512E-04   2.2507122E+05   -1.7977234E+00
   2.3998831E-04   2.2321495E+05   -1.7971682E+00
   2.4109661E-04   2.2137455E+05   -1.7966124E+00
   2.4221001E-04   2.1954989E+05   -1.7960562E+00
   2.4332857E-04   2.1774083E+05   -1.7954995E+00
   2.4445228E-04   2.1594723E+05   -1.7949424E+00
   2.4558119E-04   2.1416895E+05   -1.7943847E+00
   2.4671531E-04   2.1240587E+05   -1.7938267E+00
   2.4785467E-04   2.1065784E+05   -1.7932682E+00
   2.4899928E-04   2.0892473E+05   -1.7927092E+00
   2.5014919E-04   2.0720642E+05   -1.7921498E+00
   2.5130440E-04   2.0550276E+05   -1.7915899E+00
   2.5246495E-04   2.0381364E+05   -1.7910297E+00
   2.5363086E-04   2.0213893E+05   -1.7904690E+00
   2.5480216E-04   2.0047850E+05   -1.7899078E+00
   2.5597886E-04   1.9883222E+05   -1.7893463E+00
   2.5716100E-04   1.9719996E+05   -1.7887844E+00
   2.5834859E-04   1.9558162E+05   -1.7882220E+00
   2.5954168E-04   1.9397706E+05   -1.7876593E+00
   2.6074027E-04   1.9238616E+05   -1.7870962E+00
   2.6194439E-04   1.9080880E+05   -1.7865326E+00
   2.6315408E-04   1.8924487E+05   -1.7859687E+00
   2.6436935E-04   1.8769424E+05   -1.7854045E+00
   2.6559024E-04   1.8615681E+05   -1.7848398E+00
   2.6681676E-04   1.8463245E+05   -1.7842748E+00
   2.6804895E-04   1.8312104E+05   -1.7837095E+00
   2.6928683E-04   1.8162249E+05   -1.7831438E+00
   2.7053042E-04   1.8013666E+05   -1.7825777E+00
   2.7177976E-04   1.7866346E+05   -1.7820113E+00
   2.7303487E-04   1.7720277E+05   -1.7814446E+00
   2.7429577E-04   1.7575448E+05   -1.7808775E+00
   2.7556250E-04   1.7431848E+05   -1.7803101E+00
   2.7683507E-04   1.7289467E+05   -1.7797424E+00
   2.7811353E-04   1.7148293E+05   -1.7791744E+00
   2.7939788E-04   1.7008317E+05   -1.7786061E+00
   2.8068817E-04   1.6869527E+05   -1.7780375E+00
   2.8198442E-04   1.6731914E+05   -1.7774686E+00
   2.8328665E-04   1.6595467E+05   -1.7768994E+00
   2.8459490E-04   1.6460176E+05   -1.7763299E+00
   2.8590919E-04   1.6326031E+05   -1.7757601E+00
   2.8722955E-04   1.6193021E+05   -1.7751901E+00
   2.8855600E-04   1.6061138E+05   -1.7746198E+00
   2.8988859E-04   1.5930370E+05   -1.7740492E+00
   2.9122732E-04   1.5800708E+05   -1.7734784E+00
   2.9257224E-04   1.5672143E+05   -1.7729073E+00
   2.9392337E-04   1.5544665E+05   -1.7723360E+00
   2.9528074E-04   1.5418265E+05   -1.7717645E+00
   2.9664438E-04   1.5292933E+05   -1.7711927E+00
   2.9801431E-04   1.5168659E+05   -1.7706207E+00
   2.9939057E-04   1.5045435E+05   -1.7700485E+00
   3.0077319E-04   1.4923251E+05   -1.7694761E+00
   3.0216219E-04   1.4802099E+05   -1.7689035E+00
   3.0355761E-04   1.4681969E+05   -1.7683306E+00
   3.0495947E-04   1.4562852E+05   -1.7677576E+00
   3.0636780E-04   1.4444740E+05   -1.7671844E+00
   3.0778264E-04   1.4327624E+05   -1.7666110E+00
   3.0920401E-04   1.4211495E+05   -1.7660374E+00
   3.1063195E-04   1.4096344E+05   -1.7654637E+00
   3.1206648E-04   1.3982163E+05   -1.7648898E+00
   3.1350764E-04   1.3868944E+05   -1.7643157E+00
   3.1495545E-04   1.3756678E+05   -1.7637415E+00
   3.1640994E-04   1.3645357E+05   -1.7631672E+00
   3.1787116E-04   1.3534972E+05   -1.7625927E+00
   3.1933912E-04   1.3425517E+05   -1.7620180E+00
   3.2081386E-04   1.3316981E+05   -1.7614433E+00
   3.2229541E-04   1.3209358E+05   -1.7608684E+00
   3.2378381E-04   1.3102639E+05   -1.7602934E+00
   3.2527908E-04   1.2996817E+05   -1.7597183E+00
   3.2678125E-04   1.2891884E+05   -1.7591431E+00
   3.2829036E-04   1.2787832E+05   -1.7585678E+00
   3.2980644E-04   1.2684653E+05   -1.7579924E+00
   3.3132952E-04   1.2582340E+05   -1.7574169E+00
   3.3285963E-04   1.2480886E+05   -1.7568413E+00
   3.3439681E-04   1.2380282E+05   -1.7562657E+00
   3.3594109E-04   1.2280522E+05   -1.7556899E+00
   3.3749250E-04   1.2181598E+05   -1.7551142E+00
   3.3905108E-04   1.2083503E+05   -1.7545384E+00
   3.4061685E-04   1.1986230E+05   -1.7539625E+00
   3.4218986E-04   1.1889772E+05   -1.7533866E+00
   3.4377013E-04   1.1794120E+05   -1.7528106E+00
   3.4535769E-04   1.1699270E+05   -1.7522346E+00
   3.4695259E-04   1.1605213E+05   -1.7516586E+00
   3.4855485E-04   1.1511943E+05   -1.7510826E+00
   3.5016452E-04   1.1419452E+05   -1.7505066E+00
   3.5178161E-04   1.1327735E+05   -1.7499305E+00
   3.5340618E-04   1.1236785E+05   -1.7493545E+00
   3.5503824E-04   1.1146594E+05   -1.7487784E+00
   3.5667785E-04   1.1057156E+05   -1.7482024E+00
   3.5832502E-04   1.0968465E+05   -1.7476264E+00
   3.5997981E-04   1.0880515E+05   -1.7470504E+00
   3.6164223E-04   1.0793298E+05   -1.7464745E+00
   3.6331233E-04   1.0706809E+05   -1.7458986E+00
   3.6499015E-04   1.0621041E+05   -1.7453227E+00
   3.6667571E-04   1.0535988E+05   -1.7447469E+00
   3.6836906E-04   1.0451644E+05   -1.7441711E+00
   3.7007022E-04   1.0368002E+05   -1.7435954E+00
   3.7177925E-04   1.0285058E+05   -1.7430197E+00
   3.7349616E-04   1.0202804E+05   -1.7424442E+00
   3.7522101E-04   1.0121234E+05   -1.7418687E+00
   3.7695382E-04   1.0040343E+05   -1.7412933E+00
   3.7869463E-04   9.9601255E+04   -1.7407180E+00
   3.8044348E-04   9.8805748E+04   -1.7401427E+00
   3.8220041E-04   9.8016854E+04   -1.7395676E+00
   3.8396545E-04   9.7234516E+04   -1.7389926E+00
   3.8573864E-04   9.6458679E+04   -1.7384178E+00
   3.8752002E-04   9.5689285E+04   -1.7378430E+00
   3.8930963E-04   9.4926279E+04   -1.7372684E+00
   3.9110750E-04   9.4169607E+04   -1.7366939E+00
   3.9291368E-04   9.3419214E+04   -1.7361195E+00
   3.9472820E-04   9.2675045E+04   -1.7355453E+00
   3.9655109E-04   9.1937048E+04   -1.7349712E+00
   3.9838241E-04   9.1205168E+04   -1.7343973E+00
   4.0022218E-04   9.0479354E+04   -1.7338236E+00
   4.0207045E-04   8.9759554E+04   -1.7332500E+00
   4.0392725E-04   8.9045715E+04   -1.7326766E+00
   4.0579263E-04   8.8337787E+04   -1.7321034E+00
   4.0766662E-04   8.7635718E+04   -1.7315304E+00
   4.0954927E-04   8.6939458E+04   -1.7309575E+00
   4.1144061E-04   8.6248957E+04   -1.7303849E+00
   4.1334068E-04   8.5564167E+04   -1.7298125E+00
   4.1524953E-04   8.4885037E+04   -1.7292403E+00
   4.1716720E-04   8.4211520E+04   -1.7286683E+00
   4.1909372E-04   8.3543566E+04   -1.7280965E+00
   4.2102914E-04   8.2881129E+04   -1.7275250E+00
   4.2297350E-04   8.2224161E+04   -1.7269537E+00
   4.2492683E-04   8.1572616E+04   -1.7263826E+00
   4.2688919E-04   8.0926446E+04   -1.7258118E+00
   4.2886061E-04   8.0285606E+04   -1.7252412E+00
   4.3084113E-04   7.9650050E+04   -1.7246709E+00
   4.3283080E-04   7.9019732E+04   -1.7241009E+00
   4.3482966E-04   7.8394609E+04   -1.7235311E+00
   4.3683775E-04   7.7774635E+04   -1.7229616E+00
   4.3885511E-04   7.7159766E+04   -1.7223924E+00
   4.4088179E-04   7.6549959E+04   -1.7218235E+00
   4.4291783E-04   7.5945171E+04   -1.7212549E+00
   4.4496327E-04   7.5345358E+04   -1.7206865E+00
   4.4701816E-04   7.4750478E+04   -1.7201185E+00
   4.4908253E-04   7.4160489E+04   -1.7195508E+00
   4.5115644E-04   7.3575349E+04   -1.7189834E+00
   4.5323993E-04   7.2995016E+04   -1.7184164E+00
   4.5533304E-04   7.2419451E+04   -1.7178496E+00
   4.5743582E-04   7.1848611E+04   -1.7172832E+00
   4.5954830E-04   7.1282456E+04   -1.7167172E+00
   4.6167054E-04   7.0720948E+04   -1.7161514E+00
   4.6380259E-04   7.0164045E+04   -1.7155861E+00
   4.6594448E-04   6.9611709E+04   -1.7150211E+00
   4.6809626E-04   6.9063900E+04   -1.7144564E+00
   4.7025797E-04   6.8520581E+04   -1.7138922E+00
   4.7242967E-04   6.7981713E+04   -1.7133283E+00
   4.7461140E-04   6.7447257E+04   -1.7127647E+00
   4.7680321E-04   6.6917178E+04   -1.7122016E+00
   4.7900514E-04   6.6391436E+04   -1.7116389E+00
   4.8121723E-04   6.5869996E+04   -1.7110765E+00
   4.8343954E-04   6.5352820E+04   -1.7105146E+00
   4.8567212E-04   6.4839873E+04   -1.7099530E+00
   4.8791500E-04   6.4331118E+04   -1.7093919E+00
   4.9016825E-04   6.3826520E+04   -1.7088312E+00
   4.9243189E-04   6.3326044E+04   -1.7082709E+00
   4.9470600E-04   6.2829654E+04   -1.7077111E+00
   4.9699060E-04   6.2337315E+04   -1.7071516E+00
   4.9928575E-04   6.1848994E+04   -1.7065927E+00
   5.0159151E-04   6.1364657E+04   -1.7060341E+00
   5.0390791E-04   6.0884268E+04   -1.7054761E+00
   5.0623501E-04   6.0407796E+04   -1.7049184E+00
   5.0857286E-04   5.9935206E+04   -1.7043613E+00
   5.1092150E-04   5.9466467E+04   -1.7038046E+00
   5.1328099E-04   5.9001544E+04   -1.7032484E+00
   5.1565137E-04   5.8540406E+04   -1.7026926E+00
   5.1803270E-04   5.8083021E+04   -1.7021373E+00
   5.2042503E-04   5.7629358E+04   -1.7015826E+00
   5.2282841E-04   5.7179383E+04   -1.7010283E+00
   5.2524289E-04   5.6733067E+04   -1.7004745E+00
   5.2766851E-04   5.6290378E+04   -1.6999212E+00
   5.3010534E-04   5.5851286E+04   -1.6993685E+00
   5.3255342E-04   5.5415759E+04   -1.6988162E+00
   5.3501281E-04   5.4983769E+04   -1.6982645E+00
   5.3748356E-04   5.4555285E+04   -1.6977133E+00
   5.3996571E-04   5.4130278E+04   -1.6971626E+00
   5.4245933E-04   5.3708718E+04   -1.6966125E+00
   5.4496446E-04   5.3290576E+04   -1.6960628E+00
   5.4748117E-04   5.2875823E+04   -1.6955138E+00
   5.5000949E-04   5.2464431E+04   -1.6949653E+00
   5.5254949E-04   5.2056371E+04   -1.6944173E+00
   5.5510123E-04   5.1651615E+04   -1.6938699E+00
   5.5766474E-04   5.1250136E+04   -1.6933231E+00
   5.6024010E-04   5.0851905E+04   -1.6927768E+00
   5.6282734E-04   5.0456895E+04   -1.6922311E+00
   5.6542654E-04   5.0065080E+04   -1.6916860E+00
   5.6803774E-04   4.9676432E+04   -1.6911415E+00
   5.7066099E-04   4.9290924E+04   -1.6905976E+00
   5.7329637E-04   4.8908531E+04   -1.6900542E+00
   5.7594391E-04   4.8529226E+04   -1.6895115E+00
   5.7860368E-04   4.8152983E+04   -1.6889694E+00
   5.8127573E-04   4.7779776E+04   -1.6884278E+00
   5.8396012E-04   4.7409580E+04   -1.6878869E+00
   5.8665691E-04   4.7042369E+04   -1.6873466E+00
   5.8936616E-04   4.6678118E+04   -1.6868069E+00
   5.9208791E-04   4.6316803E+04   -1.6862679E+00
   5.9482223E-04   4.5958399E+04   -1.6857295E+00
   5.9756919E-04   4.5602882E+04   -1.6851917E+00
   6.0032882E-04   4.5250226E+04   -1.6846545E+00
   6.0310120E-04   4.4900409E+04   -1.6841180E+00
   6.0588639E-04   4.4553406E+04   -1.6835822E+00
   6.0868443E-04   4.4209194E+04   -1.6830470E+00
   6.1149540E-04   4.3867750E+04   -1.6825124E+00
   6.1431935E-04   4.3529049E+04   -1.6819786E+00
   6.1715634E-04   4.3193070E+04   -1.6814454E+00
   6.2000644E-04   4.2859790E+04   -1.6809128E+00
   6.2286969E-04   4.2529185E+04   -1.6803810E+00
