#        a       HoverH0(a)       dlogHdloga_of_a(a)
   1.0000000E-04   1.1536099E+06   -1.8760868E+00
   1.0046181E-04   1.1436822E+06   -1.8756569E+00
   1.0092575E-04   1.1338422E+06   -1.8752259E+00
   1.0139184E-04   1.1240890E+06   -1.8747940E+00
   1.0186008E-04   1.1144220E+06   -1.8743610E+00
   1.0233048E-04   1.1048403E+06   -1.8739271E+00
   1.0280305E-04   1.0953432E+06   -1.8734922E+00
   1.0327781E-04   1.0859299E+06   -1.8730563E+00
   1.0375475E-04   1.0765997E+06   -1.8726194E+00
   1.0423390E-04   1.0673518E+06   -1.8721815E+00
   1.0471527E-04   1.0581854E+06   -1.8717426E+00
   1.0519885E-04   1.0490999E+06   -1.8713027E+00
   1.0568467E-04   1.0400945E+06   -1.8708619E+00
   1.0617274E-04   1.0311686E+06   -1.8704200E+00
   1.0666305E-04   1.0223213E+06   -1.8699772E+00
   1.0715563E-04   1.0135520E+06   -1.8695334E+00
   1.0765049E-04   1.0048599E+06   -1.8690887E+00
   1.0814763E-04   9.9624447E+05   -1.8686429E+00
   1.0864707E-04   9.8770492E+05   -1.8681962E+00
   1.0914881E-04   9.7924058E+05   -1.8677485E+00
   1.0965287E-04   9.7085078E+05   -1.8672998E+00
   1.1015926E-04   9.6253486E+05   -1.8668502E+00
   1.1066799E-04   9.5429215E+05   -1.8663996E+00
   1.1117906E-04   9.4612199E+05   -1.8659480E+00
   1.1169250E-04   9.3802373E+05   -1.8654954E+00
   1.1220831E-04   9.2999673E+05   -1.8650419E+00
   1.1272650E-04   9.2204034E+05   -1.8645874E+00
   1.1324708E-04   9.1415395E+05   -1.8641320E+00
   1.1377007E-04   9.0633691E+05   -1.8636756E+00
   1.1429547E-04   8.9858861E+05   -1.8632183E+00
   1.1482330E-04   8.9090843E+05   -1.8627599E+00
   1.1535356E-04   8.8329576E+05   -1.8623007E+00
   1.1588628E-04   8.7574999E+05   -1.8618405E+00
   1.1642145E-04   8.6827052E+05   -1.8613793E+00
   1.1695910E-04   8.6085677E+05   -1.8609172E+00
   1.1749923E-04   8.5350814E+05   -1.8604541E+00
   1.1804185E-04   8.4622404E+05   -1.8599901E+00
   1.1858698E-04   8.3900391E+05   -1.8595252E+00
   1.1913463E-04   8.3184716E+05   -1.8590593E+00
   1.1968481E-04   8.2475323E+05   -1.8585925E+00
   1.2023752E-04   8.1772156E+05   -1.8581247E+00
   1.2079279E-04   8.1075159E+05   -1.8576561E+00
   1.2135063E-04   8.0384277E+05   -1.8571864E+00
   1.2191104E-04   7.9699455E+05   -1.8567159E+00
   1.2247403E-04   7.9020638E+05   -1.8562444E+00
   1.2303963E-04   7.8347773E+05   -1.8557720E+00
   1.2360784E-04   7.7680808E+05   -1.8552987E+00
   1.2417868E-04   7.7019688E+05   -1.8548245E+00
   1.2475215E-04   7.6364361E+05   -1.8543493E+00
   1.2532826E-04   7.5714777E+05   -1.8538732E+00
   1.2590704E-04   7.5070882E+05   -1.8533962E+00
   1.2648850E-04   7.4432628E+05   -1.8529183E+00
   1.2707263E-04   7.3799962E+05   -1.8524395E+00
   1.2765947E-04   7.3172836E+05   -1.8519598E+00
   1.2824901E-04   7.2551199E+05   -1.8514792E+00
   1.2884128E-04   7.1935003E+05   -1.8509977E+00
   1.2943628E-04   7.1324199E+05   -1.8505153E+00
   1.3003403E-04   7.0718738E+05   -1.8500320E+00
   1.3063454E-04   7.0118574E+05   -1.8495478E+00
   1.3123783E-04   6.9523658E+05   -1.8490627E+00
   1.3184390E-04   6.8933943E+05   -1.8485768E+00
   1.3245277E-04   6.8349384E+05   -1.8480899E+00
   1.3306445E-04   6.7769934E+05   -1.8476022E+00
   1.3367895E-04   6.7195548E+05   -1.8471136E+00
   1.3429630E-04   6.6626180E+05   -1.8466241E+00
   1.3491649E-04   6.6061786E+05   -1.8461337E+00
   1.3553955E-04   6.5502320E+05   -1.8456425E+00
   1.3616548E-04   6.4947741E+05   -1.8451504E+00
   1.3679431E-04   6.4398002E+05   -1.8446574E+00
   1.3742604E-04   6.3853062E+05   -1.8441636E+00
   1.3806069E-04   6.3312877E+05   -1.8436689E+00
   1.3869827E-04   6.2777406E+05   -1.8431734E+00
   1.3933879E-04   6.2246605E+05   -1.8426770E+00
   1.3998227E-04   6.1720434E+05   -1.8421798E+00
   1.4062872E-04   6.1198851E+05   -1.8416817E+00
   1.4127816E-04   6.0681814E+05   -1.8411828E+00
   1.4193060E-04   6.0169285E+05   -1.8406830E+00
   1.4258605E-04   5.9661222E+05   -1.8401824E+00
   1.4324453E-04   5.9157585E+05   -1.8396810E+00
   1.4390605E-04   5.8658336E+05   -1.8391787E+00
   1.4457062E-04   5.8163434E+05   -1.8386756E+00
   1.4523826E-04   5.7672843E+05   -1.8381717E+00
   1.4590899E-04   5.7186521E+05   -1.8376670E+00
   1.4658281E-04   5.6704433E+05   -1.8371615E+00
   1.4725974E-04   5.6226540E+05   -1.8366551E+00
   1.4793981E-04   5.5752805E+05   -1.8361479E+00
   1.4862301E-04   5.5283190E+05   -1.8356400E+00
   1.4930936E-04   5.4817659E+05   -1.8351312E+00
   1.4999889E-04   5.4356176E+05   -1.8346216E+00
   1.5069160E-04   5.3898705E+05   -1.8341112E+00
   1.5138751E-04   5.3445209E+05   -1.8336001E+00
   1.5208663E-04   5.2995654E+05   -1.8330881E+00
   1.5278899E-04   5.2550005E+05   -1.8325754E+00
   1.5349458E-04   5.2108226E+05   -1.8320619E+00
   1.5420343E-04   5.1670284E+05   -1.8315476E+00
   1.5491556E-04   5.1236144E+05   -1.8310325E+00
   1.5563098E-04   5.0805772E+05   -1.8305167E+00
   1.5634970E-04   5.0379135E+05   -1.8300000E+00
   1.5707174E-04   4.9956200E+05   -1.8294827E+00
   1.5779711E-04   4.9536934E+05   -1.8289646E+00
   1.5852584E-04   4.9121303E+05   -1.8284457E+00
   1.5925792E-04   4.8709276E+05   -1.8279260E+00
   1.5999339E-04   4.8300821E+05   -1.8274057E+00
   1.6073226E-04   4.7895907E+05   -1.8268845E+00
   1.6147454E-04   4.7494500E+05   -1.8263627E+00
   1.6222024E-04   4.7096571E+05   -1.8258401E+00
   1.6296939E-04   4.6702089E+05   -1.8253167E+00
   1.6372200E-04   4.6311023E+05   -1.8247927E+00
   1.6447809E-04   4.5923342E+05   -1.8242679E+00
   1.6523767E-04   4.5539017E+05   -1.8237424E+00
   1.6600075E-04   4.5158018E+05   -1.8232162E+00
   1.6676736E-04   4.4780315E+05   -1.8226893E+00
   1.6753751E-04   4.4405879E+05   -1.8221617E+00
   1.6831122E-04   4.4034681E+05   -1.8216333E+00
   1.6908849E-04   4.3666692E+05   -1.8211043E+00
   1.6986936E-04   4.3301884E+05   -1.8205746E+00
   1.7065384E-04   4.2940228E+05   -1.8200441E+00
   1.7144193E-04   4.2581697E+05   -1.8195130E+00
   1.7223367E-04   4.2226264E+05   -1.8189813E+00
   1.7302906E-04   4.1873899E+05   -1.8184488E+00
   1.7382813E-04   4.1524578E+05   -1.8179157E+00
   1.7463089E-04   4.1178271E+05   -1.8173819E+00
   1.7543735E-04   4.0834953E+05   -1.8168474E+00
   1.7624754E-04   4.0494597E+05   -1.8163123E+00
   1.7706147E-04   4.0157177E+05   -1.8157765E+00
   1.7787916E-04   3.9822667E+05   -1.8152401E+00
   1.7870062E-04   3.9491041E+05   -1.8147030E+00
   1.7952588E-04   3.9162274E+05   -1.8141653E+00
   1.8035495E-04   3.8836340E+05   -1.8136270E+00
   1.8118785E-04   3.8513214E+05   -1.8130880E+00
   1.8202459E-04   3.8192872E+05   -1.8125484E+00
   1.8286520E-04   3.7875288E+05   -1.8120082E+00
   1.8370969E-04   3.7560439E+05   -1.8114673E+00
   1.8455808E-04   3.7248299E+05   -1.8109258E+00
   1.8541039E-04   3.6938847E+05   -1.8103838E+00
   1.8626663E-04   3.6632056E+05   -1.8098411E+00
   1.8712683E-04   3.6327904E+05   -1.8092978E+00
   1.8799100E-04   3.6026368E+05   -1.8087540E+00
   1.8885917E-04   3.5727425E+05   -1.8082095E+00
   1.8973134E-04   3.5431050E+05   -1.8076645E+00
   1.9060754E-04   3.5137223E+05   -1.8071188E+00
   1.9148778E-04   3.4845920E+05   -1.8065726E+00
   1.9237209E-04   3.4557119E+05   -1.8060259E+00
   1.9326049E-04   3.4270798E+05   -1.8054785E+00
   1.9415299E-04   3.3986935E+05   -1.8049306E+00
   1.9504960E-04   3.3705509E+05   -1.8043822E+00
   1.9595036E-04   3.3426497E+05   -1.8038332E+00
   1.9685528E-04   3.3149879E+05   -1.8032837E+00
   1.9776438E-04   3.2875633E+05   -1.8027336E+00
   1.9867768E-04   3.2603739E+05   -1.8021830E+00
   1.9959519E-04   3.2334175E+05   -1.8016318E+00
   2.0051694E-04   3.2066922E+05   -1.8010801E+00
   2.0144295E-04   3.1801958E+05   -1.8005279E+00
   2.0237324E-04   3.1539264E+05   -1.7999752E+00
   2.0330782E-04   3.1278820E+05   -1.7994220E+00
   2.0424671E-04   3.1020605E+05   -1.7988683E+00
   2.0518995E-04   3.0764601E+05   -1.7983141E+00
   2.0613754E-04   3.0510787E+05   -1.7977594E+00
   2.0708950E-04   3.0259145E+05   -1.7972042E+00
   2.0804586E-04   3.0009655E+05   -1.7966485E+00
   2.0900664E-04   2.9762298E+05   -1.7960923E+00
   2.0997185E-04   2.9517056E+05   -1.7955357E+00
   2.1094152E-04   2.9273910E+05   -1.7949786E+00
   2.1191567E-04   2.9032841E+05   -1.7944210E+00
   2.1289432E-04   2.8793831E+05   -1.7938630E+00
   2.1387749E-04   2.8556863E+05   -1.7933045E+00
   2.1486520E-04   2.8321917E+05   -1.7927456E+00
   2.1585747E-04   2.8088977E+05   -1.7921862E+00
   2.1685432E-04   2.7858025E+05   -1.7916264E+00
   2.1785578E-04   2.7629042E+05   -1.7910662E+00
   2.1886186E-04   2.7402013E+05   -1.7905055E+00
   2.1987259E-04   2.7176919E+05   -1.7899444E+00
   2.2088798E-04   2.6953745E+05   -1.7893829E+00
   2.2190807E-04   2.6732472E+05   -1.7888210E+00
   2.2293286E-04   2.6513084E+05   -1.7882587E+00
   2.2396239E-04   2.6295565E+05   -1.7876961E+00
   2.2499667E-04   2.6079898E+05   -1.7871330E+00
   2.2603573E-04   2.5866067E+05   -1.7865695E+00
   2.2707958E-04   2.5654056E+05   -1.7860056E+00
   2.2812826E-04   2.5443849E+05   -1.7854414E+00
   2.2918178E-04   2.5235429E+05   -1.7848768E+00
   2.3024017E-04   2.5028782E+05   -1.7843119E+00
   2.3130344E-04   2.4823892E+05   -1.7837465E+00
   2.3237162E-04   2.4620744E+05   -1.7831809E+00
   2.3344474E-04   2.4419321E+05   -1.7826149E+00
   2.3452281E-04   2.4219610E+05   -1.7820485E+00
   2.3560586E-04   2.4021594E+05   -1.7814818E+00
   2.3669392E-04   2.3825260E+05   -1.7809148E+00
   2.3778699E-04   2.3630592E+05   -1.7803474E+00
   2.3888512E-04   2.3437576E+05   -1.7797798E+00
   2.3998831E-04   2.3246198E+05   -1.7792118E+00
   2.4109661E-04   2.3056442E+05   -1.7786435E+00
   2.4221001E-04   2.2868295E+05   -1.7780749E+00
   2.4332857E-04   2.2681743E+05   -1.7775061E+00
   2.4445228E-04   2.2496772E+05   -1.7769369E+00
   2.4558119E-04   2.2313368E+05   -1.7763675E+00
   2.4671531E-04   2.2131517E+05   -1.7757977E+00
   2.4785467E-04   2.1951206E+05   -1.7752277E+00
   2.4899928E-04   2.1772421E+05   -1.7746575E+00
   2.5014919E-04   2.1595149E+05   -1.7740869E+00
   2.5130440E-04   2.1419377E+05   -1.7735162E+00
   2.5246495E-04   2.1245091E+05   -1.7729451E+00
   2.5363086E-04   2.1072279E+05   -1.7723739E+00
   2.5480216E-04   2.0900927E+05   -1.7718024E+00
   2.5597886E-04   2.0731024E+05   -1.7712307E+00
   2.5716100E-04   2.0562555E+05   -1.7706587E+00
   2.5834859E-04   2.0395510E+05   -1.7700865E+00
   2.5954168E-04   2.0229875E+05   -1.7695141E+00
   2.6074027E-04   2.0065638E+05   -1.7689415E+00
   2.6194439E-04   1.9902787E+05   -1.7683688E+00
   2.6315408E-04   1.9741309E+05   -1.7677958E+00
   2.6436935E-04   1.9581194E+05   -1.7672226E+00
   2.6559024E-04   1.9422428E+05   -1.7666492E+00
   2.6681676E-04   1.9265001E+05   -1.7660757E+00
   2.6804895E-04   1.9108900E+05   -1.7655020E+00
   2.6928683E-04   1.8954114E+05   -1.7649281E+00
   2.7053042E-04   1.8800632E+05   -1.7643541E+00
   2.7177976E-04   1.8648442E+05   -1.7637799E+00
   2.7303487E-04   1.8497533E+05   -1.7632056E+00
   2.7429577E-04   1.8347893E+05   -1.7626311E+00
   2.7556250E-04   1.8199512E+05   -1.7620565E+00
   2.7683507E-04   1.8052379E+05   -1.7614818E+00
   2.7811353E-04   1.7906483E+05   -1.7609069E+00
   2.7939788E-04   1.7761813E+05   -1.7603320E+00
   2.8068817E-04   1.7618359E+05   -1.7597569E+00
   2.8198442E-04   1.7476109E+05   -1.7591817E+00
   2.8328665E-04   1.7335054E+05   -1.7586064E+00
   2.8459490E-04   1.7195183E+05   -1.7580311E+00
   2.8590919E-04   1.7056486E+05   -1.7574556E+00
   2.8722955E-04   1.6918952E+05   -1.7568801E+00
   2.8855600E-04   1.6782572E+05   -1.7563045E+00
   2.8988859E-04   1.6647336E+05   -1.7557288E+00
   2.9122732E-04   1.6513233E+05   -1.7551530E+00
   2.9257224E-04   1.6380253E+05   -1.7545772E+00
   2.9392337E-04   1.6248388E+05   -1.7540014E+00
   2.9528074E-04   1.6117627E+05   -1.7534255E+00
   2.9664438E-04   1.5987960E+05   -1.7528496E+00
   2.9801431E-04   1.5859379E+05   -1.7522736E+00
   2.9939057E-04   1.5731874E+05   -1.7516977E+00
   3.0077319E-04   1.5605436E+05   -1.7511217E+00
   3.0216219E-04   1.5480054E+05   -1.7505457E+00
   3.0355761E-04   1.5355721E+05   -1.7499696E+00
   3.0495947E-04   1.5232427E+05   -1.7493936E+00
   3.0636780E-04   1.5110162E+05   -1.7488176E+00
   3.0778264E-04   1.4988919E+05   -1.7482416E+00
   3.0920401E-04   1.4868689E+05   -1.7476656E+00
   3.1063195E-04   1.4749462E+05   -1.7470897E+00
   3.1206648E-04   1.4631229E+05   -1.7465138E+00
   3.1350764E-04   1.4513983E+05   -1.7459379E+00
   3.1495545E-04   1.4397715E+05   -1.7453620E+00
   3.1640994E-04   1.4282416E+05   -1.7447862E+00
   3.1787116E-04   1.4168078E+05   -1.7442105E+00
   3.1933912E-04   1.4054692E+05   -1.7436348E+00
   3.2081386E-04   1.3942251E+05   -1.7430592E+00
   3.2229541E-04   1.3830746E+05   -1.7424836E+00
   3.2378381E-04   1.3720170E+05   -1.7419082E+00
   3.2527908E-04   1.3610513E+05   -1.7413328E+00
   3.2678125E-04   1.3501769E+05   -1.7407575E+00
   3.2829036E-04   1.3393929E+05   -1.7401823E+00
   3.2980644E-04   1.3286985E+05   -1.7396072E+00
   3.3132952E-04   1.3180931E+05   -1.7390323E+00
   3.3285963E-04   1.3075757E+05   -1.7384574E+00
   3.3439681E-04   1.2971457E+05   -1.7378827E+00
   3.3594109E-04   1.2868023E+05   -1.7373080E+00
   3.3749250E-04   1.2765448E+05   -1.7367336E+00
   3.3905108E-04   1.2663724E+05   -1.7361592E+00
   3.4061685E-04   1.2562844E+05   -1.7355850E+00
   3.4218986E-04   1.2462800E+05   -1.7350110E+00
   3.4377013E-04   1.2363585E+05   -1.7344371E+00
   3.4535769E-04   1.2265193E+05   -1.7338634E+00
   3.4695259E-04   1.2167616E+05   -1.7332898E+00
   3.4855485E-04   1.2070848E+05   -1.7327165E+00
   3.5016452E-04   1.1974880E+05   -1.7321433E+00
   3.5178161E-04   1.1879707E+05   -1.7315703E+00
   3.5340618E-04   1.1785321E+05   -1.7309975E+00
   3.5503824E-04   1.1691717E+05   -1.7304249E+00
   3.5667785E-04   1.1598886E+05   -1.7298525E+00
   3.5832502E-04   1.1506822E+05   -1.7292803E+00
   3.5997981E-04   1.1415520E+05   -1.7287083E+00
   3.6164223E-04   1.1324971E+05   -1.7281365E+00
   3.6331233E-04   1.1235171E+05   -1.7275650E+00
   3.6499015E-04   1.1146112E+05   -1.7269937E+00
   3.6667571E-04   1.1057788E+05   -1.7264227E+00
   3.6836906E-04   1.0970193E+05   -1.7258519E+00
   3.7007022E-04   1.0883320E+05   -1.7252814E+00
   3.7177925E-04   1.0797163E+05   -1.7247111E+00
   3.7349616E-04   1.0711717E+05   -1.7241411E+00
   3.7522101E-04   1.0626975E+05   -1.7235713E+00
   3.7695382E-04   1.0542931E+05   -1.7230018E+00
   3.7869463E-04   1.0459579E+05   -1.7224326E+00
   3.8044348E-04   1.0376913E+05   -1.7218637E+00
   3.8220041E-04   1.0294928E+05   -1.7212951E+00
   3.8396545E-04   1.0213617E+05   -1.7207268E+00
   3.8573864E-04   1.0132975E+05   -1.7201588E+00
   3.8752002E-04   1.0052995E+05   -1.7195911E+00
   3.8930963E-04   9.9736735E+04   -1.7190238E+00
   3.9110750E-04   9.8950034E+04   -1.7184567E+00
   3.9291368E-04   9.8169795E+04   -1.7178900E+00
   3.9472820E-04   9.7395962E+04   -1.7173236E+00
   3.9655109E-04   9.6628481E+04   -1.7167576E+00
   3.9838241E-04   9.5867297E+04   -1.7161919E+00
   4.0022218E-04   9.5112358E+04   -1.7156265E+00
   4.0207045E-04   9.4363610E+04   -1.7150615E+00
   4.0392725E-04   9.3620999E+04   -1.7144969E+00
   4.0579263E-04   9.2884474E+04   -1.7139326E+00
   4.0766662E-04   9.2153983E+04   -1.7133688E+00
   4.0954927E-04   9.1429475E+04   -1.7128053E+00
   4.1144061E-04   9.0710897E+04   -1.7122421E+00
   4.1334068E-04   8.9998201E+04   -1.7116794E+00
   4.1524953E-04   8.9291336E+04   -1.7111171E+00
   4.1716720E-04   8.8590252E+04   -1.7105551E+00
   4.1909372E-04   8.7894900E+04   -1.7099936E+00
   4.2102914E-04   8.7205232E+04   -1.7094325E+00
   4.2297350E-04   8.6521198E+04   -1.7088718E+00
   4.2492683E-04   8.5842752E+04   -1.7083116E+00
   4.2688919E-04   8.5169846E+04   -1.7077517E+00
   4.2886061E-04   8.4502432E+04   -1.7071923E+00
   4.3084113E-04   8.3840464E+04   -1.7066334E+00
   4.3283080E-04   8.3183897E+04   -1.7060748E+00
   4.3482966E-04   8.2532683E+04   -1.7055168E+00
   4.3683775E-04   8.1886778E+04   -1.7049592E+00
   4.3885511E-04   8.1246136E+04   -1.7044020E+00
   4.4088179E-04   8.0610713E+04   -1.7038453E+00
   4.4291783E-04   7.9980465E+04   -1.7032891E+00
   4.4496327E-04   7.9355347E+04   -1.7027334E+00
   4.4701816E-04   7.8735317E+04   -1.7021781E+00
   4.4908253E-04   7.8120331E+04   -1.7016234E+00
   4.5115644E-04   7.7510347E+04   -1.7010691E+00
   4.5323993E-04   7.6905322E+04   -1.7005153E+00
   4.5533304E-04   7.6305215E+04   -1.6999621E+00
   4.5743582E-04   7.5709983E+04   -1.6994093E+00
   4.5954830E-04   7.5119585E+04   -1.6988571E+00
   4.6167054E-04   7.4533981E+04   -1.6983054E+00
   4.6380259E-04   7.3953130E+04   -1.6977542E+00
   4.6594448E-04   7.3376992E+04   -1.6972035E+00
   4.6809626E-04   7.2805527E+04   -1.6966534E+00
   4.7025797E-04   7.2238696E+04   -1.6961038E+00
   4.7242967E-04   7.1676459E+04   -1.6955547E+00
   4.7461140E-04   7.1118778E+04   -1.6950062E+00
   4.7680321E-04   7.0565614E+04   -1.6944583E+00
   4.7900514E-04   7.0016929E+04   -1.6939109E+00
   4.8121723E-04   6.9472686E+04   -1.6933641E+00
   4.8343954E-04   6.8932847E+04   -1.6928178E+00
   4.8567212E-04   6.8397375E+04   -1.6922722E+00
   4.8791500E-04   6.7866232E+04   -1.6917271E+00
   4.9016825E-04   6.7339384E+04   -1.6911825E+00
   4.9243189E-04   6.6816793E+04   -1.6906386E+00
   4.9470600E-04   6.6298423E+04   -1.6900953E+00
   4.9699060E-04   6.5784240E+04   -1.6895526E+00
   4.9928575E-04   6.5274208E+04   -1.6890104E+00
   5.0159151E-04   6.4768291E+04   -1.6884689E+00
   5.0390791E-04   6.4266456E+04   -1.6879280E+00
   5.0623501E-04   6.3768669E+04   -1.6873877E+00
   5.0857286E-04   6.3274894E+04   -1.6868480E+00
   5.1092150E-04   6.2785099E+04   -1.6863090E+00
   5.1328099E-04   6.2299250E+04   -1.6857706E+00
   5.1565137E-04   6.1817313E+04   -1.6852328E+00
   5.1803270E-04   6.1339257E+04   -1.6846957E+00
   5.2042503E-04   6.0865049E+04   -1.6841592E+00
   5.2282841E-04   6.0394655E+04   -1.6836234E+00
   5.2524289E-04   5.9928045E+04   -1.6830882E+00
   5.2766851E-04   5.9465187E+04   -1.6825536E+00
   5.3010534E-04   5.9006048E+04   -1.6820198E+00
   5.3255342E-04   5.8550599E+04   -1.6814866E+00
   5.3501281E-04   5.8098807E+04   -1.6809541E+00
   5.3748356E-04   5.7650643E+04   -1.6804222E+00
   5.3996571E-04   5.7206077E+04   -1.6798910E+00
   5.4245933E-04   5.6765077E+04   -1.6793606E+00
   5.4496446E-04   5.6327615E+04   -1.6788308E+00
   5.4748117E-04   5.5893660E+04   -1.6783017E+00
   5.5000949E-04   5.5463184E+04   -1.6777733E+00
   5.5254949E-04   5.5036157E+04   -1.6772456E+00
   5.5510123E-04   5.4612550E+04   -1.6767186E+00
   5.5766474E-04   5.4192336E+04   -1.6761923E+00
   5.6024010E-04   5.3775485E+04   -1.6756667E+00
   5.6282734E-04   5.3361970E+04   -1.6751418E+00
   5.6542654E-04   5.2951762E+04   -1.6746177E+00
   5.6803774E-04   5.2544834E+04   -1.6740943E+00
   5.7066099E-04   5.2141160E+04   -1.6735716E+00
   5.7329637E-04   5.1740711E+04   -1.6730497E+00
   5.7594391E-04   5.1343461E+04   -1.6725285E+00
   5.7860368E-04   5.0949383E+04   -1.6720080E+00
   5.8127573E-04   5.0558451E+04   -1.6714883E+00
   5.8396012E-04   5.0170639E+04   -1.6709694E+00
   5.8665691E-04   4.9785921E+04   -1.6704511E+00
   5.8936616E-04   4.9404270E+04   -1.6699337E+00
   5.9208791E-04   4.9025662E+04   -1.6694170E+00
   5.9482223E-04   4.8650071E+04   -1.6689011E+00
   5.9756919E-04   4.8277472E+04   -1.6683859E+00
   6.0032882E-04   4.7907840E+04   -1.6678715E+00
   6.0310120E-04   4.7541151E+04   -1.6673579E+00
   6.0588639E-04   4.7177381E+04   -1.6668451E+00
   6.0868443E-04   4.6816504E+04   -1.6663331E+00
   6.1149540E-04   4.6458497E+04   -1.6658218E+00
   6.1431935E-04   4.6103337E+04   -1.6653114E+00
   6.1715634E-04   4.5750999E+04   -1.6648017E+00
   6.2000644E-04   4.5401460E+04   -1.6642928E+00
   6.2286969E-04   4.5054698E+04   -1.6637848E+00
