#        a       HoverH0(a)       dlogHdloga_of_a(a)
   1.0000000E-04   1.1234656E+06   -1.8688799E+00
   1.0046181E-04   1.1138343E+06   -1.8684337E+00
   1.0092575E-04   1.1042879E+06   -1.8679865E+00
   1.0139184E-04   1.0948255E+06   -1.8675384E+00
   1.0186008E-04   1.0854465E+06   -1.8670892E+00
   1.0233048E-04   1.0761500E+06   -1.8666391E+00
   1.0280305E-04   1.0669354E+06   -1.8661881E+00
   1.0327781E-04   1.0578019E+06   -1.8657360E+00
   1.0375475E-04   1.0487487E+06   -1.8652830E+00
   1.0423390E-04   1.0397753E+06   -1.8648291E+00
   1.0471527E-04   1.0308807E+06   -1.8643742E+00
   1.0519885E-04   1.0220644E+06   -1.8639183E+00
   1.0568467E-04   1.0133256E+06   -1.8634614E+00
   1.0617274E-04   1.0046636E+06   -1.8630036E+00
   1.0666305E-04   9.9607780E+05   -1.8625449E+00
   1.0715563E-04   9.8756746E+05   -1.8620852E+00
   1.0765049E-04   9.7913189E+05   -1.8616245E+00
   1.0814763E-04   9.7077045E+05   -1.8611629E+00
   1.0864707E-04   9.6248246E+05   -1.8607004E+00
   1.0914881E-04   9.5426726E+05   -1.8602369E+00
   1.0965287E-04   9.4612421E+05   -1.8597724E+00
   1.1015926E-04   9.3805265E+05   -1.8593070E+00
   1.1066799E-04   9.3005195E+05   -1.8588407E+00
   1.1117906E-04   9.2212147E+05   -1.8583735E+00
   1.1169250E-04   9.1426058E+05   -1.8579053E+00
   1.1220831E-04   9.0646866E+05   -1.8574362E+00
   1.1272650E-04   8.9874509E+05   -1.8569661E+00
   1.1324708E-04   8.9108927E+05   -1.8564951E+00
   1.1377007E-04   8.8350058E+05   -1.8560232E+00
   1.1429547E-04   8.7597842E+05   -1.8555504E+00
   1.1482330E-04   8.6852220E+05   -1.8550767E+00
   1.1535356E-04   8.6113133E+05   -1.8546020E+00
   1.1588628E-04   8.5380522E+05   -1.8541264E+00
   1.1642145E-04   8.4654330E+05   -1.8536499E+00
   1.1695910E-04   8.3934498E+05   -1.8531725E+00
   1.1749923E-04   8.3220971E+05   -1.8526942E+00
   1.1804185E-04   8.2513691E+05   -1.8522150E+00
   1.1858698E-04   8.1812603E+05   -1.8517348E+00
   1.1913463E-04   8.1117652E+05   -1.8512538E+00
   1.1968481E-04   8.0428782E+05   -1.8507719E+00
   1.2023752E-04   7.9745940E+05   -1.8502891E+00
   1.2079279E-04   7.9069071E+05   -1.8498053E+00
   1.2135063E-04   7.8398122E+05   -1.8493207E+00
   1.2191104E-04   7.7733040E+05   -1.8488352E+00
   1.2247403E-04   7.7073773E+05   -1.8483489E+00
   1.2303963E-04   7.6420269E+05   -1.8478616E+00
   1.2360784E-04   7.5772476E+05   -1.8473735E+00
   1.2417868E-04   7.5130343E+05   -1.8468844E+00
   1.2475215E-04   7.4493820E+05   -1.8463945E+00
   1.2532826E-04   7.3862856E+05   -1.8459038E+00
   1.2590704E-04   7.3237403E+05   -1.8454121E+00
   1.2648850E-04   7.2617410E+05   -1.8449196E+00
   1.2707263E-04   7.2002830E+05   -1.8444263E+00
   1.2765947E-04   7.1393613E+05   -1.8439321E+00
   1.2824901E-04   7.0789712E+05   -1.8434370E+00
   1.2884128E-04   7.0191080E+05   -1.8429411E+00
   1.2943628E-04   6.9597670E+05   -1.8424443E+00
   1.3003403E-04   6.9009434E+05   -1.8419467E+00
   1.3063454E-04   6.8426327E+05   -1.8414482E+00
   1.3123783E-04   6.7848303E+05   -1.8409489E+00
   1.3184390E-04   6.7275316E+05   -1.8404487E+00
   1.3245277E-04   6.6707323E+05   -1.8399477E+00
   1.3306445E-04   6.6144277E+05   -1.8394459E+00
   1.3367895E-04   6.5586136E+05   -1.8389433E+00
   1.3429630E-04   6.5032855E+05   -1.8384398E+00
   1.3491649E-04   6.4484392E+05   -1.8379355E+00
   1.3553955E-04   6.3940702E+05   -1.8374304E+00
   1.3616548E-04   6.3401745E+05   -1.8369245E+00
   1.3679431E-04   6.2867477E+05   -1.8364177E+00
   1.3742604E-04   6.2337857E+05   -1.8359102E+00
   1.3806069E-04   6.1812843E+05   -1.8354019E+00
   1.3869827E-04   6.1292394E+05   -1.8348927E+00
   1.3933879E-04   6.0776471E+05   -1.8343828E+00
   1.3998227E-04   6.0265031E+05   -1.8338720E+00
   1.4062872E-04   5.9758037E+05   -1.8333605E+00
   1.4127816E-04   5.9255447E+05   -1.8328482E+00
   1.4193060E-04   5.8757223E+05   -1.8323351E+00
   1.4258605E-04   5.8263325E+05   -1.8318212E+00
   1.4324453E-04   5.7773717E+05   -1.8313065E+00
   1.4390605E-04   5.7288358E+05   -1.8307911E+00
   1.4457062E-04   5.6807213E+05   -1.8302749E+00
   1.4523826E-04   5.6330242E+05   -1.8297580E+00
   1.4590899E-04   5.5857409E+05   -1.8292402E+00
   1.4658281E-04   5.5388678E+05   -1.8287218E+00
   1.4725974E-04   5.4924011E+05   -1.8282025E+00
   1.4793981E-04   5.4463373E+05   -1.8276826E+00
   1.4862301E-04   5.4006727E+05   -1.8271618E+00
   1.4930936E-04   5.3554039E+05   -1.8266404E+00
   1.4999889E-04   5.3105272E+05   -1.8261182E+00
   1.5069160E-04   5.2660394E+05   -1.8255952E+00
   1.5138751E-04   5.2219368E+05   -1.8250716E+00
   1.5208663E-04   5.1782160E+05   -1.8245472E+00
   1.5278899E-04   5.1348737E+05   -1.8240221E+00
   1.5349458E-04   5.0919066E+05   -1.8234962E+00
   1.5420343E-04   5.0493112E+05   -1.8229697E+00
   1.5491556E-04   5.0070843E+05   -1.8224424E+00
   1.5563098E-04   4.9652226E+05   -1.8219145E+00
   1.5634970E-04   4.9237228E+05   -1.8213858E+00
   1.5707174E-04   4.8825819E+05   -1.8208565E+00
   1.5779711E-04   4.8417965E+05   -1.8203264E+00
   1.5852584E-04   4.8013635E+05   -1.8197957E+00
   1.5925792E-04   4.7612798E+05   -1.8192643E+00
   1.5999339E-04   4.7215423E+05   -1.8187322E+00
   1.6073226E-04   4.6821480E+05   -1.8181994E+00
   1.6147454E-04   4.6430937E+05   -1.8176660E+00
   1.6222024E-04   4.6043766E+05   -1.8171319E+00
   1.6296939E-04   4.5659935E+05   -1.8165971E+00
   1.6372200E-04   4.5279416E+05   -1.8160617E+00
   1.6447809E-04   4.4902178E+05   -1.8155256E+00
   1.6523767E-04   4.4528194E+05   -1.8149889E+00
   1.6600075E-04   4.4157433E+05   -1.8144515E+00
   1.6676736E-04   4.3789869E+05   -1.8139135E+00
   1.6753751E-04   4.3425471E+05   -1.8133749E+00
   1.6831122E-04   4.3064213E+05   -1.8128356E+00
   1.6908849E-04   4.2706066E+05   -1.8122957E+00
   1.6986936E-04   4.2351004E+05   -1.8117552E+00
   1.7065384E-04   4.1998997E+05   -1.8112141E+00
   1.7144193E-04   4.1650021E+05   -1.8106723E+00
   1.7223367E-04   4.1304047E+05   -1.8101300E+00
   1.7302906E-04   4.0961050E+05   -1.8095871E+00
   1.7382813E-04   4.0621003E+05   -1.8090435E+00
   1.7463089E-04   4.0283880E+05   -1.8084994E+00
   1.7543735E-04   3.9949655E+05   -1.8079546E+00
   1.7624754E-04   3.9618302E+05   -1.8074093E+00
   1.7706147E-04   3.9289796E+05   -1.8068634E+00
   1.7787916E-04   3.8964112E+05   -1.8063170E+00
   1.7870062E-04   3.8641226E+05   -1.8057700E+00
   1.7952588E-04   3.8321111E+05   -1.8052224E+00
   1.8035495E-04   3.8003745E+05   -1.8046742E+00
   1.8118785E-04   3.7689102E+05   -1.8041255E+00
   1.8202459E-04   3.7377158E+05   -1.8035763E+00
   1.8286520E-04   3.7067890E+05   -1.8030265E+00
   1.8370969E-04   3.6761275E+05   -1.8024762E+00
   1.8455808E-04   3.6457288E+05   -1.8019253E+00
   1.8541039E-04   3.6155907E+05   -1.8013739E+00
   1.8626663E-04   3.5857108E+05   -1.8008220E+00
   1.8712683E-04   3.5560869E+05   -1.8002696E+00
   1.8799100E-04   3.5267168E+05   -1.7997166E+00
   1.8885917E-04   3.4975981E+05   -1.7991632E+00
   1.8973134E-04   3.4687287E+05   -1.7986092E+00
   1.9060754E-04   3.4401063E+05   -1.7980548E+00
   1.9148778E-04   3.4117289E+05   -1.7974998E+00
   1.9237209E-04   3.3835942E+05   -1.7969444E+00
   1.9326049E-04   3.3557001E+05   -1.7963885E+00
   1.9415299E-04   3.3280445E+05   -1.7958321E+00
   1.9504960E-04   3.3006252E+05   -1.7952753E+00
   1.9595036E-04   3.2734403E+05   -1.7947180E+00
   1.9685528E-04   3.2464877E+05   -1.7941602E+00
   1.9776438E-04   3.2197652E+05   -1.7936020E+00
   1.9867768E-04   3.1932709E+05   -1.7930433E+00
   1.9959519E-04   3.1670027E+05   -1.7924842E+00
   2.0051694E-04   3.1409588E+05   -1.7919246E+00
   2.0144295E-04   3.1151370E+05   -1.7913646E+00
   2.0237324E-04   3.0895355E+05   -1.7908042E+00
   2.0330782E-04   3.0641523E+05   -1.7902433E+00
   2.0424671E-04   3.0389856E+05   -1.7896821E+00
   2.0518995E-04   3.0140333E+05   -1.7891204E+00
   2.0613754E-04   2.9892936E+05   -1.7885583E+00
   2.0708950E-04   2.9647647E+05   -1.7879958E+00
   2.0804586E-04   2.9404447E+05   -1.7874330E+00
   2.0900664E-04   2.9163317E+05   -1.7868697E+00
   2.0997185E-04   2.8924240E+05   -1.7863061E+00
   2.1094152E-04   2.8687198E+05   -1.7857420E+00
   2.1191567E-04   2.8452172E+05   -1.7851777E+00
   2.1289432E-04   2.8219145E+05   -1.7846129E+00
   2.1387749E-04   2.7988099E+05   -1.7840478E+00
   2.1486520E-04   2.7759017E+05   -1.7834823E+00
   2.1585747E-04   2.7531882E+05   -1.7829165E+00
   2.1685432E-04   2.7306677E+05   -1.7823503E+00
   2.1785578E-04   2.7083384E+05   -1.7817838E+00
   2.1886186E-04   2.6861988E+05   -1.7812170E+00
   2.1987259E-04   2.6642471E+05   -1.7806498E+00
   2.2088798E-04   2.6424817E+05   -1.7800823E+00
   2.2190807E-04   2.6209010E+05   -1.7795145E+00
   2.2293286E-04   2.5995033E+05   -1.7789464E+00
   2.2396239E-04   2.5782870E+05   -1.7783780E+00
   2.2499667E-04   2.5572507E+05   -1.7778093E+00
   2.2603573E-04   2.5363926E+05   -1.7772403E+00
   2.2707958E-04   2.5157112E+05   -1.7766710E+00
   2.2812826E-04   2.4952050E+05   -1.7761014E+00
   2.2918178E-04   2.4748725E+05   -1.7755316E+00
   2.3024017E-04   2.4547120E+05   -1.7749615E+00
   2.3130344E-04   2.4347223E+05   -1.7743911E+00
   2.3237162E-04   2.4149016E+05   -1.7738204E+00
   2.3344474E-04   2.3952486E+05   -1.7732496E+00
   2.3452281E-04   2.3757618E+05   -1.7726784E+00
   2.3560586E-04   2.3564397E+05   -1.7721071E+00
   2.3669392E-04   2.3372810E+05   -1.7715355E+00
   2.3778699E-04   2.3182841E+05   -1.7709636E+00
   2.3888512E-04   2.2994476E+05   -1.7703916E+00
   2.3998831E-04   2.2807703E+05   -1.7698193E+00
   2.4109661E-04   2.2622506E+05   -1.7692469E+00
   2.4221001E-04   2.2438872E+05   -1.7686742E+00
   2.4332857E-04   2.2256787E+05   -1.7681013E+00
   2.4445228E-04   2.2076238E+05   -1.7675282E+00
   2.4558119E-04   2.1897212E+05   -1.7669550E+00
   2.4671531E-04   2.1719695E+05   -1.7663816E+00
   2.4785467E-04   2.1543673E+05   -1.7658079E+00
   2.4899928E-04   2.1369135E+05   -1.7652342E+00
   2.5014919E-04   2.1196067E+05   -1.7646602E+00
   2.5130440E-04   2.1024457E+05   -1.7640861E+00
   2.5246495E-04   2.0854290E+05   -1.7635119E+00
   2.5363086E-04   2.0685556E+05   -1.7629375E+00
   2.5480216E-04   2.0518242E+05   -1.7623630E+00
   2.5597886E-04   2.0352334E+05   -1.7617884E+00
   2.5716100E-04   2.0187822E+05   -1.7612136E+00
   2.5834859E-04   2.0024692E+05   -1.7606387E+00
   2.5954168E-04   1.9862933E+05   -1.7600637E+00
   2.6074027E-04   1.9702533E+05   -1.7594886E+00
   2.6194439E-04   1.9543480E+05   -1.7589133E+00
   2.6315408E-04   1.9385763E+05   -1.7583380E+00
   2.6436935E-04   1.9229369E+05   -1.7577626E+00
   2.6559024E-04   1.9074288E+05   -1.7571871E+00
   2.6681676E-04   1.8920507E+05   -1.7566116E+00
   2.6804895E-04   1.8768016E+05   -1.7560359E+00
   2.6928683E-04   1.8616804E+05   -1.7554603E+00
   2.7053042E-04   1.8466858E+05   -1.7548845E+00
   2.7177976E-04   1.8318169E+05   -1.7543087E+00
   2.7303487E-04   1.8170726E+05   -1.7537328E+00
   2.7429577E-04   1.8024517E+05   -1.7531569E+00
   2.7556250E-04   1.7879531E+05   -1.7525810E+00
   2.7683507E-04   1.7735760E+05   -1.7520051E+00
   2.7811353E-04   1.7593191E+05   -1.7514291E+00
   2.7939788E-04   1.7451814E+05   -1.7508531E+00
   2.8068817E-04   1.7311619E+05   -1.7502771E+00
   2.8198442E-04   1.7172596E+05   -1.7497011E+00
   2.8328665E-04   1.7034735E+05   -1.7491251E+00
   2.8459490E-04   1.6898026E+05   -1.7485491E+00
   2.8590919E-04   1.6762458E+05   -1.7479731E+00
   2.8722955E-04   1.6628021E+05   -1.7473972E+00
   2.8855600E-04   1.6494707E+05   -1.7468212E+00
   2.8988859E-04   1.6362505E+05   -1.7462453E+00
   2.9122732E-04   1.6231406E+05   -1.7456695E+00
   2.9257224E-04   1.6101399E+05   -1.7450937E+00
   2.9392337E-04   1.5972477E+05   -1.7445179E+00
   2.9528074E-04   1.5844628E+05   -1.7439422E+00
   2.9664438E-04   1.5717845E+05   -1.7433666E+00
   2.9801431E-04   1.5592118E+05   -1.7427910E+00
   2.9939057E-04   1.5467437E+05   -1.7422155E+00
   3.0077319E-04   1.5343794E+05   -1.7416401E+00
   3.0216219E-04   1.5221180E+05   -1.7410648E+00
   3.0355761E-04   1.5099585E+05   -1.7404895E+00
   3.0495947E-04   1.4979002E+05   -1.7399144E+00
   3.0636780E-04   1.4859421E+05   -1.7393394E+00
   3.0778264E-04   1.4740833E+05   -1.7387645E+00
   3.0920401E-04   1.4623231E+05   -1.7381897E+00
   3.1063195E-04   1.4506605E+05   -1.7376150E+00
   3.1206648E-04   1.4390948E+05   -1.7370405E+00
   3.1350764E-04   1.4276250E+05   -1.7364661E+00
   3.1495545E-04   1.4162504E+05   -1.7358918E+00
   3.1640994E-04   1.4049702E+05   -1.7353177E+00
   3.1787116E-04   1.3937835E+05   -1.7347438E+00
   3.1933912E-04   1.3826895E+05   -1.7341700E+00
   3.2081386E-04   1.3716875E+05   -1.7335963E+00
   3.2229541E-04   1.3607765E+05   -1.7330229E+00
   3.2378381E-04   1.3499560E+05   -1.7324496E+00
   3.2527908E-04   1.3392250E+05   -1.7318765E+00
   3.2678125E-04   1.3285828E+05   -1.7313036E+00
   3.2829036E-04   1.3180287E+05   -1.7307309E+00
   3.2980644E-04   1.3075619E+05   -1.7301584E+00
   3.3132952E-04   1.2971816E+05   -1.7295861E+00
   3.3285963E-04   1.2868871E+05   -1.7290140E+00
   3.3439681E-04   1.2766777E+05   -1.7284422E+00
   3.3594109E-04   1.2665526E+05   -1.7278706E+00
   3.3749250E-04   1.2565111E+05   -1.7272992E+00
   3.3905108E-04   1.2465525E+05   -1.7267280E+00
   3.4061685E-04   1.2366761E+05   -1.7261571E+00
   3.4218986E-04   1.2268811E+05   -1.7255864E+00
   3.4377013E-04   1.2171670E+05   -1.7250160E+00
   3.4535769E-04   1.2075329E+05   -1.7244459E+00
   3.4695259E-04   1.1979782E+05   -1.7238760E+00
   3.4855485E-04   1.1885023E+05   -1.7233064E+00
   3.5016452E-04   1.1791044E+05   -1.7227371E+00
   3.5178161E-04   1.1697838E+05   -1.7221680E+00
   3.5340618E-04   1.1605400E+05   -1.7215993E+00
   3.5503824E-04   1.1513723E+05   -1.7210308E+00
   3.5667785E-04   1.1422800E+05   -1.7204627E+00
   3.5832502E-04   1.1332624E+05   -1.7198948E+00
   3.5997981E-04   1.1243190E+05   -1.7193273E+00
   3.6164223E-04   1.1154490E+05   -1.7187601E+00
   3.6331233E-04   1.1066520E+05   -1.7181932E+00
   3.6499015E-04   1.0979271E+05   -1.7176267E+00
   3.6667571E-04   1.0892739E+05   -1.7170605E+00
   3.6836906E-04   1.0806918E+05   -1.7164946E+00
   3.7007022E-04   1.0721800E+05   -1.7159291E+00
   3.7177925E-04   1.0637380E+05   -1.7153639E+00
   3.7349616E-04   1.0553653E+05   -1.7147991E+00
   3.7522101E-04   1.0470612E+05   -1.7142347E+00
   3.7695382E-04   1.0388251E+05   -1.7136706E+00
   3.7869463E-04   1.0306565E+05   -1.7131069E+00
   3.8044348E-04   1.0225548E+05   -1.7125436E+00
   3.8220041E-04   1.0145194E+05   -1.7119807E+00
   3.8396545E-04   1.0065497E+05   -1.7114182E+00
   3.8573864E-04   9.9864528E+04   -1.7108560E+00
   3.8752002E-04   9.9080547E+04   -1.7102943E+00
   3.8930963E-04   9.8302974E+04   -1.7097330E+00
   3.9110750E-04   9.7531755E+04   -1.7091721E+00
   3.9291368E-04   9.6766837E+04   -1.7086116E+00
   3.9472820E-04   9.6008166E+04   -1.7080516E+00
   3.9655109E-04   9.5255689E+04   -1.7074920E+00
   3.9838241E-04   9.4509353E+04   -1.7069328E+00
   4.0022218E-04   9.3769106E+04   -1.7063740E+00
   4.0207045E-04   9.3034896E+04   -1.7058157E+00
   4.0392725E-04   9.2306673E+04   -1.7052579E+00
   4.0579263E-04   9.1584385E+04   -1.7047005E+00
   4.0766662E-04   9.0867982E+04   -1.7041436E+00
   4.0954927E-04   9.0157415E+04   -1.7035872E+00
   4.1144061E-04   8.9452633E+04   -1.7030312E+00
   4.1334068E-04   8.8753588E+04   -1.7024757E+00
   4.1524953E-04   8.8060231E+04   -1.7019207E+00
   4.1716720E-04   8.7372513E+04   -1.7013662E+00
   4.1909372E-04   8.6690388E+04   -1.7008122E+00
   4.2102914E-04   8.6013808E+04   -1.7002587E+00
   4.2297350E-04   8.5342726E+04   -1.6997057E+00
   4.2492683E-04   8.4677095E+04   -1.6991532E+00
   4.2688919E-04   8.4016870E+04   -1.6986012E+00
   4.2886061E-04   8.3362004E+04   -1.6980497E+00
   4.3084113E-04   8.2712453E+04   -1.6974988E+00
   4.3283080E-04   8.2068171E+04   -1.6969484E+00
   4.3482966E-04   8.1429115E+04   -1.6963985E+00
   4.3683775E-04   8.0795239E+04   -1.6958492E+00
   4.3885511E-04   8.0166500E+04   -1.6953005E+00
   4.4088179E-04   7.9542855E+04   -1.6947522E+00
   4.4291783E-04   7.8924260E+04   -1.6942046E+00
   4.4496327E-04   7.8310674E+04   -1.6936575E+00
   4.4701816E-04   7.7702054E+04   -1.6931109E+00
   4.4908253E-04   7.7098358E+04   -1.6925650E+00
   4.5115644E-04   7.6499545E+04   -1.6920196E+00
   4.5323993E-04   7.5905574E+04   -1.6914748E+00
   4.5533304E-04   7.5316403E+04   -1.6909306E+00
   4.5743582E-04   7.4731992E+04   -1.6903869E+00
   4.5954830E-04   7.4152302E+04   -1.6898439E+00
   4.6167054E-04   7.3577293E+04   -1.6893015E+00
   4.6380259E-04   7.3006925E+04   -1.6887597E+00
   4.6594448E-04   7.2441158E+04   -1.6882184E+00
   4.6809626E-04   7.1879956E+04   -1.6876778E+00
   4.7025797E-04   7.1323278E+04   -1.6871379E+00
   4.7242967E-04   7.0771088E+04   -1.6865985E+00
   4.7461140E-04   7.0223347E+04   -1.6860598E+00
   4.7680321E-04   6.9680019E+04   -1.6855217E+00
   4.7900514E-04   6.9141065E+04   -1.6849842E+00
   4.8121723E-04   6.8606450E+04   -1.6844474E+00
   4.8343954E-04   6.8076138E+04   -1.6839113E+00
   4.8567212E-04   6.7550091E+04   -1.6833757E+00
   4.8791500E-04   6.7028274E+04   -1.6828409E+00
   4.9016825E-04   6.6510652E+04   -1.6823067E+00
   4.9243189E-04   6.5997190E+04   -1.6817732E+00
   4.9470600E-04   6.5487852E+04   -1.6812403E+00
   4.9699060E-04   6.4982605E+04   -1.6807081E+00
   4.9928575E-04   6.4481414E+04   -1.6801766E+00
   5.0159151E-04   6.3984245E+04   -1.6796458E+00
   5.0390791E-04   6.3491064E+04   -1.6791156E+00
   5.0623501E-04   6.3001839E+04   -1.6785862E+00
   5.0857286E-04   6.2516535E+04   -1.6780574E+00
   5.1092150E-04   6.2035121E+04   -1.6775294E+00
   5.1328099E-04   6.1557564E+04   -1.6770020E+00
   5.1565137E-04   6.1083832E+04   -1.6764754E+00
   5.1803270E-04   6.0613892E+04   -1.6759495E+00
   5.2042503E-04   6.0147713E+04   -1.6754242E+00
   5.2282841E-04   5.9685264E+04   -1.6748998E+00
   5.2524289E-04   5.9226514E+04   -1.6743760E+00
   5.2766851E-04   5.8771431E+04   -1.6738529E+00
   5.3010534E-04   5.8319986E+04   -1.6733306E+00
   5.3255342E-04   5.7872147E+04   -1.6728091E+00
   5.3501281E-04   5.7427885E+04   -1.6722882E+00
   5.3748356E-04   5.6987171E+04   -1.6717681E+00
   5.3996571E-04   5.6549973E+04   -1.6712488E+00
   5.4245933E-04   5.6116265E+04   -1.6707302E+00
   5.4496446E-04   5.5686015E+04   -1.6702124E+00
   5.4748117E-04   5.5259196E+04   -1.6696953E+00
   5.5000949E-04   5.4835779E+04   -1.6691790E+00
   5.5254949E-04   5.4415736E+04   -1.6686635E+00
   5.5510123E-04   5.3999039E+04   -1.6681487E+00
   5.5766474E-04   5.3585659E+04   -1.6676347E+00
   5.6024010E-04   5.3175570E+04   -1.6671215E+00
   5.6282734E-04   5.2768743E+04   -1.6666091E+00
   5.6542654E-04   5.2365153E+04   -1.6660974E+00
   5.6803774E-04   5.1964772E+04   -1.6655866E+00
   5.7066099E-04   5.1567574E+04   -1.6650765E+00
   5.7329637E-04   5.1173532E+04   -1.6645672E+00
   5.7594391E-04   5.0782619E+04   -1.6640588E+00
   5.7860368E-04   5.0394811E+04   -1.6635511E+00
   5.8127573E-04   5.0010082E+04   -1.6630442E+00
   5.8396012E-04   4.9628405E+04   -1.6625382E+00
   5.8665691E-04   4.9249756E+04   -1.6620330E+00
   5.8936616E-04   4.8874110E+04   -1.6615285E+00
   5.9208791E-04   4.8501442E+04   -1.6610249E+00
   5.9482223E-04   4.8131726E+04   -1.6605222E+00
   5.9756919E-04   4.7764940E+04   -1.6600202E+00
   6.0032882E-04   4.7401058E+04   -1.6595191E+00
   6.0310120E-04   4.7040057E+04   -1.6590188E+00
   6.0588639E-04   4.6681912E+04   -1.6585194E+00
   6.0868443E-04   4.6326601E+04   -1.6580208E+00
   6.1149540E-04   4.5974100E+04   -1.6575230E+00
   6.1431935E-04   4.5624386E+04   -1.6570261E+00
   6.1715634E-04   4.5277435E+04   -1.6565300E+00
   6.2000644E-04   4.4933226E+04   -1.6560348E+00
   6.2286969E-04   4.4591734E+04   -1.6555405E+00
