#        a       HoverH0(a)       dlogHdloga_of_a(a)
   1.0000000E-04   1.1242628E+06   -1.9046939E+00
   1.0046181E-04   1.1144406E+06   -1.9043380E+00
   1.0092575E-04   1.1047059E+06   -1.9039810E+00
   1.0139184E-04   1.0950582E+06   -1.9036230E+00
   1.0186008E-04   1.0854964E+06   -1.9032640E+00
   1.0233048E-04   1.0760199E+06   -1.9029040E+00
   1.0280305E-04   1.0666280E+06   -1.9025430E+00
   1.0327781E-04   1.0573197E+06   -1.9021810E+00
   1.0375475E-04   1.0480945E+06   -1.9018180E+00
   1.0423390E-04   1.0389515E+06   -1.9014539E+00
   1.0471527E-04   1.0298899E+06   -1.9010888E+00
   1.0519885E-04   1.0209092E+06   -1.9007227E+00
   1.0568467E-04   1.0120084E+06   -1.9003556E+00
   1.0617274E-04   1.0031870E+06   -1.8999874E+00
   1.0666305E-04   9.9444409E+05   -1.8996183E+00
   1.0715563E-04   9.8577910E+05   -1.8992481E+00
   1.0765049E-04   9.7719128E+05   -1.8988769E+00
   1.0814763E-04   9.6867993E+05   -1.8985047E+00
   1.0864707E-04   9.6024436E+05   -1.8981314E+00
   1.0914881E-04   9.5188389E+05   -1.8977572E+00
   1.0965287E-04   9.4359785E+05   -1.8973819E+00
   1.1015926E-04   9.3538555E+05   -1.8970056E+00
   1.1066799E-04   9.2724633E+05   -1.8966283E+00
   1.1117906E-04   9.1917954E+05   -1.8962499E+00
   1.1169250E-04   9.1118451E+05   -1.8958706E+00
   1.1220831E-04   9.0326061E+05   -1.8954902E+00
   1.1272650E-04   8.9540718E+05   -1.8951088E+00
   1.1324708E-04   8.8762361E+05   -1.8947264E+00
   1.1377007E-04   8.7990924E+05   -1.8943429E+00
   1.1429547E-04   8.7226347E+05   -1.8939584E+00
   1.1482330E-04   8.6468566E+05   -1.8935729E+00
   1.1535356E-04   8.5717521E+05   -1.8931864E+00
   1.1588628E-04   8.4973151E+05   -1.8927989E+00
   1.1642145E-04   8.4235396E+05   -1.8924103E+00
   1.1695910E-04   8.3504196E+05   -1.8920208E+00
   1.1749923E-04   8.2779491E+05   -1.8916302E+00
   1.1804185E-04   8.2061224E+05   -1.8912385E+00
   1.1858698E-04   8.1349337E+05   -1.8908459E+00
   1.1913463E-04   8.0643771E+05   -1.8904522E+00
   1.1968481E-04   7.9944469E+05   -1.8900576E+00
   1.2023752E-04   7.9251376E+05   -1.8896619E+00
   1.2079279E-04   7.8564436E+05   -1.8892651E+00
   1.2135063E-04   7.7883592E+05   -1.8888674E+00
   1.2191104E-04   7.7208790E+05   -1.8884686E+00
   1.2247403E-04   7.6539976E+05   -1.8880688E+00
   1.2303963E-04   7.5877095E+05   -1.8876680E+00
   1.2360784E-04   7.5220094E+05   -1.8872662E+00
   1.2417868E-04   7.4568921E+05   -1.8868634E+00
   1.2475215E-04   7.3923521E+05   -1.8864595E+00
   1.2532826E-04   7.3283844E+05   -1.8860547E+00
   1.2590704E-04   7.2649838E+05   -1.8856488E+00
   1.2648850E-04   7.2021452E+05   -1.8852419E+00
   1.2707263E-04   7.1398636E+05   -1.8848340E+00
   1.2765947E-04   7.0781338E+05   -1.8844250E+00
   1.2824901E-04   7.0169510E+05   -1.8840151E+00
   1.2884128E-04   6.9563102E+05   -1.8836041E+00
   1.2943628E-04   6.8962065E+05   -1.8831921E+00
   1.3003403E-04   6.8366352E+05   -1.8827791E+00
   1.3063454E-04   6.7775913E+05   -1.8823651E+00
   1.3123783E-04   6.7190702E+05   -1.8819501E+00
   1.3184390E-04   6.6610671E+05   -1.8815341E+00
   1.3245277E-04   6.6035775E+05   -1.8811171E+00
   1.3306445E-04   6.5465966E+05   -1.8806990E+00
   1.3367895E-04   6.4901199E+05   -1.8802800E+00
   1.3429630E-04   6.4341428E+05   -1.8798599E+00
   1.3491649E-04   6.3786609E+05   -1.8794389E+00
   1.3553955E-04   6.3236697E+05   -1.8790168E+00
   1.3616548E-04   6.2691649E+05   -1.8785937E+00
   1.3679431E-04   6.2151419E+05   -1.8781696E+00
   1.3742604E-04   6.1615965E+05   -1.8777445E+00
   1.3806069E-04   6.1085244E+05   -1.8773185E+00
   1.3869827E-04   6.0559214E+05   -1.8768914E+00
   1.3933879E-04   6.0037831E+05   -1.8764633E+00
   1.3998227E-04   5.9521055E+05   -1.8760342E+00
   1.4062872E-04   5.9008844E+05   -1.8756041E+00
   1.4127816E-04   5.8501156E+05   -1.8751730E+00
   1.4193060E-04   5.7997952E+05   -1.8747410E+00
   1.4258605E-04   5.7499191E+05   -1.8743079E+00
   1.4324453E-04   5.7004833E+05   -1.8738738E+00
   1.4390605E-04   5.6514838E+05   -1.8734388E+00
   1.4457062E-04   5.6029168E+05   -1.8730027E+00
   1.4523826E-04   5.5547783E+05   -1.8725657E+00
   1.4590899E-04   5.5070646E+05   -1.8721277E+00
   1.4658281E-04   5.4597716E+05   -1.8716886E+00
   1.4725974E-04   5.4128958E+05   -1.8712486E+00
   1.4793981E-04   5.3664334E+05   -1.8708077E+00
   1.4862301E-04   5.3203805E+05   -1.8703657E+00
   1.4930936E-04   5.2747337E+05   -1.8699227E+00
   1.4999889E-04   5.2294891E+05   -1.8694788E+00
   1.5069160E-04   5.1846433E+05   -1.8690339E+00
   1.5138751E-04   5.1401925E+05   -1.8685880E+00
   1.5208663E-04   5.0961334E+05   -1.8681412E+00
   1.5278899E-04   5.0524623E+05   -1.8676933E+00
   1.5349458E-04   5.0091759E+05   -1.8672445E+00
   1.5420343E-04   4.9662705E+05   -1.8667947E+00
   1.5491556E-04   4.9237429E+05   -1.8663440E+00
   1.5563098E-04   4.8815896E+05   -1.8658923E+00
   1.5634970E-04   4.8398072E+05   -1.8654396E+00
   1.5707174E-04   4.7983925E+05   -1.8649859E+00
   1.5779711E-04   4.7573422E+05   -1.8645313E+00
   1.5852584E-04   4.7166529E+05   -1.8640758E+00
   1.5925792E-04   4.6763215E+05   -1.8636192E+00
   1.5999339E-04   4.6363446E+05   -1.8631617E+00
   1.6073226E-04   4.5967193E+05   -1.8627033E+00
   1.6147454E-04   4.5574422E+05   -1.8622439E+00
   1.6222024E-04   4.5185103E+05   -1.8617836E+00
   1.6296939E-04   4.4799206E+05   -1.8613223E+00
   1.6372200E-04   4.4416698E+05   -1.8608600E+00
   1.6447809E-04   4.4037550E+05   -1.8603968E+00
   1.6523767E-04   4.3661732E+05   -1.8599327E+00
   1.6600075E-04   4.3289214E+05   -1.8594676E+00
   1.6676736E-04   4.2919966E+05   -1.8590016E+00
   1.6753751E-04   4.2553959E+05   -1.8585346E+00
   1.6831122E-04   4.2191165E+05   -1.8580668E+00
   1.6908849E-04   4.1831553E+05   -1.8575979E+00
   1.6986936E-04   4.1475096E+05   -1.8571282E+00
   1.7065384E-04   4.1121766E+05   -1.8566575E+00
   1.7144193E-04   4.0771535E+05   -1.8561859E+00
   1.7223367E-04   4.0424374E+05   -1.8557134E+00
   1.7302906E-04   4.0080257E+05   -1.8552399E+00
   1.7382813E-04   3.9739155E+05   -1.8547655E+00
   1.7463089E-04   3.9401043E+05   -1.8542903E+00
   1.7543735E-04   3.9065894E+05   -1.8538140E+00
   1.7624754E-04   3.8733680E+05   -1.8533369E+00
   1.7706147E-04   3.8404376E+05   -1.8528589E+00
   1.7787916E-04   3.8077955E+05   -1.8523800E+00
   1.7870062E-04   3.7754392E+05   -1.8519001E+00
   1.7952588E-04   3.7433662E+05   -1.8514194E+00
   1.8035495E-04   3.7115738E+05   -1.8509378E+00
   1.8118785E-04   3.6800596E+05   -1.8504552E+00
   1.8202459E-04   3.6488211E+05   -1.8499718E+00
   1.8286520E-04   3.6178559E+05   -1.8494875E+00
   1.8370969E-04   3.5871615E+05   -1.8490022E+00
   1.8455808E-04   3.5567354E+05   -1.8485161E+00
   1.8541039E-04   3.5265753E+05   -1.8480292E+00
   1.8626663E-04   3.4966788E+05   -1.8475413E+00
   1.8712683E-04   3.4670436E+05   -1.8470526E+00
   1.8799100E-04   3.4376673E+05   -1.8465629E+00
   1.8885917E-04   3.4085476E+05   -1.8460724E+00
   1.8973134E-04   3.3796821E+05   -1.8455811E+00
   1.9060754E-04   3.3510688E+05   -1.8450889E+00
   1.9148778E-04   3.3227052E+05   -1.8445958E+00
   1.9237209E-04   3.2945892E+05   -1.8441018E+00
   1.9326049E-04   3.2667185E+05   -1.8436070E+00
   1.9415299E-04   3.2390910E+05   -1.8431113E+00
   1.9504960E-04   3.2117045E+05   -1.8426148E+00
   1.9595036E-04   3.1845568E+05   -1.8421175E+00
   1.9685528E-04   3.1576459E+05   -1.8416193E+00
   1.9776438E-04   3.1309695E+05   -1.8411202E+00
   1.9867768E-04   3.1045257E+05   -1.8406203E+00
   1.9959519E-04   3.0783123E+05   -1.8401196E+00
   2.0051694E-04   3.0523273E+05   -1.8396180E+00
   2.0144295E-04   3.0265686E+05   -1.8391156E+00
   2.0237324E-04   3.0010343E+05   -1.8386124E+00
   2.0330782E-04   2.9757223E+05   -1.8381084E+00
   2.0424671E-04   2.9506306E+05   -1.8376035E+00
   2.0518995E-04   2.9257574E+05   -1.8370979E+00
   2.0613754E-04   2.9011005E+05   -1.8365914E+00
   2.0708950E-04   2.8766582E+05   -1.8360841E+00
   2.0804586E-04   2.8524285E+05   -1.8355760E+00
   2.0900664E-04   2.8284095E+05   -1.8350671E+00
   2.0997185E-04   2.8045994E+05   -1.8345574E+00
   2.1094152E-04   2.7809962E+05   -1.8340469E+00
   2.1191567E-04   2.7575981E+05   -1.8335356E+00
   2.1289432E-04   2.7344034E+05   -1.8330235E+00
   2.1387749E-04   2.7114101E+05   -1.8325106E+00
   2.1486520E-04   2.6886166E+05   -1.8319970E+00
   2.1585747E-04   2.6660210E+05   -1.8314826E+00
   2.1685432E-04   2.6436215E+05   -1.8309674E+00
   2.1785578E-04   2.6214165E+05   -1.8304514E+00
   2.1886186E-04   2.5994042E+05   -1.8299347E+00
   2.1987259E-04   2.5775828E+05   -1.8294172E+00
   2.2088798E-04   2.5559508E+05   -1.8288989E+00
   2.2190807E-04   2.5345063E+05   -1.8283799E+00
   2.2293286E-04   2.5132478E+05   -1.8278602E+00
   2.2396239E-04   2.4921735E+05   -1.8273397E+00
   2.2499667E-04   2.4712819E+05   -1.8268184E+00
   2.2603573E-04   2.4505713E+05   -1.8262965E+00
   2.2707958E-04   2.4300402E+05   -1.8257737E+00
   2.2812826E-04   2.4096868E+05   -1.8252503E+00
   2.2918178E-04   2.3895097E+05   -1.8247261E+00
   2.3024017E-04   2.3695073E+05   -1.8242012E+00
   2.3130344E-04   2.3496780E+05   -1.8236756E+00
   2.3237162E-04   2.3300202E+05   -1.8231493E+00
   2.3344474E-04   2.3105326E+05   -1.8226222E+00
   2.3452281E-04   2.2912135E+05   -1.8220945E+00
   2.3560586E-04   2.2720615E+05   -1.8215660E+00
   2.3669392E-04   2.2530750E+05   -1.8210369E+00
   2.3778699E-04   2.2342527E+05   -1.8205070E+00
   2.3888512E-04   2.2155930E+05   -1.8199765E+00
   2.3998831E-04   2.1970945E+05   -1.8194453E+00
   2.4109661E-04   2.1787558E+05   -1.8189134E+00
   2.4221001E-04   2.1605755E+05   -1.8183808E+00
   2.4332857E-04   2.1425521E+05   -1.8178475E+00
   2.4445228E-04   2.1246843E+05   -1.8173136E+00
   2.4558119E-04   2.1069707E+05   -1.8167790E+00
   2.4671531E-04   2.0894100E+05   -1.8162438E+00
   2.4785467E-04   2.0720007E+05   -1.8157079E+00
   2.4899928E-04   2.0547415E+05   -1.8151714E+00
   2.5014919E-04   2.0376312E+05   -1.8146342E+00
   2.5130440E-04   2.0206683E+05   -1.8140964E+00
   2.5246495E-04   2.0038517E+05   -1.8135579E+00
   2.5363086E-04   1.9871799E+05   -1.8130188E+00
   2.5480216E-04   1.9706517E+05   -1.8124791E+00
   2.5597886E-04   1.9542658E+05   -1.8119387E+00
   2.5716100E-04   1.9380210E+05   -1.8113978E+00
   2.5834859E-04   1.9219161E+05   -1.8108562E+00
   2.5954168E-04   1.9059497E+05   -1.8103140E+00
   2.6074027E-04   1.8901207E+05   -1.8097712E+00
   2.6194439E-04   1.8744279E+05   -1.8092278E+00
   2.6315408E-04   1.8588700E+05   -1.8086838E+00
   2.6436935E-04   1.8434458E+05   -1.8081393E+00
   2.6559024E-04   1.8281542E+05   -1.8075941E+00
   2.6681676E-04   1.8129941E+05   -1.8070484E+00
   2.6804895E-04   1.7979641E+05   -1.8065021E+00
   2.6928683E-04   1.7830633E+05   -1.8059552E+00
   2.7053042E-04   1.7682904E+05   -1.8054077E+00
   2.7177976E-04   1.7536443E+05   -1.8048597E+00
   2.7303487E-04   1.7391240E+05   -1.8043112E+00
   2.7429577E-04   1.7247282E+05   -1.8037621E+00
   2.7556250E-04   1.7104559E+05   -1.8032124E+00
   2.7683507E-04   1.6963060E+05   -1.8026622E+00
   2.7811353E-04   1.6822775E+05   -1.8021115E+00
   2.7939788E-04   1.6683692E+05   -1.8015602E+00
   2.8068817E-04   1.6545800E+05   -1.8010085E+00
   2.8198442E-04   1.6409091E+05   -1.8004562E+00
   2.8328665E-04   1.6273552E+05   -1.7999033E+00
   2.8459490E-04   1.6139174E+05   -1.7993500E+00
   2.8590919E-04   1.6005946E+05   -1.7987962E+00
   2.8722955E-04   1.5873859E+05   -1.7982419E+00
   2.8855600E-04   1.5742902E+05   -1.7976870E+00
   2.8988859E-04   1.5613065E+05   -1.7971317E+00
   2.9122732E-04   1.5484339E+05   -1.7965759E+00
   2.9257224E-04   1.5356713E+05   -1.7960197E+00
   2.9392337E-04   1.5230179E+05   -1.7954629E+00
   2.9528074E-04   1.5104725E+05   -1.7949057E+00
   2.9664438E-04   1.4980344E+05   -1.7943480E+00
   2.9801431E-04   1.4857025E+05   -1.7937899E+00
   2.9939057E-04   1.4734759E+05   -1.7932313E+00
   3.0077319E-04   1.4613537E+05   -1.7926723E+00
   3.0216219E-04   1.4493349E+05   -1.7921128E+00
   3.0355761E-04   1.4374187E+05   -1.7915529E+00
   3.0495947E-04   1.4256042E+05   -1.7909926E+00
   3.0636780E-04   1.4138904E+05   -1.7904318E+00
   3.0778264E-04   1.4022765E+05   -1.7898706E+00
   3.0920401E-04   1.3907616E+05   -1.7893091E+00
   3.1063195E-04   1.3793448E+05   -1.7887471E+00
   3.1206648E-04   1.3680253E+05   -1.7881847E+00
   3.1350764E-04   1.3568021E+05   -1.7876219E+00
   3.1495545E-04   1.3456746E+05   -1.7870587E+00
   3.1640994E-04   1.3346418E+05   -1.7864951E+00
   3.1787116E-04   1.3237028E+05   -1.7859311E+00
   3.1933912E-04   1.3128570E+05   -1.7853668E+00
   3.2081386E-04   1.3021034E+05   -1.7848021E+00
   3.2229541E-04   1.2914412E+05   -1.7842371E+00
   3.2378381E-04   1.2808697E+05   -1.7836716E+00
   3.2527908E-04   1.2703880E+05   -1.7831059E+00
   3.2678125E-04   1.2599954E+05   -1.7825398E+00
   3.2829036E-04   1.2496910E+05   -1.7819733E+00
   3.2980644E-04   1.2394742E+05   -1.7814065E+00
   3.3132952E-04   1.2293441E+05   -1.7808394E+00
   3.3285963E-04   1.2193000E+05   -1.7802720E+00
   3.3439681E-04   1.2093411E+05   -1.7797042E+00
   3.3594109E-04   1.1994667E+05   -1.7791361E+00
   3.3749250E-04   1.1896760E+05   -1.7785678E+00
   3.3905108E-04   1.1799684E+05   -1.7779991E+00
   3.4061685E-04   1.1703430E+05   -1.7774301E+00
   3.4218986E-04   1.1607992E+05   -1.7768608E+00
   3.4377013E-04   1.1513362E+05   -1.7762913E+00
   3.4535769E-04   1.1419534E+05   -1.7757215E+00
   3.4695259E-04   1.1326500E+05   -1.7751514E+00
   3.4855485E-04   1.1234253E+05   -1.7745810E+00
   3.5016452E-04   1.1142787E+05   -1.7740104E+00
   3.5178161E-04   1.1052095E+05   -1.7734396E+00
   3.5340618E-04   1.0962170E+05   -1.7728684E+00
   3.5503824E-04   1.0873005E+05   -1.7722971E+00
   3.5667785E-04   1.0784594E+05   -1.7717255E+00
   3.5832502E-04   1.0696930E+05   -1.7711537E+00
   3.5997981E-04   1.0610006E+05   -1.7705816E+00
   3.6164223E-04   1.0523817E+05   -1.7700094E+00
   3.6331233E-04   1.0438355E+05   -1.7694369E+00
   3.6499015E-04   1.0353615E+05   -1.7688642E+00
   3.6667571E-04   1.0269589E+05   -1.7682913E+00
   3.6836906E-04   1.0186272E+05   -1.7677182E+00
   3.7007022E-04   1.0103658E+05   -1.7671450E+00
   3.7177925E-04   1.0021741E+05   -1.7665715E+00
   3.7349616E-04   9.9405139E+04   -1.7659979E+00
   3.7522101E-04   9.8599712E+04   -1.7654241E+00
   3.7695382E-04   9.7801070E+04   -1.7648502E+00
   3.7869463E-04   9.7009153E+04   -1.7642760E+00
   3.8044348E-04   9.6223904E+04   -1.7637018E+00
   3.8220041E-04   9.5445263E+04   -1.7631274E+00
   3.8396545E-04   9.4673174E+04   -1.7625528E+00
   3.8573864E-04   9.3907579E+04   -1.7619781E+00
   3.8752002E-04   9.3148421E+04   -1.7614033E+00
   3.8930963E-04   9.2395646E+04   -1.7608284E+00
   3.9110750E-04   9.1649196E+04   -1.7602533E+00
   3.9291368E-04   9.0909018E+04   -1.7596782E+00
   3.9472820E-04   9.0175057E+04   -1.7591029E+00
   3.9655109E-04   8.9447259E+04   -1.7585275E+00
   3.9838241E-04   8.8725570E+04   -1.7579521E+00
   4.0022218E-04   8.8009937E+04   -1.7573765E+00
   4.0207045E-04   8.7300308E+04   -1.7568009E+00
   4.0392725E-04   8.6596630E+04   -1.7562252E+00
   4.0579263E-04   8.5898852E+04   -1.7556495E+00
   4.0766662E-04   8.5206923E+04   -1.7550736E+00
   4.0954927E-04   8.4520792E+04   -1.7544978E+00
   4.1144061E-04   8.3840408E+04   -1.7539218E+00
   4.1334068E-04   8.3165721E+04   -1.7533459E+00
   4.1524953E-04   8.2496683E+04   -1.7527699E+00
   4.1716720E-04   8.1833245E+04   -1.7521938E+00
   4.1909372E-04   8.1175357E+04   -1.7516178E+00
   4.2102914E-04   8.0522972E+04   -1.7510417E+00
   4.2297350E-04   7.9876042E+04   -1.7504656E+00
   4.2492683E-04   7.9234520E+04   -1.7498895E+00
   4.2688919E-04   7.8598358E+04   -1.7493134E+00
   4.2886061E-04   7.7967512E+04   -1.7487373E+00
   4.3084113E-04   7.7341934E+04   -1.7481613E+00
   4.3283080E-04   7.6721579E+04   -1.7475852E+00
   4.3482966E-04   7.6106402E+04   -1.7470092E+00
   4.3683775E-04   7.5496358E+04   -1.7464332E+00
   4.3885511E-04   7.4891403E+04   -1.7458572E+00
   4.4088179E-04   7.4291492E+04   -1.7452813E+00
   4.4291783E-04   7.3696582E+04   -1.7447054E+00
   4.4496327E-04   7.3106630E+04   -1.7441296E+00
   4.4701816E-04   7.2521593E+04   -1.7435538E+00
   4.4908253E-04   7.1941429E+04   -1.7429781E+00
   4.5115644E-04   7.1366095E+04   -1.7424025E+00
   4.5323993E-04   7.0795551E+04   -1.7418270E+00
   4.5533304E-04   7.0229753E+04   -1.7412515E+00
   4.5743582E-04   6.9668663E+04   -1.7406762E+00
   4.5954830E-04   6.9112238E+04   -1.7401009E+00
   4.6167054E-04   6.8560439E+04   -1.7395258E+00
   4.6380259E-04   6.8013226E+04   -1.7389507E+00
   4.6594448E-04   6.7470559E+04   -1.7383758E+00
   4.6809626E-04   6.6932399E+04   -1.7378010E+00
   4.7025797E-04   6.6398708E+04   -1.7372263E+00
   4.7242967E-04   6.5869446E+04   -1.7366517E+00
   4.7461140E-04   6.5344576E+04   -1.7360773E+00
   4.7680321E-04   6.4824060E+04   -1.7355031E+00
   4.7900514E-04   6.4307860E+04   -1.7349289E+00
   4.8121723E-04   6.3795940E+04   -1.7343550E+00
   4.8343954E-04   6.3288262E+04   -1.7337812E+00
   4.8567212E-04   6.2784790E+04   -1.7332076E+00
   4.8791500E-04   6.2285488E+04   -1.7326341E+00
   4.9016825E-04   6.1790320E+04   -1.7320609E+00
   4.9243189E-04   6.1299250E+04   -1.7314878E+00
   4.9470600E-04   6.0812244E+04   -1.7309149E+00
   4.9699060E-04   6.0329265E+04   -1.7303422E+00
   4.9928575E-04   5.9850281E+04   -1.7297698E+00
   5.0159151E-04   5.9375256E+04   -1.7291975E+00
   5.0390791E-04   5.8904157E+04   -1.7286255E+00
   5.0623501E-04   5.8436949E+04   -1.7280537E+00
   5.0857286E-04   5.7973600E+04   -1.7274821E+00
   5.1092150E-04   5.7514076E+04   -1.7269107E+00
   5.1328099E-04   5.7058345E+04   -1.7263396E+00
   5.1565137E-04   5.6606374E+04   -1.7257687E+00
   5.1803270E-04   5.6158131E+04   -1.7251981E+00
   5.2042503E-04   5.5713584E+04   -1.7246278E+00
   5.2282841E-04   5.5272700E+04   -1.7240577E+00
   5.2524289E-04   5.4835450E+04   -1.7234879E+00
   5.2766851E-04   5.4401802E+04   -1.7229183E+00
   5.3010534E-04   5.3971724E+04   -1.7223491E+00
   5.3255342E-04   5.3545187E+04   -1.7217801E+00
   5.3501281E-04   5.3122160E+04   -1.7212114E+00
   5.3748356E-04   5.2702613E+04   -1.7206431E+00
   5.3996571E-04   5.2286517E+04   -1.7200750E+00
   5.4245933E-04   5.1873841E+04   -1.7195073E+00
   5.4496446E-04   5.1464557E+04   -1.7189398E+00
   5.4748117E-04   5.1058636E+04   -1.7183727E+00
   5.5000949E-04   5.0656049E+04   -1.7178059E+00
   5.5254949E-04   5.0256767E+04   -1.7172395E+00
   5.5510123E-04   4.9860763E+04   -1.7166734E+00
   5.5766474E-04   4.9468008E+04   -1.7161076E+00
   5.6024010E-04   4.9078474E+04   -1.7155422E+00
   5.6282734E-04   4.8692135E+04   -1.7149771E+00
   5.6542654E-04   4.8308963E+04   -1.7144124E+00
   5.6803774E-04   4.7928930E+04   -1.7138481E+00
   5.7066099E-04   4.7552011E+04   -1.7132842E+00
   5.7329637E-04   4.7178179E+04   -1.7127206E+00
   5.7594391E-04   4.6807407E+04   -1.7121574E+00
   5.7860368E-04   4.6439669E+04   -1.7115946E+00
   5.8127573E-04   4.6074940E+04   -1.7110322E+00
   5.8396012E-04   4.5713194E+04   -1.7104702E+00
   5.8665691E-04   4.5354405E+04   -1.7099087E+00
   5.8936616E-04   4.4998549E+04   -1.7093475E+00
   5.9208791E-04   4.4645600E+04   -1.7087867E+00
   5.9482223E-04   4.4295534E+04   -1.7082264E+00
   5.9756919E-04   4.3948326E+04   -1.7076665E+00
   6.0032882E-04   4.3603952E+04   -1.7071070E+00
   6.0310120E-04   4.3262389E+04   -1.7065480E+00
   6.0588639E-04   4.2923611E+04   -1.7059894E+00
   6.0868443E-04   4.2587596E+04   -1.7054313E+00
   6.1149540E-04   4.2254319E+04   -1.7048736E+00
   6.1431935E-04   4.1923759E+04   -1.7043164E+00
   6.1715634E-04   4.1595891E+04   -1.7037597E+00
   6.2000644E-04   4.1270694E+04   -1.7032034E+00
   6.2286969E-04   4.0948143E+04   -1.7026476E+00
