#        a       HoverH0(a)       dlogHdloga_of_a(a)
   1.0000000E-04   1.0904692E+06   -1.8641677E+00
   1.0046181E-04   1.0811443E+06   -1.8637114E+00
   1.0092575E-04   1.0719014E+06   -1.8632542E+00
   1.0139184E-04   1.0627398E+06   -1.8627959E+00
   1.0186008E-04   1.0536587E+06   -1.8623367E+00
   1.0233048E-04   1.0446573E+06   -1.8618766E+00
   1.0280305E-04   1.0357351E+06   -1.8614155E+00
   1.0327781E-04   1.0268913E+06   -1.8609535E+00
   1.0375475E-04   1.0181252E+06   -1.8604905E+00
   1.0423390E-04   1.0094360E+06   -1.8600266E+00
   1.0471527E-04   1.0008232E+06   -1.8595617E+00
   1.0519885E-04   9.9228591E+05   -1.8590959E+00
   1.0568467E-04   9.8382361E+05   -1.8586292E+00
   1.0617274E-04   9.7543557E+05   -1.8581615E+00
   1.0666305E-04   9.6712114E+05   -1.8576929E+00
   1.0715563E-04   9.5887965E+05   -1.8572234E+00
   1.0765049E-04   9.5071045E+05   -1.8567529E+00
   1.0814763E-04   9.4261289E+05   -1.8562815E+00
   1.0864707E-04   9.3458634E+05   -1.8558092E+00
   1.0914881E-04   9.2663015E+05   -1.8553359E+00
   1.0965287E-04   9.1874370E+05   -1.8548618E+00
   1.1015926E-04   9.1092636E+05   -1.8543867E+00
   1.1066799E-04   9.0317751E+05   -1.8539107E+00
   1.1117906E-04   8.9549655E+05   -1.8534338E+00
   1.1169250E-04   8.8788286E+05   -1.8529560E+00
   1.1220831E-04   8.8033584E+05   -1.8524772E+00
   1.1272650E-04   8.7285490E+05   -1.8519976E+00
   1.1324708E-04   8.6543945E+05   -1.8515171E+00
   1.1377007E-04   8.5808890E+05   -1.8510356E+00
   1.1429547E-04   8.5080267E+05   -1.8505533E+00
   1.1482330E-04   8.4358019E+05   -1.8500701E+00
   1.1535356E-04   8.3642088E+05   -1.8495860E+00
   1.1588628E-04   8.2932418E+05   -1.8491009E+00
   1.1642145E-04   8.2228953E+05   -1.8486151E+00
   1.1695910E-04   8.1531638E+05   -1.8481283E+00
   1.1749923E-04   8.0840418E+05   -1.8476406E+00
   1.1804185E-04   8.0155238E+05   -1.8471521E+00
   1.1858698E-04   7.9476045E+05   -1.8466627E+00
   1.1913463E-04   7.8802784E+05   -1.8461724E+00
   1.1968481E-04   7.8135404E+05   -1.8456812E+00
   1.2023752E-04   7.7473851E+05   -1.8451892E+00
   1.2079279E-04   7.6818074E+05   -1.8446963E+00
   1.2135063E-04   7.6168021E+05   -1.8442026E+00
   1.2191104E-04   7.5523640E+05   -1.8437080E+00
   1.2247403E-04   7.4884882E+05   -1.8432125E+00
   1.2303963E-04   7.4251696E+05   -1.8427162E+00
   1.2360784E-04   7.3624032E+05   -1.8422190E+00
   1.2417868E-04   7.3001842E+05   -1.8417210E+00
   1.2475215E-04   7.2385075E+05   -1.8412222E+00
   1.2532826E-04   7.1773685E+05   -1.8407225E+00
   1.2590704E-04   7.1167622E+05   -1.8402219E+00
   1.2648850E-04   7.0566841E+05   -1.8397206E+00
   1.2707263E-04   6.9971292E+05   -1.8392184E+00
   1.2765947E-04   6.9380930E+05   -1.8387154E+00
   1.2824901E-04   6.8795709E+05   -1.8382115E+00
   1.2884128E-04   6.8215583E+05   -1.8377069E+00
   1.2943628E-04   6.7640506E+05   -1.8372014E+00
   1.3003403E-04   6.7070434E+05   -1.8366951E+00
   1.3063454E-04   6.6505321E+05   -1.8361880E+00
   1.3123783E-04   6.5945124E+05   -1.8356801E+00
   1.3184390E-04   6.5389799E+05   -1.8351714E+00
   1.3245277E-04   6.4839302E+05   -1.8346619E+00
   1.3306445E-04   6.4293591E+05   -1.8341516E+00
   1.3367895E-04   6.3752623E+05   -1.8336405E+00
   1.3429630E-04   6.3216355E+05   -1.8331286E+00
   1.3491649E-04   6.2684747E+05   -1.8326159E+00
   1.3553955E-04   6.2157755E+05   -1.8321025E+00
   1.3616548E-04   6.1635340E+05   -1.8315883E+00
   1.3679431E-04   6.1117461E+05   -1.8310733E+00
   1.3742604E-04   6.0604077E+05   -1.8305575E+00
   1.3806069E-04   6.0095149E+05   -1.8300409E+00
   1.3869827E-04   5.9590636E+05   -1.8295236E+00
   1.3933879E-04   5.9090499E+05   -1.8290056E+00
   1.3998227E-04   5.8594700E+05   -1.8284868E+00
   1.4062872E-04   5.8103200E+05   -1.8279672E+00
   1.4127816E-04   5.7615961E+05   -1.8274469E+00
   1.4193060E-04   5.7132945E+05   -1.8269258E+00
   1.4258605E-04   5.6654114E+05   -1.8264040E+00
   1.4324453E-04   5.6179431E+05   -1.8258815E+00
   1.4390605E-04   5.5708860E+05   -1.8253582E+00
   1.4457062E-04   5.5242364E+05   -1.8248342E+00
   1.4523826E-04   5.4779906E+05   -1.8243095E+00
   1.4590899E-04   5.4321452E+05   -1.8237841E+00
   1.4658281E-04   5.3866964E+05   -1.8232579E+00
   1.4725974E-04   5.3416409E+05   -1.8227311E+00
   1.4793981E-04   5.2969751E+05   -1.8222035E+00
   1.4862301E-04   5.2526955E+05   -1.8216753E+00
   1.4930936E-04   5.2087988E+05   -1.8211463E+00
   1.4999889E-04   5.1652816E+05   -1.8206166E+00
   1.5069160E-04   5.1221404E+05   -1.8200863E+00
   1.5138751E-04   5.0793719E+05   -1.8195552E+00
   1.5208663E-04   5.0369729E+05   -1.8190235E+00
   1.5278899E-04   4.9949400E+05   -1.8184911E+00
   1.5349458E-04   4.9532701E+05   -1.8179580E+00
   1.5420343E-04   4.9119599E+05   -1.8174243E+00
   1.5491556E-04   4.8710062E+05   -1.8168899E+00
   1.5563098E-04   4.8304058E+05   -1.8163548E+00
   1.5634970E-04   4.7901556E+05   -1.8158191E+00
   1.5707174E-04   4.7502526E+05   -1.8152828E+00
   1.5779711E-04   4.7106937E+05   -1.8147458E+00
   1.5852584E-04   4.6714757E+05   -1.8142081E+00
   1.5925792E-04   4.6325957E+05   -1.8136698E+00
   1.5999339E-04   4.5940507E+05   -1.8131309E+00
   1.6073226E-04   4.5558377E+05   -1.8125913E+00
   1.6147454E-04   4.5179539E+05   -1.8120512E+00
   1.6222024E-04   4.4803962E+05   -1.8115104E+00
   1.6296939E-04   4.4431618E+05   -1.8109690E+00
   1.6372200E-04   4.4062478E+05   -1.8104270E+00
   1.6447809E-04   4.3696515E+05   -1.8098843E+00
   1.6523767E-04   4.3333699E+05   -1.8093411E+00
   1.6600075E-04   4.2974003E+05   -1.8087973E+00
   1.6676736E-04   4.2617400E+05   -1.8082529E+00
   1.6753751E-04   4.2263862E+05   -1.8077079E+00
   1.6831122E-04   4.1913363E+05   -1.8071624E+00
   1.6908849E-04   4.1565874E+05   -1.8066162E+00
   1.6986936E-04   4.1221370E+05   -1.8060695E+00
   1.7065384E-04   4.0879825E+05   -1.8055222E+00
   1.7144193E-04   4.0541212E+05   -1.8049744E+00
   1.7223367E-04   4.0205505E+05   -1.8044260E+00
   1.7302906E-04   3.9872678E+05   -1.8038770E+00
   1.7382813E-04   3.9542707E+05   -1.8033276E+00
   1.7463089E-04   3.9215566E+05   -1.8027775E+00
   1.7543735E-04   3.8891230E+05   -1.8022270E+00
   1.7624754E-04   3.8569675E+05   -1.8016759E+00
   1.7706147E-04   3.8250875E+05   -1.8011242E+00
   1.7787916E-04   3.7934807E+05   -1.8005721E+00
   1.7870062E-04   3.7621446E+05   -1.8000194E+00
   1.7952588E-04   3.7310769E+05   -1.7994663E+00
   1.8035495E-04   3.7002752E+05   -1.7989126E+00
   1.8118785E-04   3.6697371E+05   -1.7983584E+00
   1.8202459E-04   3.6394603E+05   -1.7978038E+00
   1.8286520E-04   3.6094426E+05   -1.7972486E+00
   1.8370969E-04   3.5796816E+05   -1.7966930E+00
   1.8455808E-04   3.5501751E+05   -1.7961368E+00
   1.8541039E-04   3.5209208E+05   -1.7955803E+00
   1.8626663E-04   3.4919166E+05   -1.7950232E+00
   1.8712683E-04   3.4631601E+05   -1.7944657E+00
   1.8799100E-04   3.4346493E+05   -1.7939077E+00
   1.8885917E-04   3.4063820E+05   -1.7933493E+00
   1.8973134E-04   3.3783561E+05   -1.7927904E+00
   1.9060754E-04   3.3505693E+05   -1.7922311E+00
   1.9148778E-04   3.3230196E+05   -1.7916713E+00
   1.9237209E-04   3.2957050E+05   -1.7911111E+00
   1.9326049E-04   3.2686234E+05   -1.7905505E+00
   1.9415299E-04   3.2417726E+05   -1.7899895E+00
   1.9504960E-04   3.2151507E+05   -1.7894280E+00
   1.9595036E-04   3.1887558E+05   -1.7888662E+00
   1.9685528E-04   3.1625857E+05   -1.7883039E+00
   1.9776438E-04   3.1366385E+05   -1.7877413E+00
   1.9867768E-04   3.1109122E+05   -1.7871782E+00
   1.9959519E-04   3.0854050E+05   -1.7866148E+00
   2.0051694E-04   3.0601148E+05   -1.7860510E+00
   2.0144295E-04   3.0350398E+05   -1.7854868E+00
   2.0237324E-04   3.0101782E+05   -1.7849223E+00
   2.0330782E-04   2.9855279E+05   -1.7843573E+00
   2.0424671E-04   2.9610872E+05   -1.7837921E+00
   2.0518995E-04   2.9368543E+05   -1.7832264E+00
   2.0613754E-04   2.9128272E+05   -1.7826605E+00
   2.0708950E-04   2.8890043E+05   -1.7820941E+00
   2.0804586E-04   2.8653837E+05   -1.7815275E+00
   2.0900664E-04   2.8419636E+05   -1.7809605E+00
   2.0997185E-04   2.8187424E+05   -1.7803932E+00
   2.1094152E-04   2.7957181E+05   -1.7798256E+00
   2.1191567E-04   2.7728892E+05   -1.7792576E+00
   2.1289432E-04   2.7502539E+05   -1.7786894E+00
   2.1387749E-04   2.7278105E+05   -1.7781208E+00
   2.1486520E-04   2.7055574E+05   -1.7775520E+00
   2.1585747E-04   2.6834928E+05   -1.7769829E+00
   2.1685432E-04   2.6616152E+05   -1.7764135E+00
   2.1785578E-04   2.6399228E+05   -1.7758438E+00
   2.1886186E-04   2.6184141E+05   -1.7752738E+00
   2.1987259E-04   2.5970875E+05   -1.7747036E+00
   2.2088798E-04   2.5759413E+05   -1.7741331E+00
   2.2190807E-04   2.5549741E+05   -1.7735624E+00
   2.2293286E-04   2.5341842E+05   -1.7729914E+00
   2.2396239E-04   2.5135700E+05   -1.7724201E+00
   2.2499667E-04   2.4931301E+05   -1.7718487E+00
   2.2603573E-04   2.4728629E+05   -1.7712770E+00
   2.2707958E-04   2.4527670E+05   -1.7707050E+00
   2.2812826E-04   2.4328408E+05   -1.7701329E+00
   2.2918178E-04   2.4130828E+05   -1.7695605E+00
   2.3024017E-04   2.3934916E+05   -1.7689880E+00
   2.3130344E-04   2.3740657E+05   -1.7684152E+00
   2.3237162E-04   2.3548036E+05   -1.7678423E+00
   2.3344474E-04   2.3357041E+05   -1.7672691E+00
   2.3452281E-04   2.3167656E+05   -1.7666958E+00
   2.3560586E-04   2.2979867E+05   -1.7661223E+00
   2.3669392E-04   2.2793660E+05   -1.7655486E+00
   2.3778699E-04   2.2609022E+05   -1.7649748E+00
   2.3888512E-04   2.2425939E+05   -1.7644008E+00
   2.3998831E-04   2.2244397E+05   -1.7638266E+00
   2.4109661E-04   2.2064384E+05   -1.7632523E+00
   2.4221001E-04   2.1885885E+05   -1.7626779E+00
   2.4332857E-04   2.1708887E+05   -1.7621033E+00
   2.4445228E-04   2.1533378E+05   -1.7615286E+00
   2.4558119E-04   2.1359345E+05   -1.7609538E+00
   2.4671531E-04   2.1186774E+05   -1.7603788E+00
   2.4785467E-04   2.1015653E+05   -1.7598038E+00
   2.4899928E-04   2.0845969E+05   -1.7592286E+00
   2.5014919E-04   2.0677710E+05   -1.7586534E+00
   2.5130440E-04   2.0510864E+05   -1.7580780E+00
   2.5246495E-04   2.0345418E+05   -1.7575026E+00
   2.5363086E-04   2.0181360E+05   -1.7569271E+00
   2.5480216E-04   2.0018678E+05   -1.7563515E+00
   2.5597886E-04   1.9857360E+05   -1.7557758E+00
   2.5716100E-04   1.9697394E+05   -1.7552001E+00
   2.5834859E-04   1.9538769E+05   -1.7546243E+00
   2.5954168E-04   1.9381473E+05   -1.7540485E+00
   2.6074027E-04   1.9225493E+05   -1.7534727E+00
   2.6194439E-04   1.9070820E+05   -1.7528967E+00
   2.6315408E-04   1.8917442E+05   -1.7523208E+00
   2.6436935E-04   1.8765346E+05   -1.7517449E+00
   2.6559024E-04   1.8614523E+05   -1.7511689E+00
   2.6681676E-04   1.8464961E+05   -1.7505929E+00
   2.6804895E-04   1.8316650E+05   -1.7500169E+00
   2.6928683E-04   1.8169578E+05   -1.7494409E+00
   2.7053042E-04   1.8023734E+05   -1.7488649E+00
   2.7177976E-04   1.7879109E+05   -1.7482889E+00
   2.7303487E-04   1.7735691E+05   -1.7477130E+00
   2.7429577E-04   1.7593471E+05   -1.7471370E+00
   2.7556250E-04   1.7452437E+05   -1.7465611E+00
   2.7683507E-04   1.7312580E+05   -1.7459852E+00
   2.7811353E-04   1.7173889E+05   -1.7454094E+00
   2.7939788E-04   1.7036354E+05   -1.7448336E+00
   2.8068817E-04   1.6899966E+05   -1.7442579E+00
   2.8198442E-04   1.6764713E+05   -1.7436822E+00
   2.8328665E-04   1.6630588E+05   -1.7431066E+00
   2.8459490E-04   1.6497579E+05   -1.7425311E+00
   2.8590919E-04   1.6365678E+05   -1.7419556E+00
   2.8722955E-04   1.6234874E+05   -1.7413803E+00
   2.8855600E-04   1.6105158E+05   -1.7408050E+00
   2.8988859E-04   1.5976521E+05   -1.7402298E+00
   2.9122732E-04   1.5848953E+05   -1.7396547E+00
   2.9257224E-04   1.5722446E+05   -1.7390798E+00
   2.9392337E-04   1.5596990E+05   -1.7385049E+00
   2.9528074E-04   1.5472575E+05   -1.7379302E+00
   2.9664438E-04   1.5349194E+05   -1.7373556E+00
   2.9801431E-04   1.5226837E+05   -1.7367811E+00
   2.9939057E-04   1.5105496E+05   -1.7362068E+00
   3.0077319E-04   1.4985161E+05   -1.7356326E+00
   3.0216219E-04   1.4865824E+05   -1.7350586E+00
   3.0355761E-04   1.4747476E+05   -1.7344847E+00
   3.0495947E-04   1.4630109E+05   -1.7339110E+00
   3.0636780E-04   1.4513715E+05   -1.7333375E+00
   3.0778264E-04   1.4398285E+05   -1.7327641E+00
   3.0920401E-04   1.4283810E+05   -1.7321909E+00
   3.1063195E-04   1.4170283E+05   -1.7316179E+00
   3.1206648E-04   1.4057695E+05   -1.7310451E+00
   3.1350764E-04   1.3946039E+05   -1.7304725E+00
   3.1495545E-04   1.3835306E+05   -1.7299001E+00
   3.1640994E-04   1.3725489E+05   -1.7293279E+00
   3.1787116E-04   1.3616579E+05   -1.7287560E+00
   3.1933912E-04   1.3508569E+05   -1.7281842E+00
   3.2081386E-04   1.3401451E+05   -1.7276127E+00
   3.2229541E-04   1.3295217E+05   -1.7270414E+00
   3.2378381E-04   1.3189860E+05   -1.7264704E+00
   3.2527908E-04   1.3085373E+05   -1.7258996E+00
   3.2678125E-04   1.2981747E+05   -1.7253290E+00
   3.2829036E-04   1.2878976E+05   -1.7247588E+00
   3.2980644E-04   1.2777052E+05   -1.7241887E+00
   3.3132952E-04   1.2675968E+05   -1.7236190E+00
   3.3285963E-04   1.2575716E+05   -1.7230495E+00
   3.3439681E-04   1.2476290E+05   -1.7224803E+00
   3.3594109E-04   1.2377683E+05   -1.7219114E+00
   3.3749250E-04   1.2279887E+05   -1.7213428E+00
   3.3905108E-04   1.2182896E+05   -1.7207745E+00
   3.4061685E-04   1.2086703E+05   -1.7202065E+00
   3.4218986E-04   1.1991300E+05   -1.7196388E+00
   3.4377013E-04   1.1896682E+05   -1.7190715E+00
   3.4535769E-04   1.1802841E+05   -1.7185044E+00
   3.4695259E-04   1.1709771E+05   -1.7179377E+00
   3.4855485E-04   1.1617465E+05   -1.7173713E+00
   3.5016452E-04   1.1525916E+05   -1.7168053E+00
   3.5178161E-04   1.1435119E+05   -1.7162396E+00
   3.5340618E-04   1.1345067E+05   -1.7156742E+00
   3.5503824E-04   1.1255753E+05   -1.7151092E+00
   3.5667785E-04   1.1167172E+05   -1.7145446E+00
   3.5832502E-04   1.1079316E+05   -1.7139803E+00
   3.5997981E-04   1.0992181E+05   -1.7134164E+00
   3.6164223E-04   1.0905758E+05   -1.7128529E+00
   3.6331233E-04   1.0820044E+05   -1.7122898E+00
   3.6499015E-04   1.0735031E+05   -1.7117271E+00
   3.6667571E-04   1.0650713E+05   -1.7111647E+00
   3.6836906E-04   1.0567085E+05   -1.7106028E+00
   3.7007022E-04   1.0484141E+05   -1.7100413E+00
   3.7177925E-04   1.0401875E+05   -1.7094801E+00
   3.7349616E-04   1.0320281E+05   -1.7089194E+00
   3.7522101E-04   1.0239353E+05   -1.7083592E+00
   3.7695382E-04   1.0159086E+05   -1.7077993E+00
   3.7869463E-04   1.0079475E+05   -1.7072399E+00
   3.8044348E-04   1.0000513E+05   -1.7066809E+00
   3.8220041E-04   9.9221951E+04   -1.7061224E+00
   3.8396545E-04   9.8445160E+04   -1.7055643E+00
   3.8573864E-04   9.7674702E+04   -1.7050067E+00
   3.8752002E-04   9.6910522E+04   -1.7044496E+00
   3.8930963E-04   9.6152567E+04   -1.7038929E+00
   3.9110750E-04   9.5400785E+04   -1.7033367E+00
   3.9291368E-04   9.4655124E+04   -1.7027809E+00
   3.9472820E-04   9.3915531E+04   -1.7022257E+00
   3.9655109E-04   9.3181955E+04   -1.7016709E+00
   3.9838241E-04   9.2454345E+04   -1.7011166E+00
   4.0022218E-04   9.1732651E+04   -1.7005628E+00
   4.0207045E-04   9.1016823E+04   -1.7000096E+00
   4.0392725E-04   9.0306811E+04   -1.6994568E+00
   4.0579263E-04   8.9602566E+04   -1.6989045E+00
   4.0766662E-04   8.8904039E+04   -1.6983528E+00
   4.0954927E-04   8.8211181E+04   -1.6978016E+00
   4.1144061E-04   8.7523946E+04   -1.6972509E+00
   4.1334068E-04   8.6842284E+04   -1.6967008E+00
   4.1524953E-04   8.6166150E+04   -1.6961512E+00
   4.1716720E-04   8.5495496E+04   -1.6956021E+00
   4.1909372E-04   8.4830277E+04   -1.6950536E+00
   4.2102914E-04   8.4170447E+04   -1.6945056E+00
   4.2297350E-04   8.3515959E+04   -1.6939582E+00
   4.2492683E-04   8.2866769E+04   -1.6934114E+00
   4.2688919E-04   8.2222833E+04   -1.6928651E+00
   4.2886061E-04   8.1584106E+04   -1.6923194E+00
   4.3084113E-04   8.0950544E+04   -1.6917743E+00
   4.3283080E-04   8.0322104E+04   -1.6912298E+00
   4.3482966E-04   7.9698743E+04   -1.6906859E+00
   4.3683775E-04   7.9080417E+04   -1.6901425E+00
   4.3885511E-04   7.8467085E+04   -1.6895998E+00
   4.4088179E-04   7.7858704E+04   -1.6890576E+00
   4.4291783E-04   7.7255233E+04   -1.6885161E+00
   4.4496327E-04   7.6656631E+04   -1.6879752E+00
   4.4701816E-04   7.6062856E+04   -1.6874349E+00
   4.4908253E-04   7.5473868E+04   -1.6868952E+00
   4.5115644E-04   7.4889628E+04   -1.6863561E+00
   4.5323993E-04   7.4310094E+04   -1.6858177E+00
   4.5533304E-04   7.3735228E+04   -1.6852799E+00
   4.5743582E-04   7.3164990E+04   -1.6847427E+00
   4.5954830E-04   7.2599342E+04   -1.6842062E+00
   4.6167054E-04   7.2038245E+04   -1.6836704E+00
   4.6380259E-04   7.1481661E+04   -1.6831352E+00
   4.6594448E-04   7.0929552E+04   -1.6826006E+00
   4.6809626E-04   7.0381880E+04   -1.6820667E+00
   4.7025797E-04   6.9838609E+04   -1.6815335E+00
   4.7242967E-04   6.9299702E+04   -1.6810010E+00
   4.7461140E-04   6.8765121E+04   -1.6804691E+00
   4.7680321E-04   6.8234832E+04   -1.6799379E+00
   4.7900514E-04   6.7708797E+04   -1.6794074E+00
   4.8121723E-04   6.7186982E+04   -1.6788776E+00
   4.8343954E-04   6.6669351E+04   -1.6783485E+00
   4.8567212E-04   6.6155870E+04   -1.6778201E+00
   4.8791500E-04   6.5646502E+04   -1.6772923E+00
   4.9016825E-04   6.5141215E+04   -1.6767653E+00
   4.9243189E-04   6.4639974E+04   -1.6762390E+00
   4.9470600E-04   6.4142746E+04   -1.6757134E+00
   4.9699060E-04   6.3649496E+04   -1.6751885E+00
   4.9928575E-04   6.3160192E+04   -1.6746644E+00
   5.0159151E-04   6.2674800E+04   -1.6741410E+00
   5.0390791E-04   6.2193289E+04   -1.6736183E+00
   5.0623501E-04   6.1715626E+04   -1.6730963E+00
   5.0857286E-04   6.1241778E+04   -1.6725751E+00
   5.1092150E-04   6.0771714E+04   -1.6720546E+00
   5.1328099E-04   6.0305403E+04   -1.6715349E+00
   5.1565137E-04   5.9842814E+04   -1.6710159E+00
   5.1803270E-04   5.9383914E+04   -1.6704977E+00
   5.2042503E-04   5.8928674E+04   -1.6699802E+00
   5.2282841E-04   5.8477064E+04   -1.6694635E+00
   5.2524289E-04   5.8029052E+04   -1.6689475E+00
   5.2766851E-04   5.7584610E+04   -1.6684323E+00
   5.3010534E-04   5.7143707E+04   -1.6679179E+00
   5.3255342E-04   5.6706314E+04   -1.6674043E+00
   5.3501281E-04   5.6272402E+04   -1.6668915E+00
   5.3748356E-04   5.5841942E+04   -1.6663794E+00
   5.3996571E-04   5.5414906E+04   -1.6658681E+00
   5.4245933E-04   5.4991265E+04   -1.6653576E+00
   5.4496446E-04   5.4570991E+04   -1.6648479E+00
   5.4748117E-04   5.4154055E+04   -1.6643391E+00
   5.5000949E-04   5.3740432E+04   -1.6638310E+00
   5.5254949E-04   5.3330092E+04   -1.6633237E+00
   5.5510123E-04   5.2923009E+04   -1.6628172E+00
   5.5766474E-04   5.2519156E+04   -1.6623115E+00
   5.6024010E-04   5.2118506E+04   -1.6618067E+00
   5.6282734E-04   5.1721032E+04   -1.6613027E+00
   5.6542654E-04   5.1326709E+04   -1.6607994E+00
   5.6803774E-04   5.0935510E+04   -1.6602971E+00
   5.7066099E-04   5.0547410E+04   -1.6597955E+00
   5.7329637E-04   5.0162383E+04   -1.6592948E+00
   5.7594391E-04   4.9780403E+04   -1.6587949E+00
   5.7860368E-04   4.9401446E+04   -1.6582959E+00
   5.8127573E-04   4.9025486E+04   -1.6577976E+00
   5.8396012E-04   4.8652499E+04   -1.6573003E+00
   5.8665691E-04   4.8282460E+04   -1.6568038E+00
   5.8936616E-04   4.7915345E+04   -1.6563081E+00
   5.9208791E-04   4.7551130E+04   -1.6558133E+00
   5.9482223E-04   4.7189791E+04   -1.6553193E+00
   5.9756919E-04   4.6831304E+04   -1.6548263E+00
   6.0032882E-04   4.6475646E+04   -1.6543340E+00
   6.0310120E-04   4.6122794E+04   -1.6538427E+00
   6.0588639E-04   4.5772724E+04   -1.6533522E+00
   6.0868443E-04   4.5425413E+04   -1.6528625E+00
   6.1149540E-04   4.5080840E+04   -1.6523738E+00
   6.1431935E-04   4.4738981E+04   -1.6518859E+00
   6.1715634E-04   4.4399814E+04   -1.6513989E+00
   6.2000644E-04   4.4063317E+04   -1.6509128E+00
   6.2286969E-04   4.3729468E+04   -1.6504276E+00
