#        a       HoverH0(a)       dlogHdloga_of_a(a)
   1.0000000E-04   1.0924874E+06   -1.8682462E+00
   1.0046181E-04   1.0831248E+06   -1.8677986E+00
   1.0092575E-04   1.0738447E+06   -1.8673500E+00
   1.0139184E-04   1.0646464E+06   -1.8669005E+00
   1.0186008E-04   1.0555290E+06   -1.8664500E+00
   1.0233048E-04   1.0464918E+06   -1.8659985E+00
   1.0280305E-04   1.0375342E+06   -1.8655461E+00
   1.0327781E-04   1.0286554E+06   -1.8650927E+00
   1.0375475E-04   1.0198548E+06   -1.8646383E+00
   1.0423390E-04   1.0111315E+06   -1.8641830E+00
   1.0471527E-04   1.0024850E+06   -1.8637267E+00
   1.0519885E-04   9.9391444E+05   -1.8632695E+00
   1.0568467E-04   9.8541928E+05   -1.8628113E+00
   1.0617274E-04   9.7699879E+05   -1.8623521E+00
   1.0666305E-04   9.6865231E+05   -1.8618920E+00
   1.0715563E-04   9.6037918E+05   -1.8614310E+00
   1.0765049E-04   9.5217873E+05   -1.8609690E+00
   1.0814763E-04   9.4405031E+05   -1.8605060E+00
   1.0864707E-04   9.3599328E+05   -1.8600421E+00
   1.0914881E-04   9.2800699E+05   -1.8595773E+00
   1.0965287E-04   9.2009082E+05   -1.8591115E+00
   1.1015926E-04   9.1224414E+05   -1.8586448E+00
   1.1066799E-04   9.0446632E+05   -1.8581771E+00
   1.1117906E-04   8.9675676E+05   -1.8577086E+00
   1.1169250E-04   8.8911482E+05   -1.8572391E+00
   1.1220831E-04   8.8153992E+05   -1.8567686E+00
   1.1272650E-04   8.7403145E+05   -1.8562972E+00
   1.1324708E-04   8.6658882E+05   -1.8558250E+00
   1.1377007E-04   8.5921143E+05   -1.8553517E+00
   1.1429547E-04   8.5189871E+05   -1.8548776E+00
   1.1482330E-04   8.4465008E+05   -1.8544026E+00
   1.1535356E-04   8.3746496E+05   -1.8539266E+00
   1.1588628E-04   8.3034278E+05   -1.8534497E+00
   1.1642145E-04   8.2328298E+05   -1.8529719E+00
   1.1695910E-04   8.1628500E+05   -1.8524932E+00
   1.1749923E-04   8.0934830E+05   -1.8520136E+00
   1.1804185E-04   8.0247231E+05   -1.8515331E+00
   1.1858698E-04   7.9565651E+05   -1.8510517E+00
   1.1913463E-04   7.8890035E+05   -1.8505694E+00
   1.1968481E-04   7.8220329E+05   -1.8500862E+00
   1.2023752E-04   7.7556482E+05   -1.8496021E+00
   1.2079279E-04   7.6898440E+05   -1.8491171E+00
   1.2135063E-04   7.6246152E+05   -1.8486313E+00
   1.2191104E-04   7.5599567E+05   -1.8481445E+00
   1.2247403E-04   7.4958633E+05   -1.8476569E+00
   1.2303963E-04   7.4323300E+05   -1.8471684E+00
   1.2360784E-04   7.3693518E+05   -1.8466790E+00
   1.2417868E-04   7.3069237E+05   -1.8461887E+00
   1.2475215E-04   7.2450409E+05   -1.8456976E+00
   1.2532826E-04   7.1836984E+05   -1.8452056E+00
   1.2590704E-04   7.1228915E+05   -1.8447128E+00
   1.2648850E-04   7.0626153E+05   -1.8442190E+00
   1.2707263E-04   7.0028651E+05   -1.8437245E+00
   1.2765947E-04   6.9436362E+05   -1.8432290E+00
   1.2824901E-04   6.8849241E+05   -1.8427327E+00
   1.2884128E-04   6.8267240E+05   -1.8422356E+00
   1.2943628E-04   6.7690314E+05   -1.8417376E+00
   1.3003403E-04   6.7118418E+05   -1.8412388E+00
   1.3063454E-04   6.6551507E+05   -1.8407391E+00
   1.3123783E-04   6.5989536E+05   -1.8402386E+00
   1.3184390E-04   6.5432461E+05   -1.8397373E+00
   1.3245277E-04   6.4880239E+05   -1.8392351E+00
   1.3306445E-04   6.4332827E+05   -1.8387321E+00
   1.3367895E-04   6.3790181E+05   -1.8382283E+00
   1.3429630E-04   6.3252259E+05   -1.8377237E+00
   1.3491649E-04   6.2719020E+05   -1.8372182E+00
   1.3553955E-04   6.2190420E+05   -1.8367120E+00
   1.3616548E-04   6.1666420E+05   -1.8362049E+00
   1.3679431E-04   6.1146978E+05   -1.8356970E+00
   1.3742604E-04   6.0632054E+05   -1.8351883E+00
   1.3806069E-04   6.0121607E+05   -1.8346789E+00
   1.3869827E-04   5.9615597E+05   -1.8341686E+00
   1.3933879E-04   5.9113985E+05   -1.8336575E+00
   1.3998227E-04   5.8616731E+05   -1.8331456E+00
   1.4062872E-04   5.8123798E+05   -1.8326330E+00
   1.4127816E-04   5.7635146E+05   -1.8321196E+00
   1.4193060E-04   5.7150737E+05   -1.8316054E+00
   1.4258605E-04   5.6670535E+05   -1.8310904E+00
   1.4324453E-04   5.6194500E+05   -1.8305746E+00
   1.4390605E-04   5.5722597E+05   -1.8300581E+00
   1.4457062E-04   5.5254788E+05   -1.8295408E+00
   1.4523826E-04   5.4791038E+05   -1.8290228E+00
   1.4590899E-04   5.4331309E+05   -1.8285040E+00
   1.4658281E-04   5.3875567E+05   -1.8279845E+00
   1.4725974E-04   5.3423775E+05   -1.8274642E+00
   1.4793981E-04   5.2975900E+05   -1.8269431E+00
   1.4862301E-04   5.2531905E+05   -1.8264214E+00
   1.4930936E-04   5.2091756E+05   -1.8258989E+00
   1.4999889E-04   5.1655420E+05   -1.8253756E+00
   1.5069160E-04   5.1222863E+05   -1.8248517E+00
   1.5138751E-04   5.0794050E+05   -1.8243270E+00
   1.5208663E-04   5.0368949E+05   -1.8238015E+00
   1.5278899E-04   4.9947526E+05   -1.8232754E+00
   1.5349458E-04   4.9529750E+05   -1.8227486E+00
   1.5420343E-04   4.9115588E+05   -1.8222210E+00
   1.5491556E-04   4.8705007E+05   -1.8216928E+00
   1.5563098E-04   4.8297976E+05   -1.8211638E+00
   1.5634970E-04   4.7894463E+05   -1.8206342E+00
   1.5707174E-04   4.7494438E+05   -1.8201039E+00
   1.5779711E-04   4.7097869E+05   -1.8195729E+00
   1.5852584E-04   4.6704725E+05   -1.8190412E+00
   1.5925792E-04   4.6314977E+05   -1.8185088E+00
   1.5999339E-04   4.5928593E+05   -1.8179757E+00
   1.6073226E-04   4.5545545E+05   -1.8174420E+00
   1.6147454E-04   4.5165803E+05   -1.8169076E+00
   1.6222024E-04   4.4789338E+05   -1.8163726E+00
   1.6296939E-04   4.4416120E+05   -1.8158369E+00
   1.6372200E-04   4.4046120E+05   -1.8153005E+00
   1.6447809E-04   4.3679311E+05   -1.8147636E+00
   1.6523767E-04   4.3315664E+05   -1.8142259E+00
   1.6600075E-04   4.2955151E+05   -1.8136876E+00
   1.6676736E-04   4.2597744E+05   -1.8131487E+00
   1.6753751E-04   4.2243416E+05   -1.8126092E+00
   1.6831122E-04   4.1892139E+05   -1.8120691E+00
   1.6908849E-04   4.1543887E+05   -1.8115283E+00
   1.6986936E-04   4.1198632E+05   -1.8109869E+00
   1.7065384E-04   4.0856349E+05   -1.8104449E+00
   1.7144193E-04   4.0517011E+05   -1.8099023E+00
   1.7223367E-04   4.0180591E+05   -1.8093591E+00
   1.7302906E-04   3.9847065E+05   -1.8088153E+00
   1.7382813E-04   3.9516406E+05   -1.8082709E+00
   1.7463089E-04   3.9188590E+05   -1.8077259E+00
   1.7543735E-04   3.8863591E+05   -1.8071804E+00
   1.7624754E-04   3.8541384E+05   -1.8066343E+00
   1.7706147E-04   3.8221944E+05   -1.8060876E+00
   1.7787916E-04   3.7905248E+05   -1.8055403E+00
   1.7870062E-04   3.7591270E+05   -1.8049925E+00
   1.7952588E-04   3.7279987E+05   -1.8044441E+00
   1.8035495E-04   3.6971376E+05   -1.8038952E+00
   1.8118785E-04   3.6665412E+05   -1.8033457E+00
   1.8202459E-04   3.6362072E+05   -1.8027957E+00
   1.8286520E-04   3.6061333E+05   -1.8022451E+00
   1.8370969E-04   3.5763172E+05   -1.8016941E+00
   1.8455808E-04   3.5467567E+05   -1.8011424E+00
   1.8541039E-04   3.5174494E+05   -1.8005903E+00
   1.8626663E-04   3.4883932E+05   -1.8000377E+00
   1.8712683E-04   3.4595858E+05   -1.7994845E+00
   1.8799100E-04   3.4310251E+05   -1.7989309E+00
   1.8885917E-04   3.4027088E+05   -1.7983767E+00
   1.8973134E-04   3.3746349E+05   -1.7978220E+00
   1.9060754E-04   3.3468011E+05   -1.7972669E+00
   1.9148778E-04   3.3192054E+05   -1.7967113E+00
   1.9237209E-04   3.2918456E+05   -1.7961552E+00
   1.9326049E-04   3.2647198E+05   -1.7955986E+00
   1.9415299E-04   3.2378257E+05   -1.7950415E+00
   1.9504960E-04   3.2111615E+05   -1.7944840E+00
   1.9595036E-04   3.1847251E+05   -1.7939261E+00
   1.9685528E-04   3.1585144E+05   -1.7933677E+00
   1.9776438E-04   3.1325275E+05   -1.7928088E+00
   1.9867768E-04   3.1067624E+05   -1.7922495E+00
   1.9959519E-04   3.0812171E+05   -1.7916897E+00
   2.0051694E-04   3.0558898E+05   -1.7911296E+00
   2.0144295E-04   3.0307785E+05   -1.7905690E+00
   2.0237324E-04   3.0058814E+05   -1.7900079E+00
   2.0330782E-04   2.9811964E+05   -1.7894465E+00
   2.0424671E-04   2.9567218E+05   -1.7888847E+00
   2.0518995E-04   2.9324558E+05   -1.7883224E+00
   2.0613754E-04   2.9083964E+05   -1.7877598E+00
   2.0708950E-04   2.8845419E+05   -1.7871967E+00
   2.0804586E-04   2.8608905E+05   -1.7866333E+00
   2.0900664E-04   2.8374404E+05   -1.7860695E+00
   2.0997185E-04   2.8141898E+05   -1.7855053E+00
   2.1094152E-04   2.7911370E+05   -1.7849408E+00
   2.1191567E-04   2.7682802E+05   -1.7843759E+00
   2.1289432E-04   2.7456178E+05   -1.7838106E+00
   2.1387749E-04   2.7231480E+05   -1.7832450E+00
   2.1486520E-04   2.7008691E+05   -1.7826790E+00
   2.1585747E-04   2.6787794E+05   -1.7821127E+00
   2.1685432E-04   2.6568774E+05   -1.7815461E+00
   2.1785578E-04   2.6351613E+05   -1.7809791E+00
   2.1886186E-04   2.6136296E+05   -1.7804118E+00
   2.1987259E-04   2.5922805E+05   -1.7798442E+00
   2.2088798E-04   2.5711126E+05   -1.7792762E+00
   2.2190807E-04   2.5501242E+05   -1.7787080E+00
   2.2293286E-04   2.5293138E+05   -1.7781395E+00
   2.2396239E-04   2.5086797E+05   -1.7775706E+00
   2.2499667E-04   2.4882205E+05   -1.7770015E+00
   2.2603573E-04   2.4679347E+05   -1.7764321E+00
   2.2707958E-04   2.4478206E+05   -1.7758624E+00
   2.2812826E-04   2.4278769E+05   -1.7752925E+00
   2.2918178E-04   2.4081019E+05   -1.7747222E+00
   2.3024017E-04   2.3884943E+05   -1.7741518E+00
   2.3130344E-04   2.3690526E+05   -1.7735810E+00
   2.3237162E-04   2.3497753E+05   -1.7730100E+00
   2.3344474E-04   2.3306610E+05   -1.7724388E+00
   2.3452281E-04   2.3117083E+05   -1.7718673E+00
   2.3560586E-04   2.2929158E+05   -1.7712956E+00
   2.3669392E-04   2.2742820E+05   -1.7707237E+00
   2.3778699E-04   2.2558056E+05   -1.7701516E+00
   2.3888512E-04   2.2374852E+05   -1.7695792E+00
   2.3998831E-04   2.2193194E+05   -1.7690067E+00
   2.4109661E-04   2.2013069E+05   -1.7684339E+00
   2.4221001E-04   2.1834464E+05   -1.7678610E+00
   2.4332857E-04   2.1657365E+05   -1.7672878E+00
   2.4445228E-04   2.1481759E+05   -1.7667145E+00
   2.4558119E-04   2.1307634E+05   -1.7661410E+00
   2.4671531E-04   2.1134975E+05   -1.7655673E+00
   2.4785467E-04   2.0963772E+05   -1.7649935E+00
   2.4899928E-04   2.0794010E+05   -1.7644195E+00
   2.5014919E-04   2.0625677E+05   -1.7638453E+00
   2.5130440E-04   2.0458761E+05   -1.7632710E+00
   2.5246495E-04   2.0293250E+05   -1.7626966E+00
   2.5363086E-04   2.0129131E+05   -1.7621220E+00
   2.5480216E-04   1.9966392E+05   -1.7615473E+00
   2.5597886E-04   1.9805021E+05   -1.7609725E+00
   2.5716100E-04   1.9645006E+05   -1.7603975E+00
   2.5834859E-04   1.9486336E+05   -1.7598225E+00
   2.5954168E-04   1.9328999E+05   -1.7592473E+00
   2.6074027E-04   1.9172983E+05   -1.7586721E+00
   2.6194439E-04   1.9018276E+05   -1.7580967E+00
   2.6315408E-04   1.8864868E+05   -1.7575213E+00
   2.6436935E-04   1.8712747E+05   -1.7569457E+00
   2.6559024E-04   1.8561902E+05   -1.7563702E+00
   2.6681676E-04   1.8412322E+05   -1.7557945E+00
   2.6804895E-04   1.8263996E+05   -1.7552188E+00
   2.6928683E-04   1.8116912E+05   -1.7546430E+00
   2.7053042E-04   1.7971061E+05   -1.7540672E+00
   2.7177976E-04   1.7826431E+05   -1.7534913E+00
   2.7303487E-04   1.7683012E+05   -1.7529154E+00
   2.7429577E-04   1.7540793E+05   -1.7523395E+00
   2.7556250E-04   1.7399765E+05   -1.7517635E+00
   2.7683507E-04   1.7259916E+05   -1.7511875E+00
   2.7811353E-04   1.7121236E+05   -1.7506115E+00
   2.7939788E-04   1.6983716E+05   -1.7500355E+00
   2.8068817E-04   1.6847345E+05   -1.7494595E+00
   2.8198442E-04   1.6712114E+05   -1.7488835E+00
   2.8328665E-04   1.6578012E+05   -1.7483075E+00
   2.8459490E-04   1.6445029E+05   -1.7477316E+00
   2.8590919E-04   1.6313157E+05   -1.7471556E+00
   2.8722955E-04   1.6182385E+05   -1.7465797E+00
   2.8855600E-04   1.6052704E+05   -1.7460038E+00
   2.8988859E-04   1.5924105E+05   -1.7454280E+00
   2.9122732E-04   1.5796577E+05   -1.7448522E+00
   2.9257224E-04   1.5670113E+05   -1.7442765E+00
   2.9392337E-04   1.5544702E+05   -1.7437008E+00
   2.9528074E-04   1.5420336E+05   -1.7431252E+00
   2.9664438E-04   1.5297005E+05   -1.7425496E+00
   2.9801431E-04   1.5174701E+05   -1.7419742E+00
   2.9939057E-04   1.5053415E+05   -1.7413988E+00
   3.0077319E-04   1.4933138E+05   -1.7408235E+00
   3.0216219E-04   1.4813861E+05   -1.7402483E+00
   3.0355761E-04   1.4695575E+05   -1.7396732E+00
   3.0495947E-04   1.4578273E+05   -1.7390983E+00
   3.0636780E-04   1.4461945E+05   -1.7385234E+00
   3.0778264E-04   1.4346584E+05   -1.7379487E+00
   3.0920401E-04   1.4232181E+05   -1.7373741E+00
   3.1063195E-04   1.4118727E+05   -1.7367996E+00
   3.1206648E-04   1.4006214E+05   -1.7362252E+00
   3.1350764E-04   1.3894635E+05   -1.7356510E+00
   3.1495545E-04   1.3783982E+05   -1.7350770E+00
   3.1640994E-04   1.3674246E+05   -1.7345031E+00
   3.1787116E-04   1.3565419E+05   -1.7339294E+00
   3.1933912E-04   1.3457494E+05   -1.7333558E+00
   3.2081386E-04   1.3350463E+05   -1.7327825E+00
   3.2229541E-04   1.3244318E+05   -1.7322093E+00
   3.2378381E-04   1.3139052E+05   -1.7316362E+00
   3.2527908E-04   1.3034656E+05   -1.7310634E+00
   3.2678125E-04   1.2931125E+05   -1.7304908E+00
   3.2829036E-04   1.2828449E+05   -1.7299184E+00
   3.2980644E-04   1.2726623E+05   -1.7293462E+00
   3.3132952E-04   1.2625637E+05   -1.7287742E+00
   3.3285963E-04   1.2525487E+05   -1.7282025E+00
   3.3439681E-04   1.2426163E+05   -1.7276309E+00
   3.3594109E-04   1.2327659E+05   -1.7270596E+00
   3.3749250E-04   1.2229969E+05   -1.7264886E+00
   3.3905108E-04   1.2133084E+05   -1.7259178E+00
   3.4061685E-04   1.2036999E+05   -1.7253472E+00
   3.4218986E-04   1.1941706E+05   -1.7247769E+00
   3.4377013E-04   1.1847199E+05   -1.7242069E+00
   3.4535769E-04   1.1753470E+05   -1.7236371E+00
   3.4695259E-04   1.1660513E+05   -1.7230676E+00
   3.4855485E-04   1.1568322E+05   -1.7224984E+00
   3.5016452E-04   1.1476890E+05   -1.7219295E+00
   3.5178161E-04   1.1386211E+05   -1.7213609E+00
   3.5340618E-04   1.1296277E+05   -1.7207926E+00
   3.5503824E-04   1.1207083E+05   -1.7202245E+00
   3.5667785E-04   1.1118623E+05   -1.7196568E+00
   3.5832502E-04   1.1030890E+05   -1.7190895E+00
   3.5997981E-04   1.0943877E+05   -1.7185224E+00
   3.6164223E-04   1.0857579E+05   -1.7179556E+00
   3.6331233E-04   1.0771990E+05   -1.7173892E+00
   3.6499015E-04   1.0687103E+05   -1.7168232E+00
   3.6667571E-04   1.0602913E+05   -1.7162574E+00
   3.6836906E-04   1.0519414E+05   -1.7156921E+00
   3.7007022E-04   1.0436599E+05   -1.7151271E+00
   3.7177925E-04   1.0354464E+05   -1.7145624E+00
   3.7349616E-04   1.0273001E+05   -1.7139981E+00
   3.7522101E-04   1.0192206E+05   -1.7134342E+00
   3.7695382E-04   1.0112072E+05   -1.7128707E+00
   3.7869463E-04   1.0032595E+05   -1.7123075E+00
   3.8044348E-04   9.9537679E+04   -1.7117448E+00
   3.8220041E-04   9.8755859E+04   -1.7111824E+00
   3.8396545E-04   9.7980434E+04   -1.7106205E+00
   3.8573864E-04   9.7211348E+04   -1.7100589E+00
   3.8752002E-04   9.6448549E+04   -1.7094978E+00
   3.8930963E-04   9.5691983E+04   -1.7089371E+00
   3.9110750E-04   9.4941597E+04   -1.7083768E+00
   3.9291368E-04   9.4197338E+04   -1.7078169E+00
   3.9472820E-04   9.3459154E+04   -1.7072575E+00
   3.9655109E-04   9.2726994E+04   -1.7066985E+00
   3.9838241E-04   9.2000807E+04   -1.7061399E+00
   4.0022218E-04   9.1280541E+04   -1.7055818E+00
   4.0207045E-04   9.0566148E+04   -1.7050242E+00
   4.0392725E-04   8.9857576E+04   -1.7044670E+00
   4.0579263E-04   8.9154777E+04   -1.7039103E+00
   4.0766662E-04   8.8457701E+04   -1.7033540E+00
   4.0954927E-04   8.7766301E+04   -1.7027983E+00
   4.1144061E-04   8.7080527E+04   -1.7022430E+00
   4.1334068E-04   8.6400333E+04   -1.7016882E+00
   4.1524953E-04   8.5725671E+04   -1.7011339E+00
   4.1716720E-04   8.5056494E+04   -1.7005801E+00
   4.1909372E-04   8.4392755E+04   -1.7000268E+00
   4.2102914E-04   8.3734410E+04   -1.6994740E+00
   4.2297350E-04   8.3081412E+04   -1.6989217E+00
   4.2492683E-04   8.2433716E+04   -1.6983700E+00
   4.2688919E-04   8.1791277E+04   -1.6978187E+00
   4.2886061E-04   8.1154051E+04   -1.6972680E+00
   4.3084113E-04   8.0521994E+04   -1.6967178E+00
   4.3283080E-04   7.9895062E+04   -1.6961682E+00
   4.3482966E-04   7.9273212E+04   -1.6956191E+00
   4.3683775E-04   7.8656401E+04   -1.6950706E+00
   4.3885511E-04   7.8044586E+04   -1.6945226E+00
   4.4088179E-04   7.7437726E+04   -1.6939752E+00
   4.4291783E-04   7.6835778E+04   -1.6934283E+00
   4.4496327E-04   7.6238701E+04   -1.6928820E+00
   4.4701816E-04   7.5646454E+04   -1.6923363E+00
   4.4908253E-04   7.5058996E+04   -1.6917912E+00
   4.5115644E-04   7.4476288E+04   -1.6912466E+00
   4.5323993E-04   7.3898289E+04   -1.6907026E+00
   4.5533304E-04   7.3324959E+04   -1.6901593E+00
   4.5743582E-04   7.2756260E+04   -1.6896165E+00
   4.5954830E-04   7.2192151E+04   -1.6890743E+00
   4.6167054E-04   7.1632596E+04   -1.6885327E+00
   4.6380259E-04   7.1077554E+04   -1.6879918E+00
   4.6594448E-04   7.0526989E+04   -1.6874514E+00
   4.6809626E-04   6.9980863E+04   -1.6869117E+00
   4.7025797E-04   6.9439138E+04   -1.6863726E+00
   4.7242967E-04   6.8901777E+04   -1.6858342E+00
   4.7461140E-04   6.8368745E+04   -1.6852964E+00
   4.7680321E-04   6.7840004E+04   -1.6847592E+00
   4.7900514E-04   6.7315519E+04   -1.6842226E+00
   4.8121723E-04   6.6795254E+04   -1.6836867E+00
   4.8343954E-04   6.6279173E+04   -1.6831515E+00
   4.8567212E-04   6.5767242E+04   -1.6826169E+00
   4.8791500E-04   6.5259426E+04   -1.6820830E+00
   4.9016825E-04   6.4755690E+04   -1.6815498E+00
   4.9243189E-04   6.4256000E+04   -1.6810172E+00
   4.9470600E-04   6.3760322E+04   -1.6804853E+00
   4.9699060E-04   6.3268623E+04   -1.6799541E+00
   4.9928575E-04   6.2780869E+04   -1.6794235E+00
   5.0159151E-04   6.2297028E+04   -1.6788937E+00
   5.0390791E-04   6.1817066E+04   -1.6783645E+00
   5.0623501E-04   6.1340952E+04   -1.6778361E+00
   5.0857286E-04   6.0868652E+04   -1.6773083E+00
   5.1092150E-04   6.0400136E+04   -1.6767813E+00
   5.1328099E-04   5.9935372E+04   -1.6762549E+00
   5.1565137E-04   5.9474328E+04   -1.6757293E+00
   5.1803270E-04   5.9016974E+04   -1.6752044E+00
   5.2042503E-04   5.8563278E+04   -1.6746802E+00
   5.2282841E-04   5.8113210E+04   -1.6741567E+00
   5.2524289E-04   5.7666740E+04   -1.6736340E+00
   5.2766851E-04   5.7223837E+04   -1.6731120E+00
   5.3010534E-04   5.6784473E+04   -1.6725907E+00
   5.3255342E-04   5.6348618E+04   -1.6720702E+00
   5.3501281E-04   5.5916242E+04   -1.6715504E+00
   5.3748356E-04   5.5487316E+04   -1.6710314E+00
   5.3996571E-04   5.5061813E+04   -1.6705132E+00
   5.4245933E-04   5.4639702E+04   -1.6699956E+00
   5.4496446E-04   5.4220957E+04   -1.6694789E+00
   5.4748117E-04   5.3805549E+04   -1.6689629E+00
   5.5000949E-04   5.3393451E+04   -1.6684477E+00
   5.5254949E-04   5.2984634E+04   -1.6679333E+00
   5.5510123E-04   5.2579072E+04   -1.6674196E+00
   5.5766474E-04   5.2176738E+04   -1.6669067E+00
   5.6024010E-04   5.1777605E+04   -1.6663946E+00
   5.6282734E-04   5.1381646E+04   -1.6658833E+00
   5.6542654E-04   5.0988835E+04   -1.6653728E+00
   5.6803774E-04   5.0599146E+04   -1.6648630E+00
   5.7066099E-04   5.0212553E+04   -1.6643541E+00
   5.7329637E-04   4.9829031E+04   -1.6638460E+00
   5.7594391E-04   4.9448553E+04   -1.6633387E+00
   5.7860368E-04   4.9071096E+04   -1.6628321E+00
   5.8127573E-04   4.8696633E+04   -1.6623264E+00
   5.8396012E-04   4.8325140E+04   -1.6618215E+00
   5.8665691E-04   4.7956593E+04   -1.6613175E+00
   5.8936616E-04   4.7590967E+04   -1.6608142E+00
   5.9208791E-04   4.7228238E+04   -1.6603118E+00
   5.9482223E-04   4.6868382E+04   -1.6598102E+00
   5.9756919E-04   4.6511375E+04   -1.6593094E+00
   6.0032882E-04   4.6157194E+04   -1.6588095E+00
   6.0310120E-04   4.5805816E+04   -1.6583104E+00
   6.0588639E-04   4.5457217E+04   -1.6578122E+00
   6.0868443E-04   4.5111374E+04   -1.6573148E+00
   6.1149540E-04   4.4768265E+04   -1.6568182E+00
   6.1431935E-04   4.4427867E+04   -1.6563225E+00
   6.1715634E-04   4.4090158E+04   -1.6558277E+00
   6.2000644E-04   4.3755116E+04   -1.6553337E+00
   6.2286969E-04   4.3422719E+04   -1.6548405E+00
