#        a       HoverH0(a)       dlogHdloga_of_a(a)
   1.0000000E-04   1.0558021E+06   -1.8885620E+00
   1.0046181E-04   1.0466558E+06   -1.8881624E+00
   1.0092575E-04   1.0375907E+06   -1.8877619E+00
   1.0139184E-04   1.0286061E+06   -1.8873603E+00
   1.0186008E-04   1.0197011E+06   -1.8869577E+00
   1.0233048E-04   1.0108750E+06   -1.8865541E+00
   1.0280305E-04   1.0021273E+06   -1.8861495E+00
   1.0327781E-04   9.9345706E+05   -1.8857438E+00
   1.0375475E-04   9.8486370E+05   -1.8853372E+00
   1.0423390E-04   9.7634651E+05   -1.8849295E+00
   1.0471527E-04   9.6790480E+05   -1.8845208E+00
   1.0519885E-04   9.5953788E+05   -1.8841111E+00
   1.0568467E-04   9.5124509E+05   -1.8837004E+00
   1.0617274E-04   9.4302575E+05   -1.8832887E+00
   1.0666305E-04   9.3487921E+05   -1.8828759E+00
   1.0715563E-04   9.2680482E+05   -1.8824622E+00
   1.0765049E-04   9.1880191E+05   -1.8820474E+00
   1.0814763E-04   9.1086986E+05   -1.8816316E+00
   1.0864707E-04   9.0300801E+05   -1.8812148E+00
   1.0914881E-04   8.9521574E+05   -1.8807970E+00
   1.0965287E-04   8.8749242E+05   -1.8803782E+00
   1.1015926E-04   8.7983743E+05   -1.8799584E+00
   1.1066799E-04   8.7225016E+05   -1.8795376E+00
   1.1117906E-04   8.6472999E+05   -1.8791158E+00
   1.1169250E-04   8.5727633E+05   -1.8786929E+00
   1.1220831E-04   8.4988857E+05   -1.8782691E+00
   1.1272650E-04   8.4256613E+05   -1.8778442E+00
   1.1324708E-04   8.3530841E+05   -1.8774184E+00
   1.1377007E-04   8.2811484E+05   -1.8769916E+00
   1.1429547E-04   8.2098484E+05   -1.8765637E+00
   1.1482330E-04   8.1391783E+05   -1.8761349E+00
   1.1535356E-04   8.0691325E+05   -1.8757050E+00
   1.1588628E-04   7.9997053E+05   -1.8752742E+00
   1.1642145E-04   7.9308913E+05   -1.8748424E+00
   1.1695910E-04   7.8626848E+05   -1.8744095E+00
   1.1749923E-04   7.7950806E+05   -1.8739757E+00
   1.1804185E-04   7.7280730E+05   -1.8735409E+00
   1.1858698E-04   7.6616568E+05   -1.8731051E+00
   1.1913463E-04   7.5958267E+05   -1.8726683E+00
   1.1968481E-04   7.5305774E+05   -1.8722305E+00
   1.2023752E-04   7.4659036E+05   -1.8717917E+00
   1.2079279E-04   7.4018003E+05   -1.8713520E+00
   1.2135063E-04   7.3382623E+05   -1.8709112E+00
   1.2191104E-04   7.2752844E+05   -1.8704695E+00
   1.2247403E-04   7.2128618E+05   -1.8700268E+00
   1.2303963E-04   7.1509893E+05   -1.8695831E+00
   1.2360784E-04   7.0896621E+05   -1.8691384E+00
   1.2417868E-04   7.0288753E+05   -1.8686928E+00
   1.2475215E-04   6.9686239E+05   -1.8682462E+00
   1.2532826E-04   6.9089033E+05   -1.8677986E+00
   1.2590704E-04   6.8497086E+05   -1.8673500E+00
   1.2648850E-04   6.7910351E+05   -1.8669005E+00
   1.2707263E-04   6.7328782E+05   -1.8664499E+00
   1.2765947E-04   6.6752332E+05   -1.8659985E+00
   1.2824901E-04   6.6180955E+05   -1.8655460E+00
   1.2884128E-04   6.5614606E+05   -1.8650926E+00
   1.2943628E-04   6.5053240E+05   -1.8646382E+00
   1.3003403E-04   6.4496811E+05   -1.8641829E+00
   1.3063454E-04   6.3945277E+05   -1.8637266E+00
   1.3123783E-04   6.3398592E+05   -1.8632694E+00
   1.3184390E-04   6.2856713E+05   -1.8628111E+00
   1.3245277E-04   6.2319597E+05   -1.8623520E+00
   1.3306445E-04   6.1787202E+05   -1.8618919E+00
   1.3367895E-04   6.1259486E+05   -1.8614308E+00
   1.3429630E-04   6.0736405E+05   -1.8609688E+00
   1.3491649E-04   6.0217919E+05   -1.8605058E+00
   1.3553955E-04   5.9703987E+05   -1.8600419E+00
   1.3616548E-04   5.9194568E+05   -1.8595771E+00
   1.3679431E-04   5.8689622E+05   -1.8591113E+00
   1.3742604E-04   5.8189107E+05   -1.8586446E+00
   1.3806069E-04   5.7692985E+05   -1.8581769E+00
   1.3869827E-04   5.7201217E+05   -1.8577083E+00
   1.3933879E-04   5.6713763E+05   -1.8572388E+00
   1.3998227E-04   5.6230585E+05   -1.8567684E+00
   1.4062872E-04   5.5751644E+05   -1.8562970E+00
   1.4127816E-04   5.5276902E+05   -1.8558247E+00
   1.4193060E-04   5.4806323E+05   -1.8553515E+00
   1.4258605E-04   5.4339868E+05   -1.8548773E+00
   1.4324453E-04   5.3877501E+05   -1.8544023E+00
   1.4390605E-04   5.3419185E+05   -1.8539263E+00
   1.4457062E-04   5.2964884E+05   -1.8534494E+00
   1.4523826E-04   5.2514563E+05   -1.8529716E+00
   1.4590899E-04   5.2068185E+05   -1.8524929E+00
   1.4658281E-04   5.1625715E+05   -1.8520133E+00
   1.4725974E-04   5.1187118E+05   -1.8515328E+00
   1.4793981E-04   5.0752360E+05   -1.8510514E+00
   1.4862301E-04   5.0321406E+05   -1.8505690E+00
   1.4930936E-04   4.9894223E+05   -1.8500858E+00
   1.4999889E-04   4.9470776E+05   -1.8496017E+00
   1.5069160E-04   4.9051033E+05   -1.8491167E+00
   1.5138751E-04   4.8634959E+05   -1.8486309E+00
   1.5208663E-04   4.8222523E+05   -1.8481441E+00
   1.5278899E-04   4.7813692E+05   -1.8476565E+00
   1.5349458E-04   4.7408434E+05   -1.8471679E+00
   1.5420343E-04   4.7006717E+05   -1.8466785E+00
   1.5491556E-04   4.6608508E+05   -1.8461883E+00
   1.5563098E-04   4.6213778E+05   -1.8456971E+00
   1.5634970E-04   4.5822494E+05   -1.8452051E+00
   1.5707174E-04   4.5434626E+05   -1.8447123E+00
   1.5779711E-04   4.5050144E+05   -1.8442185E+00
   1.5852584E-04   4.4669017E+05   -1.8437239E+00
   1.5925792E-04   4.4291215E+05   -1.8432285E+00
   1.5999339E-04   4.3916709E+05   -1.8427322E+00
   1.6073226E-04   4.3545470E+05   -1.8422350E+00
   1.6147454E-04   4.3177467E+05   -1.8417370E+00
   1.6222024E-04   4.2812673E+05   -1.8412382E+00
   1.6296939E-04   4.2451059E+05   -1.8407385E+00
   1.6372200E-04   4.2092596E+05   -1.8402380E+00
   1.6447809E-04   4.1737256E+05   -1.8397367E+00
   1.6523767E-04   4.1385012E+05   -1.8392345E+00
   1.6600075E-04   4.1035835E+05   -1.8387315E+00
   1.6676736E-04   4.0689699E+05   -1.8382277E+00
   1.6753751E-04   4.0346577E+05   -1.8377230E+00
   1.6831122E-04   4.0006441E+05   -1.8372175E+00
   1.6908849E-04   3.9669264E+05   -1.8367113E+00
   1.6986936E-04   3.9335022E+05   -1.8362042E+00
   1.7065384E-04   3.9003686E+05   -1.8356963E+00
   1.7144193E-04   3.8675233E+05   -1.8351876E+00
   1.7223367E-04   3.8349635E+05   -1.8346781E+00
   1.7302906E-04   3.8026867E+05   -1.8341678E+00
   1.7382813E-04   3.7706905E+05   -1.8336567E+00
   1.7463089E-04   3.7389724E+05   -1.8331448E+00
   1.7543735E-04   3.7075298E+05   -1.8326322E+00
   1.7624754E-04   3.6763603E+05   -1.8321187E+00
   1.7706147E-04   3.6454614E+05   -1.8316045E+00
   1.7787916E-04   3.6148308E+05   -1.8310895E+00
   1.7870062E-04   3.5844662E+05   -1.8305738E+00
   1.7952588E-04   3.5543650E+05   -1.8300572E+00
   1.8035495E-04   3.5245250E+05   -1.8295399E+00
   1.8118785E-04   3.4949438E+05   -1.8290219E+00
   1.8202459E-04   3.4656192E+05   -1.8285031E+00
   1.8286520E-04   3.4365489E+05   -1.8279835E+00
   1.8370969E-04   3.4077306E+05   -1.8274632E+00
   1.8455808E-04   3.3791621E+05   -1.8269422E+00
   1.8541039E-04   3.3508411E+05   -1.8264204E+00
   1.8626663E-04   3.3227655E+05   -1.8258978E+00
   1.8712683E-04   3.2949330E+05   -1.8253746E+00
   1.8799100E-04   3.2673416E+05   -1.8248506E+00
   1.8885917E-04   3.2399890E+05   -1.8243259E+00
   1.8973134E-04   3.2128732E+05   -1.8238005E+00
   1.9060754E-04   3.1859920E+05   -1.8232743E+00
   1.9148778E-04   3.1593434E+05   -1.8227475E+00
   1.9237209E-04   3.1329253E+05   -1.8222199E+00
   1.9326049E-04   3.1067357E+05   -1.8216916E+00
   1.9415299E-04   3.0807725E+05   -1.8211627E+00
   1.9504960E-04   3.0550338E+05   -1.8206330E+00
   1.9595036E-04   3.0295175E+05   -1.8201027E+00
   1.9685528E-04   3.0042216E+05   -1.8195716E+00
   1.9776438E-04   2.9791443E+05   -1.8190399E+00
   1.9867768E-04   2.9542835E+05   -1.8185075E+00
   1.9959519E-04   2.9296374E+05   -1.8179745E+00
   2.0051694E-04   2.9052040E+05   -1.8174407E+00
   2.0144295E-04   2.8809815E+05   -1.8169063E+00
   2.0237324E-04   2.8569680E+05   -1.8163713E+00
   2.0330782E-04   2.8331616E+05   -1.8158355E+00
   2.0424671E-04   2.8095605E+05   -1.8152992E+00
   2.0518995E-04   2.7861630E+05   -1.8147622E+00
   2.0613754E-04   2.7629671E+05   -1.8142245E+00
   2.0708950E-04   2.7399711E+05   -1.8136862E+00
   2.0804586E-04   2.7171733E+05   -1.8131473E+00
   2.0900664E-04   2.6945719E+05   -1.8126078E+00
   2.0997185E-04   2.6721651E+05   -1.8120676E+00
   2.1094152E-04   2.6499512E+05   -1.8115268E+00
   2.1191567E-04   2.6279286E+05   -1.8109854E+00
   2.1289432E-04   2.6060954E+05   -1.8104434E+00
   2.1387749E-04   2.5844501E+05   -1.8099007E+00
   2.1486520E-04   2.5629911E+05   -1.8093575E+00
   2.1585747E-04   2.5417165E+05   -1.8088137E+00
   2.1685432E-04   2.5206249E+05   -1.8082693E+00
   2.1785578E-04   2.4997145E+05   -1.8077243E+00
   2.1886186E-04   2.4789839E+05   -1.8071787E+00
   2.1987259E-04   2.4584313E+05   -1.8066326E+00
   2.2088798E-04   2.4380553E+05   -1.8060859E+00
   2.2190807E-04   2.4178543E+05   -1.8055386E+00
   2.2293286E-04   2.3978267E+05   -1.8049908E+00
   2.2396239E-04   2.3779710E+05   -1.8044424E+00
   2.2499667E-04   2.3582857E+05   -1.8038934E+00
   2.2603573E-04   2.3387692E+05   -1.8033439E+00
   2.2707958E-04   2.3194202E+05   -1.8027939E+00
   2.2812826E-04   2.3002370E+05   -1.8022433E+00
   2.2918178E-04   2.2812183E+05   -1.8016922E+00
   2.3024017E-04   2.2623626E+05   -1.8011406E+00
   2.3130344E-04   2.2436685E+05   -1.8005884E+00
   2.3237162E-04   2.2251344E+05   -1.8000357E+00
   2.3344474E-04   2.2067592E+05   -1.7994826E+00
   2.3452281E-04   2.1885412E+05   -1.7989289E+00
   2.3560586E-04   2.1704792E+05   -1.7983747E+00
   2.3669392E-04   2.1525717E+05   -1.7978200E+00
   2.3778699E-04   2.1348175E+05   -1.7972649E+00
   2.3888512E-04   2.1172151E+05   -1.7967092E+00
   2.3998831E-04   2.0997632E+05   -1.7961531E+00
   2.4109661E-04   2.0824605E+05   -1.7955965E+00
   2.4221001E-04   2.0653057E+05   -1.7950394E+00
   2.4332857E-04   2.0482974E+05   -1.7944819E+00
   2.4445228E-04   2.0314345E+05   -1.7939239E+00
   2.4558119E-04   2.0147155E+05   -1.7933654E+00
   2.4671531E-04   1.9981393E+05   -1.7928065E+00
   2.4785467E-04   1.9817046E+05   -1.7922472E+00
   2.4899928E-04   1.9654101E+05   -1.7916874E+00
   2.5014919E-04   1.9492547E+05   -1.7911272E+00
   2.5130440E-04   1.9332370E+05   -1.7905666E+00
   2.5246495E-04   1.9173559E+05   -1.7900056E+00
   2.5363086E-04   1.9016102E+05   -1.7894441E+00
   2.5480216E-04   1.8859987E+05   -1.7888822E+00
   2.5597886E-04   1.8705201E+05   -1.7883200E+00
   2.5716100E-04   1.8551735E+05   -1.7877573E+00
   2.5834859E-04   1.8399575E+05   -1.7871942E+00
   2.5954168E-04   1.8248710E+05   -1.7866308E+00
   2.6074027E-04   1.8099129E+05   -1.7860670E+00
   2.6194439E-04   1.7950821E+05   -1.7855028E+00
   2.6315408E-04   1.7803775E+05   -1.7849382E+00
   2.6436935E-04   1.7657979E+05   -1.7843733E+00
   2.6559024E-04   1.7513423E+05   -1.7838080E+00
   2.6681676E-04   1.7370095E+05   -1.7832423E+00
   2.6804895E-04   1.7227986E+05   -1.7826763E+00
   2.6928683E-04   1.7087083E+05   -1.7821100E+00
   2.7053042E-04   1.6947377E+05   -1.7815433E+00
   2.7177976E-04   1.6808857E+05   -1.7809763E+00
   2.7303487E-04   1.6671513E+05   -1.7804090E+00
   2.7429577E-04   1.6535335E+05   -1.7798413E+00
   2.7556250E-04   1.6400312E+05   -1.7792734E+00
   2.7683507E-04   1.6266433E+05   -1.7787051E+00
   2.7811353E-04   1.6133690E+05   -1.7781365E+00
   2.7939788E-04   1.6002073E+05   -1.7775677E+00
   2.8068817E-04   1.5871570E+05   -1.7769985E+00
   2.8198442E-04   1.5742173E+05   -1.7764291E+00
   2.8328665E-04   1.5613872E+05   -1.7758594E+00
   2.8459490E-04   1.5486658E+05   -1.7752894E+00
   2.8590919E-04   1.5360520E+05   -1.7747191E+00
   2.8722955E-04   1.5235449E+05   -1.7741486E+00
   2.8855600E-04   1.5111437E+05   -1.7735778E+00
   2.8988859E-04   1.4988474E+05   -1.7730068E+00
   2.9122732E-04   1.4866550E+05   -1.7724356E+00
   2.9257224E-04   1.4745657E+05   -1.7718641E+00
   2.9392337E-04   1.4625785E+05   -1.7712923E+00
   2.9528074E-04   1.4506926E+05   -1.7707204E+00
   2.9664438E-04   1.4389071E+05   -1.7701482E+00
   2.9801431E-04   1.4272212E+05   -1.7695758E+00
   2.9939057E-04   1.4156338E+05   -1.7690032E+00
   3.0077319E-04   1.4041442E+05   -1.7684305E+00
   3.0216219E-04   1.3927516E+05   -1.7678575E+00
   3.0355761E-04   1.3814550E+05   -1.7672843E+00
   3.0495947E-04   1.3702537E+05   -1.7667109E+00
   3.0636780E-04   1.3591468E+05   -1.7661374E+00
   3.0778264E-04   1.3481335E+05   -1.7655637E+00
   3.0920401E-04   1.3372130E+05   -1.7649898E+00
   3.1063195E-04   1.3263844E+05   -1.7644158E+00
   3.1206648E-04   1.3156470E+05   -1.7638416E+00
   3.1350764E-04   1.3050000E+05   -1.7632673E+00
   3.1495545E-04   1.2944426E+05   -1.7626928E+00
   3.1640994E-04   1.2839740E+05   -1.7621182E+00
   3.1787116E-04   1.2735934E+05   -1.7615434E+00
   3.1933912E-04   1.2633001E+05   -1.7609686E+00
   3.2081386E-04   1.2530933E+05   -1.7603936E+00
   3.2229541E-04   1.2429722E+05   -1.7598185E+00
   3.2378381E-04   1.2329362E+05   -1.7592433E+00
   3.2527908E-04   1.2229845E+05   -1.7586680E+00
   3.2678125E-04   1.2131162E+05   -1.7580926E+00
   3.2829036E-04   1.2033308E+05   -1.7575172E+00
   3.2980644E-04   1.1936275E+05   -1.7569416E+00
   3.3132952E-04   1.1840056E+05   -1.7563660E+00
   3.3285963E-04   1.1744644E+05   -1.7557903E+00
   3.3439681E-04   1.1650031E+05   -1.7552145E+00
   3.3594109E-04   1.1556211E+05   -1.7546387E+00
   3.3749250E-04   1.1463178E+05   -1.7540629E+00
   3.3905108E-04   1.1370923E+05   -1.7534869E+00
   3.4061685E-04   1.1279441E+05   -1.7529110E+00
   3.4218986E-04   1.1188724E+05   -1.7523350E+00
   3.4377013E-04   1.1098767E+05   -1.7517590E+00
   3.4535769E-04   1.1009562E+05   -1.7511830E+00
   3.4695259E-04   1.0921103E+05   -1.7506070E+00
   3.4855485E-04   1.0833383E+05   -1.7500309E+00
   3.5016452E-04   1.0746397E+05   -1.7494549E+00
   3.5178161E-04   1.0660137E+05   -1.7488788E+00
   3.5340618E-04   1.0574597E+05   -1.7483028E+00
   3.5503824E-04   1.0489772E+05   -1.7477268E+00
   3.5667785E-04   1.0405655E+05   -1.7471508E+00
   3.5832502E-04   1.0322240E+05   -1.7465749E+00
   3.5997981E-04   1.0239521E+05   -1.7459989E+00
   3.6164223E-04   1.0157492E+05   -1.7454231E+00
   3.6331233E-04   1.0076146E+05   -1.7448472E+00
   3.6499015E-04   9.9954787E+04   -1.7442715E+00
   3.6667571E-04   9.9154833E+04   -1.7436957E+00
   3.6836906E-04   9.8361542E+04   -1.7431201E+00
   3.7007022E-04   9.7574856E+04   -1.7425445E+00
   3.7177925E-04   9.6794719E+04   -1.7419690E+00
   3.7349616E-04   9.6021073E+04   -1.7413936E+00
   3.7522101E-04   9.5253864E+04   -1.7408183E+00
   3.7695382E-04   9.4493035E+04   -1.7402430E+00
   3.7869463E-04   9.3738532E+04   -1.7396679E+00
   3.8044348E-04   9.2990300E+04   -1.7390929E+00
   3.8220041E-04   9.2248284E+04   -1.7385180E+00
   3.8396545E-04   9.1512432E+04   -1.7379432E+00
   3.8573864E-04   9.0782690E+04   -1.7373686E+00
   3.8752002E-04   9.0059006E+04   -1.7367940E+00
   3.8930963E-04   8.9341326E+04   -1.7362196E+00
   3.9110750E-04   8.8629601E+04   -1.7356454E+00
   3.9291368E-04   8.7923778E+04   -1.7350713E+00
   3.9472820E-04   8.7223807E+04   -1.7344974E+00
   3.9655109E-04   8.6529637E+04   -1.7339236E+00
   3.9838241E-04   8.5841218E+04   -1.7333500E+00
   4.0022218E-04   8.5158501E+04   -1.7327766E+00
   4.0207045E-04   8.4481438E+04   -1.7322034E+00
   4.0392725E-04   8.3809979E+04   -1.7316303E+00
   4.0579263E-04   8.3144076E+04   -1.7310574E+00
   4.0766662E-04   8.2483682E+04   -1.7304848E+00
   4.0954927E-04   8.1828749E+04   -1.7299123E+00
   4.1144061E-04   8.1179230E+04   -1.7293401E+00
   4.1334068E-04   8.0535079E+04   -1.7287680E+00
   4.1524953E-04   7.9896250E+04   -1.7281962E+00
   4.1716720E-04   7.9262697E+04   -1.7276247E+00
   4.1909372E-04   7.8634375E+04   -1.7270533E+00
   4.2102914E-04   7.8011239E+04   -1.7264822E+00
   4.2297350E-04   7.7393245E+04   -1.7259113E+00
   4.2492683E-04   7.6780348E+04   -1.7253407E+00
   4.2688919E-04   7.6172506E+04   -1.7247704E+00
   4.2886061E-04   7.5569673E+04   -1.7242003E+00
   4.3084113E-04   7.4971809E+04   -1.7236305E+00
   4.3283080E-04   7.4378870E+04   -1.7230610E+00
   4.3482966E-04   7.3790814E+04   -1.7224917E+00
   4.3683775E-04   7.3207599E+04   -1.7219227E+00
   4.3885511E-04   7.2629184E+04   -1.7213541E+00
   4.4088179E-04   7.2055527E+04   -1.7207857E+00
   4.4291783E-04   7.1486589E+04   -1.7202176E+00
   4.4496327E-04   7.0922329E+04   -1.7196499E+00
   4.4701816E-04   7.0362706E+04   -1.7190824E+00
   4.4908253E-04   6.9807682E+04   -1.7185153E+00
   4.5115644E-04   6.9257217E+04   -1.7179485E+00
   4.5323993E-04   6.8711272E+04   -1.7173821E+00
   4.5533304E-04   6.8169808E+04   -1.7168159E+00
   4.5743582E-04   6.7632787E+04   -1.7162502E+00
   4.5954830E-04   6.7100172E+04   -1.7156847E+00
   4.6167054E-04   6.6571925E+04   -1.7151197E+00
   4.6380259E-04   6.6048008E+04   -1.7145550E+00
   4.6594448E-04   6.5528385E+04   -1.7139906E+00
   4.6809626E-04   6.5013019E+04   -1.7134267E+00
   4.7025797E-04   6.4501873E+04   -1.7128631E+00
   4.7242967E-04   6.3994913E+04   -1.7122999E+00
   4.7461140E-04   6.3492102E+04   -1.7117371E+00
   4.7680321E-04   6.2993404E+04   -1.7111747E+00
   4.7900514E-04   6.2498785E+04   -1.7106126E+00
   4.8121723E-04   6.2008211E+04   -1.7100510E+00
   4.8343954E-04   6.1521647E+04   -1.7094898E+00
   4.8567212E-04   6.1039058E+04   -1.7089291E+00
   4.8791500E-04   6.0560412E+04   -1.7083687E+00
   4.9016825E-04   6.0085673E+04   -1.7078088E+00
   4.9243189E-04   5.9614810E+04   -1.7072493E+00
   4.9470600E-04   5.9147789E+04   -1.7066902E+00
   4.9699060E-04   5.8684578E+04   -1.7061316E+00
   4.9928575E-04   5.8225145E+04   -1.7055735E+00
   5.0159151E-04   5.7769457E+04   -1.7050158E+00
   5.0390791E-04   5.7317482E+04   -1.7044585E+00
   5.0623501E-04   5.6869189E+04   -1.7039018E+00
   5.0857286E-04   5.6424547E+04   -1.7033455E+00
   5.1092150E-04   5.5983526E+04   -1.7027896E+00
   5.1328099E-04   5.5546093E+04   -1.7022343E+00
   5.1565137E-04   5.5112220E+04   -1.7016794E+00
   5.1803270E-04   5.4681875E+04   -1.7011251E+00
   5.2042503E-04   5.4255029E+04   -1.7005712E+00
   5.2282841E-04   5.3831652E+04   -1.7000179E+00
   5.2524289E-04   5.3411715E+04   -1.6994650E+00
   5.2766851E-04   5.2995189E+04   -1.6989127E+00
   5.3010534E-04   5.2582045E+04   -1.6983608E+00
   5.3255342E-04   5.2172255E+04   -1.6978095E+00
   5.3501281E-04   5.1765789E+04   -1.6972588E+00
   5.3748356E-04   5.1362620E+04   -1.6967085E+00
   5.3996571E-04   5.0962721E+04   -1.6961588E+00
   5.4245933E-04   5.0566063E+04   -1.6956097E+00
   5.4496446E-04   5.0172620E+04   -1.6950611E+00
   5.4748117E-04   4.9782363E+04   -1.6945130E+00
   5.5000949E-04   4.9395267E+04   -1.6939656E+00
   5.5254949E-04   4.9011304E+04   -1.6934186E+00
   5.5510123E-04   4.8630448E+04   -1.6928723E+00
   5.5766474E-04   4.8252673E+04   -1.6923265E+00
   5.6024010E-04   4.7877954E+04   -1.6917813E+00
   5.6282734E-04   4.7506263E+04   -1.6912367E+00
   5.6542654E-04   4.7137576E+04   -1.6906926E+00
   5.6803774E-04   4.6771868E+04   -1.6901492E+00
   5.7066099E-04   4.6409113E+04   -1.6896063E+00
   5.7329637E-04   4.6049287E+04   -1.6890641E+00
   5.7594391E-04   4.5692364E+04   -1.6885225E+00
   5.7860368E-04   4.5338322E+04   -1.6879814E+00
   5.8127573E-04   4.4987134E+04   -1.6874410E+00
   5.8396012E-04   4.4638778E+04   -1.6869012E+00
   5.8665691E-04   4.4293230E+04   -1.6863621E+00
   5.8936616E-04   4.3950465E+04   -1.6858236E+00
   5.9208791E-04   4.3610461E+04   -1.6852857E+00
   5.9482223E-04   4.3273195E+04   -1.6847484E+00
   5.9756919E-04   4.2938643E+04   -1.6842118E+00
   6.0032882E-04   4.2606783E+04   -1.6836758E+00
   6.0310120E-04   4.2277592E+04   -1.6831405E+00
   6.0588639E-04   4.1951048E+04   -1.6826059E+00
   6.0868443E-04   4.1627128E+04   -1.6820719E+00
   6.1149540E-04   4.1305811E+04   -1.6815386E+00
   6.1431935E-04   4.0987075E+04   -1.6810059E+00
   6.1715634E-04   4.0670899E+04   -1.6804740E+00
   6.2000644E-04   4.0357260E+04   -1.6799427E+00
   6.2286969E-04   4.0046138E+04   -1.6794121E+00
