#        a       HoverH0(a)       dlogHdloga_of_a(a)
   1.0000000E-04   1.1437233E+06   -1.8742944E+00
   1.0046181E-04   1.1338901E+06   -1.8738603E+00
   1.0092575E-04   1.1241436E+06   -1.8734252E+00
   1.0139184E-04   1.1144832E+06   -1.8729892E+00
   1.0186008E-04   1.1049079E+06   -1.8725521E+00
   1.0233048E-04   1.0954172E+06   -1.8721141E+00
   1.0280305E-04   1.0860102E+06   -1.8716750E+00
   1.0327781E-04   1.0766861E+06   -1.8712350E+00
   1.0375475E-04   1.0674443E+06   -1.8707940E+00
   1.0423390E-04   1.0582839E+06   -1.8703520E+00
   1.0471527E-04   1.0492043E+06   -1.8699091E+00
   1.0519885E-04   1.0402047E+06   -1.8694651E+00
   1.0568467E-04   1.0312844E+06   -1.8690202E+00
   1.0617274E-04   1.0224427E+06   -1.8685743E+00
   1.0666305E-04   1.0136789E+06   -1.8681274E+00
   1.0715563E-04   1.0049923E+06   -1.8676796E+00
   1.0765049E-04   9.9638222E+05   -1.8672307E+00
   1.0814763E-04   9.8784792E+05   -1.8667810E+00
   1.0864707E-04   9.7938875E+05   -1.8663302E+00
   1.0914881E-04   9.7100403E+05   -1.8658785E+00
   1.0965287E-04   9.6269311E+05   -1.8654258E+00
   1.1015926E-04   9.5445531E+05   -1.8649721E+00
   1.1066799E-04   9.4628998E+05   -1.8645175E+00
   1.1117906E-04   9.3819648E+05   -1.8640619E+00
   1.1169250E-04   9.3017415E+05   -1.8636054E+00
   1.1220831E-04   9.2222236E+05   -1.8631479E+00
   1.1272650E-04   9.1434048E+05   -1.8626894E+00
   1.1324708E-04   9.0652787E+05   -1.8622300E+00
   1.1377007E-04   8.9878393E+05   -1.8617696E+00
   1.1429547E-04   8.9110804E+05   -1.8613083E+00
   1.1482330E-04   8.8349958E+05   -1.8608461E+00
   1.1535356E-04   8.7595794E+05   -1.8603829E+00
   1.1588628E-04   8.6848254E+05   -1.8599187E+00
   1.1642145E-04   8.6107278E+05   -1.8594536E+00
   1.1695910E-04   8.5372806E+05   -1.8589876E+00
   1.1749923E-04   8.4644782E+05   -1.8585207E+00
   1.1804185E-04   8.3923146E+05   -1.8580528E+00
   1.1858698E-04   8.3207842E+05   -1.8575839E+00
   1.1913463E-04   8.2498814E+05   -1.8571142E+00
   1.1968481E-04   8.1796004E+05   -1.8566435E+00
   1.2023752E-04   8.1099358E+05   -1.8561719E+00
   1.2079279E-04   8.0408820E+05   -1.8556993E+00
   1.2135063E-04   7.9724335E+05   -1.8552259E+00
   1.2191104E-04   7.9045850E+05   -1.8547515E+00
   1.2247403E-04   7.8373310E+05   -1.8542762E+00
   1.2303963E-04   7.7706663E+05   -1.8538000E+00
   1.2360784E-04   7.7045856E+05   -1.8533228E+00
   1.2417868E-04   7.6390836E+05   -1.8528448E+00
   1.2475215E-04   7.5741551E+05   -1.8523659E+00
   1.2532826E-04   7.5097951E+05   -1.8518860E+00
   1.2590704E-04   7.4459985E+05   -1.8514053E+00
   1.2648850E-04   7.3827602E+05   -1.8509236E+00
   1.2707263E-04   7.3200753E+05   -1.8504411E+00
   1.2765947E-04   7.2579387E+05   -1.8499577E+00
   1.2824901E-04   7.1963457E+05   -1.8494733E+00
   1.2884128E-04   7.1352912E+05   -1.8489881E+00
   1.2943628E-04   7.0747706E+05   -1.8485020E+00
   1.3003403E-04   7.0147791E+05   -1.8480150E+00
   1.3063454E-04   6.9553119E+05   -1.8475272E+00
   1.3123783E-04   6.8963643E+05   -1.8470384E+00
   1.3184390E-04   6.8379317E+05   -1.8465488E+00
   1.3245277E-04   6.7800095E+05   -1.8460583E+00
   1.3306445E-04   6.7225932E+05   -1.8455669E+00
   1.3367895E-04   6.6656782E+05   -1.8450747E+00
   1.3429630E-04   6.6092601E+05   -1.8445816E+00
   1.3491649E-04   6.5533344E+05   -1.8440877E+00
   1.3553955E-04   6.4978967E+05   -1.8435928E+00
   1.3616548E-04   6.4429427E+05   -1.8430972E+00
   1.3679431E-04   6.3884680E+05   -1.8426007E+00
   1.3742604E-04   6.3344685E+05   -1.8421033E+00
   1.3806069E-04   6.2809398E+05   -1.8416051E+00
   1.3869827E-04   6.2278777E+05   -1.8411060E+00
   1.3933879E-04   6.1752781E+05   -1.8406062E+00
   1.3998227E-04   6.1231369E+05   -1.8401054E+00
   1.4062872E-04   6.0714499E+05   -1.8396039E+00
   1.4127816E-04   6.0202132E+05   -1.8391015E+00
   1.4193060E-04   5.9694227E+05   -1.8385983E+00
   1.4258605E-04   5.9190744E+05   -1.8380942E+00
   1.4324453E-04   5.8691644E+05   -1.8375894E+00
   1.4390605E-04   5.8196888E+05   -1.8370837E+00
   1.4457062E-04   5.7706438E+05   -1.8365772E+00
   1.4523826E-04   5.7220254E+05   -1.8360699E+00
   1.4590899E-04   5.6738299E+05   -1.8355618E+00
   1.4658281E-04   5.6260536E+05   -1.8350529E+00
   1.4725974E-04   5.5786926E+05   -1.8345432E+00
   1.4793981E-04   5.5317433E+05   -1.8340327E+00
   1.4862301E-04   5.4852021E+05   -1.8335215E+00
   1.4930936E-04   5.4390652E+05   -1.8330094E+00
   1.4999889E-04   5.3933292E+05   -1.8324965E+00
   1.5069160E-04   5.3479903E+05   -1.8319829E+00
   1.5138751E-04   5.3030452E+05   -1.8314685E+00
   1.5208663E-04   5.2584903E+05   -1.8309533E+00
   1.5278899E-04   5.2143221E+05   -1.8304373E+00
   1.5349458E-04   5.1705372E+05   -1.8299206E+00
   1.5420343E-04   5.1271321E+05   -1.8294031E+00
   1.5491556E-04   5.0841036E+05   -1.8288849E+00
   1.5563098E-04   5.0414482E+05   -1.8283659E+00
   1.5634970E-04   4.9991627E+05   -1.8278462E+00
   1.5707174E-04   4.9572437E+05   -1.8273257E+00
   1.5779711E-04   4.9156880E+05   -1.8268044E+00
   1.5852584E-04   4.8744924E+05   -1.8262825E+00
   1.5925792E-04   4.8336537E+05   -1.8257597E+00
   1.5999339E-04   4.7931686E+05   -1.8252363E+00
   1.6073226E-04   4.7530341E+05   -1.8247121E+00
   1.6147454E-04   4.7132471E+05   -1.8241872E+00
   1.6222024E-04   4.6738044E+05   -1.8236616E+00
   1.6296939E-04   4.6347030E+05   -1.8231353E+00
   1.6372200E-04   4.5959399E+05   -1.8226083E+00
   1.6447809E-04   4.5575121E+05   -1.8220806E+00
   1.6523767E-04   4.5194166E+05   -1.8215521E+00
   1.6600075E-04   4.4816504E+05   -1.8210230E+00
   1.6676736E-04   4.4442107E+05   -1.8204931E+00
   1.6753751E-04   4.4070945E+05   -1.8199626E+00
   1.6831122E-04   4.3702990E+05   -1.8194314E+00
   1.6908849E-04   4.3338213E+05   -1.8188995E+00
   1.6986936E-04   4.2976586E+05   -1.8183670E+00
   1.7065384E-04   4.2618081E+05   -1.8178338E+00
   1.7144193E-04   4.2262671E+05   -1.8172999E+00
   1.7223367E-04   4.1910328E+05   -1.8167653E+00
   1.7302906E-04   4.1561024E+05   -1.8162301E+00
   1.7382813E-04   4.1214734E+05   -1.8156942E+00
   1.7463089E-04   4.0871430E+05   -1.8151577E+00
   1.7543735E-04   4.0531086E+05   -1.8146205E+00
   1.7624754E-04   4.0193676E+05   -1.8140827E+00
   1.7706147E-04   3.9859173E+05   -1.8135443E+00
   1.7787916E-04   3.9527552E+05   -1.8130052E+00
   1.7870062E-04   3.9198787E+05   -1.8124655E+00
   1.7952588E-04   3.8872854E+05   -1.8119252E+00
   1.8035495E-04   3.8549727E+05   -1.8113842E+00
   1.8118785E-04   3.8229381E+05   -1.8108427E+00
   1.8202459E-04   3.7911792E+05   -1.8103005E+00
   1.8286520E-04   3.7596935E+05   -1.8097577E+00
   1.8370969E-04   3.7284787E+05   -1.8092144E+00
   1.8455808E-04   3.6975322E+05   -1.8086704E+00
   1.8541039E-04   3.6668518E+05   -1.8081259E+00
   1.8626663E-04   3.6364351E+05   -1.8075807E+00
   1.8712683E-04   3.6062798E+05   -1.8070350E+00
   1.8799100E-04   3.5763836E+05   -1.8064887E+00
   1.8885917E-04   3.5467441E+05   -1.8059419E+00
   1.8973134E-04   3.5173591E+05   -1.8053945E+00
   1.9060754E-04   3.4882264E+05   -1.8048465E+00
   1.9148778E-04   3.4593437E+05   -1.8042980E+00
   1.9237209E-04   3.4307088E+05   -1.8037489E+00
   1.9326049E-04   3.4023196E+05   -1.8031993E+00
   1.9415299E-04   3.3741738E+05   -1.8026491E+00
   1.9504960E-04   3.3462694E+05   -1.8020984E+00
   1.9595036E-04   3.3186042E+05   -1.8015472E+00
   1.9685528E-04   3.2911760E+05   -1.8009954E+00
   1.9776438E-04   3.2639829E+05   -1.8004431E+00
   1.9867768E-04   3.2370227E+05   -1.7998904E+00
   1.9959519E-04   3.2102933E+05   -1.7993371E+00
   2.0051694E-04   3.1837928E+05   -1.7987833E+00
   2.0144295E-04   3.1575190E+05   -1.7982290E+00
   2.0237324E-04   3.1314702E+05   -1.7976742E+00
   2.0330782E-04   3.1056441E+05   -1.7971189E+00
   2.0424671E-04   3.0800389E+05   -1.7965631E+00
   2.0518995E-04   3.0546527E+05   -1.7960069E+00
   2.0613754E-04   3.0294834E+05   -1.7954502E+00
   2.0708950E-04   3.0045293E+05   -1.7948930E+00
   2.0804586E-04   2.9797884E+05   -1.7943354E+00
   2.0900664E-04   2.9552588E+05   -1.7937773E+00
   2.0997185E-04   2.9309386E+05   -1.7932187E+00
   2.1094152E-04   2.9068261E+05   -1.7926598E+00
   2.1191567E-04   2.8829194E+05   -1.7921003E+00
   2.1289432E-04   2.8592166E+05   -1.7915405E+00
   2.1387749E-04   2.8357161E+05   -1.7909802E+00
   2.1486520E-04   2.8124160E+05   -1.7904195E+00
   2.1585747E-04   2.7893145E+05   -1.7898583E+00
   2.1685432E-04   2.7664100E+05   -1.7892968E+00
   2.1785578E-04   2.7437006E+05   -1.7887348E+00
   2.1886186E-04   2.7211847E+05   -1.7881725E+00
   2.1987259E-04   2.6988606E+05   -1.7876097E+00
   2.2088798E-04   2.6767266E+05   -1.7870466E+00
   2.2190807E-04   2.6547810E+05   -1.7864830E+00
   2.2293286E-04   2.6330221E+05   -1.7859191E+00
   2.2396239E-04   2.6114484E+05   -1.7853548E+00
   2.2499667E-04   2.5900581E+05   -1.7847902E+00
   2.2603573E-04   2.5688498E+05   -1.7842252E+00
   2.2707958E-04   2.5478218E+05   -1.7836598E+00
   2.2812826E-04   2.5269724E+05   -1.7830941E+00
   2.2918178E-04   2.5063003E+05   -1.7825280E+00
   2.3024017E-04   2.4858037E+05   -1.7819616E+00
   2.3130344E-04   2.4654811E+05   -1.7813949E+00
   2.3237162E-04   2.4453312E+05   -1.7808278E+00
   2.3344474E-04   2.4253522E+05   -1.7802604E+00
   2.3452281E-04   2.4055427E+05   -1.7796927E+00
   2.3560586E-04   2.3859013E+05   -1.7791247E+00
   2.3669392E-04   2.3664265E+05   -1.7785564E+00
   2.3778699E-04   2.3471168E+05   -1.7779877E+00
   2.3888512E-04   2.3279707E+05   -1.7774188E+00
   2.3998831E-04   2.3089869E+05   -1.7768496E+00
   2.4109661E-04   2.2901639E+05   -1.7762801E+00
   2.4221001E-04   2.2715003E+05   -1.7757104E+00
   2.4332857E-04   2.2529947E+05   -1.7751403E+00
   2.4445228E-04   2.2346457E+05   -1.7745700E+00
   2.4558119E-04   2.2164520E+05   -1.7739995E+00
   2.4671531E-04   2.1984122E+05   -1.7734286E+00
   2.4785467E-04   2.1805250E+05   -1.7728576E+00
   2.4899928E-04   2.1627890E+05   -1.7722863E+00
   2.5014919E-04   2.1452029E+05   -1.7717148E+00
   2.5130440E-04   2.1277654E+05   -1.7711430E+00
   2.5246495E-04   2.1104753E+05   -1.7705710E+00
   2.5363086E-04   2.0933311E+05   -1.7699988E+00
   2.5480216E-04   2.0763317E+05   -1.7694264E+00
   2.5597886E-04   2.0594757E+05   -1.7688538E+00
   2.5716100E-04   2.0427620E+05   -1.7682809E+00
   2.5834859E-04   2.0261893E+05   -1.7677079E+00
   2.5954168E-04   2.0097563E+05   -1.7671347E+00
   2.6074027E-04   1.9934619E+05   -1.7665613E+00
   2.6194439E-04   1.9773048E+05   -1.7659878E+00
   2.6315408E-04   1.9612839E+05   -1.7654141E+00
   2.6436935E-04   1.9453979E+05   -1.7648402E+00
   2.6559024E-04   1.9296456E+05   -1.7642661E+00
   2.6681676E-04   1.9140260E+05   -1.7636919E+00
   2.6804895E-04   1.8985379E+05   -1.7631176E+00
   2.6928683E-04   1.8831800E+05   -1.7625431E+00
   2.7053042E-04   1.8679514E+05   -1.7619685E+00
   2.7177976E-04   1.8528508E+05   -1.7613937E+00
   2.7303487E-04   1.8378771E+05   -1.7608189E+00
   2.7429577E-04   1.8230293E+05   -1.7602439E+00
   2.7556250E-04   1.8083062E+05   -1.7596688E+00
   2.7683507E-04   1.7937068E+05   -1.7590936E+00
   2.7811353E-04   1.7792299E+05   -1.7585183E+00
   2.7939788E-04   1.7648746E+05   -1.7579429E+00
   2.8068817E-04   1.7506398E+05   -1.7573674E+00
   2.8198442E-04   1.7365243E+05   -1.7567919E+00
   2.8328665E-04   1.7225273E+05   -1.7562163E+00
   2.8459490E-04   1.7086476E+05   -1.7556406E+00
   2.8590919E-04   1.6948842E+05   -1.7550649E+00
   2.8722955E-04   1.6812362E+05   -1.7544891E+00
   2.8855600E-04   1.6677024E+05   -1.7539132E+00
   2.8988859E-04   1.6542821E+05   -1.7533373E+00
   2.9122732E-04   1.6409740E+05   -1.7527614E+00
   2.9257224E-04   1.6277774E+05   -1.7521854E+00
   2.9392337E-04   1.6146911E+05   -1.7516095E+00
   2.9528074E-04   1.6017143E+05   -1.7510335E+00
   2.9664438E-04   1.5888461E+05   -1.7504575E+00
   2.9801431E-04   1.5760853E+05   -1.7498814E+00
   2.9939057E-04   1.5634313E+05   -1.7493054E+00
   3.0077319E-04   1.5508829E+05   -1.7487294E+00
   3.0216219E-04   1.5384393E+05   -1.7481534E+00
   3.0355761E-04   1.5260997E+05   -1.7475775E+00
   3.0495947E-04   1.5138630E+05   -1.7470015E+00
   3.0636780E-04   1.5017284E+05   -1.7464256E+00
   3.0778264E-04   1.4896950E+05   -1.7458497E+00
   3.0920401E-04   1.4777620E+05   -1.7452739E+00
   3.1063195E-04   1.4659285E+05   -1.7446981E+00
   3.1206648E-04   1.4541936E+05   -1.7441224E+00
   3.1350764E-04   1.4425564E+05   -1.7435467E+00
   3.1495545E-04   1.4310162E+05   -1.7429711E+00
   3.1640994E-04   1.4195720E+05   -1.7423956E+00
   3.1787116E-04   1.4082231E+05   -1.7418201E+00
   3.1933912E-04   1.3969687E+05   -1.7412448E+00
   3.2081386E-04   1.3858078E+05   -1.7406695E+00
   3.2229541E-04   1.3747398E+05   -1.7400943E+00
   3.2378381E-04   1.3637638E+05   -1.7395192E+00
   3.2527908E-04   1.3528790E+05   -1.7389443E+00
   3.2678125E-04   1.3420846E+05   -1.7383695E+00
   3.2829036E-04   1.3313799E+05   -1.7377947E+00
   3.2980644E-04   1.3207641E+05   -1.7372201E+00
   3.3132952E-04   1.3102363E+05   -1.7366457E+00
   3.3285963E-04   1.2997960E+05   -1.7360714E+00
   3.3439681E-04   1.2894422E+05   -1.7354972E+00
   3.3594109E-04   1.2791743E+05   -1.7349232E+00
   3.3749250E-04   1.2689915E+05   -1.7343493E+00
   3.3905108E-04   1.2588931E+05   -1.7337757E+00
   3.4061685E-04   1.2488784E+05   -1.7332021E+00
   3.4218986E-04   1.2389466E+05   -1.7326288E+00
   3.4377013E-04   1.2290970E+05   -1.7320556E+00
   3.4535769E-04   1.2193290E+05   -1.7314827E+00
   3.4695259E-04   1.2096417E+05   -1.7309099E+00
   3.4855485E-04   1.2000346E+05   -1.7303373E+00
   3.5016452E-04   1.1905070E+05   -1.7297650E+00
   3.5178161E-04   1.1810581E+05   -1.7291928E+00
   3.5340618E-04   1.1716873E+05   -1.7286209E+00
   3.5503824E-04   1.1623939E+05   -1.7280492E+00
   3.5667785E-04   1.1531772E+05   -1.7274777E+00
   3.5832502E-04   1.1440367E+05   -1.7269064E+00
   3.5997981E-04   1.1349716E+05   -1.7263354E+00
   3.6164223E-04   1.1259812E+05   -1.7257647E+00
   3.6331233E-04   1.1170651E+05   -1.7251942E+00
   3.6499015E-04   1.1082224E+05   -1.7246239E+00
   3.6667571E-04   1.0994526E+05   -1.7240540E+00
   3.6836906E-04   1.0907551E+05   -1.7234843E+00
   3.7007022E-04   1.0821293E+05   -1.7229148E+00
   3.7177925E-04   1.0735744E+05   -1.7223457E+00
   3.7349616E-04   1.0650900E+05   -1.7217768E+00
   3.7522101E-04   1.0566754E+05   -1.7212083E+00
   3.7695382E-04   1.0483300E+05   -1.7206400E+00
   3.7869463E-04   1.0400533E+05   -1.7200721E+00
   3.8044348E-04   1.0318446E+05   -1.7195044E+00
   3.8220041E-04   1.0237034E+05   -1.7189371E+00
   3.8396545E-04   1.0156291E+05   -1.7183701E+00
   3.8573864E-04   1.0076210E+05   -1.7178035E+00
   3.8752002E-04   9.9967876E+04   -1.7172371E+00
   3.8930963E-04   9.9180168E+04   -1.7166712E+00
   3.9110750E-04   9.8398923E+04   -1.7161055E+00
   3.9291368E-04   9.7624086E+04   -1.7155402E+00
   3.9472820E-04   9.6855603E+04   -1.7149753E+00
   3.9655109E-04   9.6093419E+04   -1.7144107E+00
   3.9838241E-04   9.5337482E+04   -1.7138465E+00
   4.0022218E-04   9.4587736E+04   -1.7132827E+00
   4.0207045E-04   9.3844131E+04   -1.7127193E+00
   4.0392725E-04   9.3106613E+04   -1.7121562E+00
   4.0579263E-04   9.2375131E+04   -1.7115935E+00
   4.0766662E-04   9.1649633E+04   -1.7110313E+00
   4.0954927E-04   9.0930068E+04   -1.7104694E+00
   4.1144061E-04   9.0216387E+04   -1.7099080E+00
   4.1334068E-04   8.9508538E+04   -1.7093469E+00
   4.1524953E-04   8.8806473E+04   -1.7087863E+00
   4.1716720E-04   8.8110142E+04   -1.7082261E+00
   4.1909372E-04   8.7419496E+04   -1.7076663E+00
   4.2102914E-04   8.6734487E+04   -1.7071070E+00
   4.2297350E-04   8.6055068E+04   -1.7065481E+00
   4.2492683E-04   8.5381191E+04   -1.7059897E+00
   4.2688919E-04   8.4712809E+04   -1.7054317E+00
   4.2886061E-04   8.4049874E+04   -1.7048741E+00
   4.3084113E-04   8.3392342E+04   -1.7043171E+00
   4.3283080E-04   8.2740167E+04   -1.7037605E+00
   4.3482966E-04   8.2093302E+04   -1.7032043E+00
   4.3683775E-04   8.1451702E+04   -1.7026487E+00
   4.3885511E-04   8.0815324E+04   -1.7020935E+00
   4.4088179E-04   8.0184123E+04   -1.7015388E+00
   4.4291783E-04   7.9558056E+04   -1.7009846E+00
   4.4496327E-04   7.8937077E+04   -1.7004310E+00
   4.4701816E-04   7.8321146E+04   -1.6998778E+00
   4.4908253E-04   7.7710218E+04   -1.6993251E+00
   4.5115644E-04   7.7104252E+04   -1.6987729E+00
   4.5323993E-04   7.6503206E+04   -1.6982213E+00
   4.5533304E-04   7.5907039E+04   -1.6976702E+00
   4.5743582E-04   7.5315708E+04   -1.6971196E+00
   4.5954830E-04   7.4729173E+04   -1.6965696E+00
   4.6167054E-04   7.4147393E+04   -1.6960201E+00
   4.6380259E-04   7.3570329E+04   -1.6954711E+00
   4.6594448E-04   7.2997941E+04   -1.6949227E+00
   4.6809626E-04   7.2430189E+04   -1.6943749E+00
   4.7025797E-04   7.1867034E+04   -1.6938276E+00
   4.7242967E-04   7.1308437E+04   -1.6932808E+00
   4.7461140E-04   7.0754360E+04   -1.6927347E+00
   4.7680321E-04   7.0204765E+04   -1.6921891E+00
   4.7900514E-04   6.9659614E+04   -1.6916441E+00
   4.8121723E-04   6.9118870E+04   -1.6910997E+00
   4.8343954E-04   6.8582495E+04   -1.6905558E+00
   4.8567212E-04   6.8050453E+04   -1.6900126E+00
   4.8791500E-04   6.7522708E+04   -1.6894700E+00
   4.9016825E-04   6.6999222E+04   -1.6889279E+00
   4.9243189E-04   6.6479961E+04   -1.6883865E+00
   4.9470600E-04   6.5964889E+04   -1.6878457E+00
   4.9699060E-04   6.5453971E+04   -1.6873055E+00
   4.9928575E-04   6.4947171E+04   -1.6867660E+00
   5.0159151E-04   6.4444455E+04   -1.6862270E+00
   5.0390791E-04   6.3945790E+04   -1.6856887E+00
   5.0623501E-04   6.3451140E+04   -1.6851510E+00
   5.0857286E-04   6.2960472E+04   -1.6846140E+00
   5.1092150E-04   6.2473754E+04   -1.6840776E+00
   5.1328099E-04   6.1990951E+04   -1.6835419E+00
   5.1565137E-04   6.1512031E+04   -1.6830068E+00
   5.1803270E-04   6.1036961E+04   -1.6824724E+00
   5.2042503E-04   6.0565710E+04   -1.6819386E+00
   5.2282841E-04   6.0098244E+04   -1.6814056E+00
   5.2524289E-04   5.9634533E+04   -1.6808731E+00
   5.2766851E-04   5.9174545E+04   -1.6803414E+00
   5.3010534E-04   5.8718249E+04   -1.6798103E+00
   5.3255342E-04   5.8265614E+04   -1.6792800E+00
   5.3501281E-04   5.7816609E+04   -1.6787503E+00
   5.3748356E-04   5.7371204E+04   -1.6782213E+00
   5.3996571E-04   5.6929369E+04   -1.6776930E+00
   5.4245933E-04   5.6491074E+04   -1.6771654E+00
   5.4496446E-04   5.6056290E+04   -1.6766385E+00
   5.4748117E-04   5.5624987E+04   -1.6761124E+00
   5.5000949E-04   5.5197137E+04   -1.6755869E+00
   5.5254949E-04   5.4772709E+04   -1.6750622E+00
   5.5510123E-04   5.4351677E+04   -1.6745382E+00
   5.5766474E-04   5.3934011E+04   -1.6740149E+00
   5.6024010E-04   5.3519684E+04   -1.6734923E+00
   5.6282734E-04   5.3108667E+04   -1.6729705E+00
   5.6542654E-04   5.2700934E+04   -1.6724494E+00
   5.6803774E-04   5.2296456E+04   -1.6719291E+00
   5.7066099E-04   5.1895207E+04   -1.6714095E+00
   5.7329637E-04   5.1497159E+04   -1.6708906E+00
   5.7594391E-04   5.1102287E+04   -1.6703726E+00
   5.7860368E-04   5.0710564E+04   -1.6698552E+00
   5.8127573E-04   5.0321963E+04   -1.6693387E+00
   5.8396012E-04   4.9936459E+04   -1.6688229E+00
   5.8665691E-04   4.9554026E+04   -1.6683078E+00
   5.8936616E-04   4.9174639E+04   -1.6677936E+00
   5.9208791E-04   4.8798271E+04   -1.6672801E+00
   5.9482223E-04   4.8424899E+04   -1.6667674E+00
   5.9756919E-04   4.8054496E+04   -1.6662555E+00
   6.0032882E-04   4.7687040E+04   -1.6657444E+00
   6.0310120E-04   4.7322504E+04   -1.6652340E+00
   6.0588639E-04   4.6960866E+04   -1.6647245E+00
   6.0868443E-04   4.6602100E+04   -1.6642158E+00
   6.1149540E-04   4.6246184E+04   -1.6637078E+00
   6.1431935E-04   4.5893093E+04   -1.6632007E+00
   6.1715634E-04   4.5542804E+04   -1.6626944E+00
   6.2000644E-04   4.5195295E+04   -1.6621889E+00
   6.2286969E-04   4.4850541E+04   -1.6616842E+00
