#        a       HoverH0(a)       dlogHdloga_of_a(a)
   1.0000000E-04   1.1031374E+06   -1.8668460E+00
   1.0046181E-04   1.0936907E+06   -1.8663953E+00
   1.0092575E-04   1.0843271E+06   -1.8659437E+00
   1.0139184E-04   1.0750459E+06   -1.8654912E+00
   1.0186008E-04   1.0658464E+06   -1.8650377E+00
   1.0233048E-04   1.0567278E+06   -1.8645832E+00
   1.0280305E-04   1.0476894E+06   -1.8641278E+00
   1.0327781E-04   1.0387305E+06   -1.8636714E+00
   1.0375475E-04   1.0298504E+06   -1.8632140E+00
   1.0423390E-04   1.0210483E+06   -1.8627557E+00
   1.0471527E-04   1.0123237E+06   -1.8622964E+00
   1.0519885E-04   1.0036756E+06   -1.8618362E+00
   1.0568467E-04   9.9510363E+05   -1.8613750E+00
   1.0617274E-04   9.8660693E+05   -1.8609129E+00
   1.0666305E-04   9.7818486E+05   -1.8604498E+00
   1.0715563E-04   9.6983676E+05   -1.8599858E+00
   1.0765049E-04   9.6156196E+05   -1.8595209E+00
   1.0814763E-04   9.5335981E+05   -1.8590550E+00
   1.0864707E-04   9.4522965E+05   -1.8585882E+00
   1.0914881E-04   9.3717084E+05   -1.8581204E+00
   1.0965287E-04   9.2918275E+05   -1.8576517E+00
   1.1015926E-04   9.2126473E+05   -1.8571821E+00
   1.1066799E-04   9.1341616E+05   -1.8567116E+00
   1.1117906E-04   9.0563643E+05   -1.8562401E+00
   1.1169250E-04   8.9792491E+05   -1.8557677E+00
   1.1220831E-04   8.9028099E+05   -1.8552943E+00
   1.1272650E-04   8.8270407E+05   -1.8548201E+00
   1.1324708E-04   8.7519355E+05   -1.8543449E+00
   1.1377007E-04   8.6774883E+05   -1.8538689E+00
   1.1429547E-04   8.6036934E+05   -1.8533919E+00
   1.1482330E-04   8.5305447E+05   -1.8529140E+00
   1.1535356E-04   8.4580366E+05   -1.8524352E+00
   1.1588628E-04   8.3861634E+05   -1.8519555E+00
   1.1642145E-04   8.3149192E+05   -1.8514748E+00
   1.1695910E-04   8.2442986E+05   -1.8509933E+00
   1.1749923E-04   8.1742960E+05   -1.8505109E+00
   1.1804185E-04   8.1049057E+05   -1.8500276E+00
   1.1858698E-04   8.0361225E+05   -1.8495434E+00
   1.1913463E-04   7.9679407E+05   -1.8490583E+00
   1.1968481E-04   7.9003551E+05   -1.8485724E+00
   1.2023752E-04   7.8333603E+05   -1.8480855E+00
   1.2079279E-04   7.7669512E+05   -1.8475978E+00
   1.2135063E-04   7.7011223E+05   -1.8471091E+00
   1.2191104E-04   7.6358685E+05   -1.8466197E+00
   1.2247403E-04   7.5711848E+05   -1.8461293E+00
   1.2303963E-04   7.5070660E+05   -1.8456381E+00
   1.2360784E-04   7.4435070E+05   -1.8451460E+00
   1.2417868E-04   7.3805029E+05   -1.8446530E+00
   1.2475215E-04   7.3180488E+05   -1.8441592E+00
   1.2532826E-04   7.2561396E+05   -1.8436645E+00
   1.2590704E-04   7.1947706E+05   -1.8431689E+00
   1.2648850E-04   7.1339370E+05   -1.8426726E+00
   1.2707263E-04   7.0736338E+05   -1.8421753E+00
   1.2765947E-04   7.0138565E+05   -1.8416772E+00
   1.2824901E-04   6.9546004E+05   -1.8411783E+00
   1.2884128E-04   6.8958608E+05   -1.8406785E+00
   1.2943628E-04   6.8376330E+05   -1.8401779E+00
   1.3003403E-04   6.7799125E+05   -1.8396765E+00
   1.3063454E-04   6.7226949E+05   -1.8391742E+00
   1.3123783E-04   6.6659755E+05   -1.8386712E+00
   1.3184390E-04   6.6097501E+05   -1.8381672E+00
   1.3245277E-04   6.5540141E+05   -1.8376625E+00
   1.3306445E-04   6.4987632E+05   -1.8371570E+00
   1.3367895E-04   6.4439931E+05   -1.8366506E+00
   1.3429630E-04   6.3896995E+05   -1.8361434E+00
   1.3491649E-04   6.3358781E+05   -1.8356355E+00
   1.3553955E-04   6.2825249E+05   -1.8351267E+00
   1.3616548E-04   6.2296355E+05   -1.8346171E+00
   1.3679431E-04   6.1772059E+05   -1.8341067E+00
   1.3742604E-04   6.1252320E+05   -1.8335956E+00
   1.3806069E-04   6.0737097E+05   -1.8330836E+00
   1.3869827E-04   6.0226350E+05   -1.8325709E+00
   1.3933879E-04   5.9720039E+05   -1.8320573E+00
   1.3998227E-04   5.9218124E+05   -1.8315430E+00
   1.4062872E-04   5.8720567E+05   -1.8310280E+00
   1.4127816E-04   5.8227329E+05   -1.8305121E+00
   1.4193060E-04   5.7738372E+05   -1.8299955E+00
   1.4258605E-04   5.7253656E+05   -1.8294782E+00
   1.4324453E-04   5.6773146E+05   -1.8289600E+00
   1.4390605E-04   5.6296802E+05   -1.8284411E+00
   1.4457062E-04   5.5824589E+05   -1.8279215E+00
   1.4523826E-04   5.5356470E+05   -1.8274011E+00
   1.4590899E-04   5.4892407E+05   -1.8268800E+00
   1.4658281E-04   5.4432366E+05   -1.8263581E+00
   1.4725974E-04   5.3976310E+05   -1.8258355E+00
   1.4793981E-04   5.3524204E+05   -1.8253122E+00
   1.4862301E-04   5.3076013E+05   -1.8247882E+00
   1.4930936E-04   5.2631702E+05   -1.8242634E+00
   1.4999889E-04   5.2191237E+05   -1.8237379E+00
   1.5069160E-04   5.1754583E+05   -1.8232117E+00
   1.5138751E-04   5.1321707E+05   -1.8226847E+00
   1.5208663E-04   5.0892575E+05   -1.8221571E+00
   1.5278899E-04   5.0467154E+05   -1.8216288E+00
   1.5349458E-04   5.0045412E+05   -1.8210997E+00
   1.5420343E-04   4.9627315E+05   -1.8205700E+00
   1.5491556E-04   4.9212831E+05   -1.8200396E+00
   1.5563098E-04   4.8801928E+05   -1.8195085E+00
   1.5634970E-04   4.8394574E+05   -1.8189767E+00
   1.5707174E-04   4.7990738E+05   -1.8184443E+00
   1.5779711E-04   4.7590389E+05   -1.8179111E+00
   1.5852584E-04   4.7193496E+05   -1.8173773E+00
   1.5925792E-04   4.6800028E+05   -1.8168429E+00
   1.5999339E-04   4.6409954E+05   -1.8163078E+00
   1.6073226E-04   4.6023246E+05   -1.8157720E+00
   1.6147454E-04   4.5639872E+05   -1.8152356E+00
   1.6222024E-04   4.5259804E+05   -1.8146985E+00
   1.6296939E-04   4.4883012E+05   -1.8141608E+00
   1.6372200E-04   4.4509467E+05   -1.8136224E+00
   1.6447809E-04   4.4139141E+05   -1.8130835E+00
   1.6523767E-04   4.3772005E+05   -1.8125439E+00
   1.6600075E-04   4.3408030E+05   -1.8120036E+00
   1.6676736E-04   4.3047189E+05   -1.8114628E+00
   1.6753751E-04   4.2689454E+05   -1.8109213E+00
   1.6831122E-04   4.2334798E+05   -1.8103792E+00
   1.6908849E-04   4.1983193E+05   -1.8098366E+00
   1.6986936E-04   4.1634612E+05   -1.8092933E+00
   1.7065384E-04   4.1289029E+05   -1.8087494E+00
   1.7144193E-04   4.0946417E+05   -1.8082050E+00
   1.7223367E-04   4.0606750E+05   -1.8076599E+00
   1.7302906E-04   4.0270002E+05   -1.8071143E+00
   1.7382813E-04   3.9936147E+05   -1.8065681E+00
   1.7463089E-04   3.9605159E+05   -1.8060214E+00
   1.7543735E-04   3.9277014E+05   -1.8054740E+00
   1.7624754E-04   3.8951685E+05   -1.8049261E+00
   1.7706147E-04   3.8629149E+05   -1.8043777E+00
   1.7787916E-04   3.8309381E+05   -1.8038287E+00
   1.7870062E-04   3.7992356E+05   -1.8032792E+00
   1.7952588E-04   3.7678049E+05   -1.8027291E+00
   1.8035495E-04   3.7366438E+05   -1.8021785E+00
   1.8118785E-04   3.7057498E+05   -1.8016273E+00
   1.8202459E-04   3.6751205E+05   -1.8010757E+00
   1.8286520E-04   3.6447537E+05   -1.8005235E+00
   1.8370969E-04   3.6146470E+05   -1.7999708E+00
   1.8455808E-04   3.5847981E+05   -1.7994175E+00
   1.8541039E-04   3.5552047E+05   -1.7988638E+00
   1.8626663E-04   3.5258647E+05   -1.7983096E+00
   1.8712683E-04   3.4967757E+05   -1.7977549E+00
   1.8799100E-04   3.4679356E+05   -1.7971997E+00
   1.8885917E-04   3.4393422E+05   -1.7966440E+00
   1.8973134E-04   3.4109932E+05   -1.7960879E+00
   1.9060754E-04   3.3828866E+05   -1.7955312E+00
   1.9148778E-04   3.3550202E+05   -1.7949741E+00
   1.9237209E-04   3.3273919E+05   -1.7944166E+00
   1.9326049E-04   3.2999996E+05   -1.7938585E+00
   1.9415299E-04   3.2728412E+05   -1.7933001E+00
   1.9504960E-04   3.2459146E+05   -1.7927411E+00
   1.9595036E-04   3.2192179E+05   -1.7921818E+00
   1.9685528E-04   3.1927490E+05   -1.7916220E+00
   1.9776438E-04   3.1665059E+05   -1.7910618E+00
   1.9867768E-04   3.1404867E+05   -1.7905011E+00
   1.9959519E-04   3.1146892E+05   -1.7899400E+00
   2.0051694E-04   3.0891117E+05   -1.7893786E+00
   2.0144295E-04   3.0637521E+05   -1.7888167E+00
   2.0237324E-04   3.0386086E+05   -1.7882544E+00
   2.0330782E-04   3.0136793E+05   -1.7876917E+00
   2.0424671E-04   2.9889622E+05   -1.7871286E+00
   2.0518995E-04   2.9644555E+05   -1.7865651E+00
   2.0613754E-04   2.9401574E+05   -1.7860013E+00
   2.0708950E-04   2.9160661E+05   -1.7854371E+00
   2.0804586E-04   2.8921796E+05   -1.7848725E+00
   2.0900664E-04   2.8684963E+05   -1.7843075E+00
   2.0997185E-04   2.8450144E+05   -1.7837422E+00
   2.1094152E-04   2.8217320E+05   -1.7831766E+00
   2.1191567E-04   2.7986474E+05   -1.7826105E+00
   2.1289432E-04   2.7757590E+05   -1.7820442E+00
   2.1387749E-04   2.7530649E+05   -1.7814775E+00
   2.1486520E-04   2.7305635E+05   -1.7809105E+00
   2.1585747E-04   2.7082531E+05   -1.7803432E+00
   2.1685432E-04   2.6861320E+05   -1.7797755E+00
   2.1785578E-04   2.6641985E+05   -1.7792075E+00
   2.1886186E-04   2.6424511E+05   -1.7786393E+00
   2.1987259E-04   2.6208880E+05   -1.7780707E+00
   2.2088798E-04   2.5995077E+05   -1.7775018E+00
   2.2190807E-04   2.5783086E+05   -1.7769327E+00
   2.2293286E-04   2.5572891E+05   -1.7763632E+00
   2.2396239E-04   2.5364476E+05   -1.7757935E+00
   2.2499667E-04   2.5157826E+05   -1.7752235E+00
   2.2603573E-04   2.4952924E+05   -1.7746533E+00
   2.2707958E-04   2.4749757E+05   -1.7740828E+00
   2.2812826E-04   2.4548308E+05   -1.7735120E+00
   2.2918178E-04   2.4348563E+05   -1.7729410E+00
   2.3024017E-04   2.4150507E+05   -1.7723697E+00
   2.3130344E-04   2.3954125E+05   -1.7717982E+00
   2.3237162E-04   2.3759403E+05   -1.7712265E+00
   2.3344474E-04   2.3566325E+05   -1.7706546E+00
   2.3452281E-04   2.3374878E+05   -1.7700824E+00
   2.3560586E-04   2.3185048E+05   -1.7695100E+00
   2.3669392E-04   2.2996819E+05   -1.7689374E+00
   2.3778699E-04   2.2810180E+05   -1.7683647E+00
   2.3888512E-04   2.2625114E+05   -1.7677917E+00
   2.3998831E-04   2.2441610E+05   -1.7672185E+00
   2.4109661E-04   2.2259652E+05   -1.7666452E+00
   2.4221001E-04   2.2079228E+05   -1.7660716E+00
   2.4332857E-04   2.1900324E+05   -1.7654980E+00
   2.4445228E-04   2.1722928E+05   -1.7649241E+00
   2.4558119E-04   2.1547025E+05   -1.7643501E+00
   2.4671531E-04   2.1372603E+05   -1.7637759E+00
   2.4785467E-04   2.1199650E+05   -1.7632016E+00
   2.4899928E-04   2.1028151E+05   -1.7626271E+00
   2.5014919E-04   2.0858096E+05   -1.7620525E+00
   2.5130440E-04   2.0689470E+05   -1.7614778E+00
   2.5246495E-04   2.0522262E+05   -1.7609030E+00
   2.5363086E-04   2.0356459E+05   -1.7603280E+00
   2.5480216E-04   2.0192049E+05   -1.7597530E+00
   2.5597886E-04   2.0029020E+05   -1.7591778E+00
   2.5716100E-04   1.9867360E+05   -1.7586025E+00
   2.5834859E-04   1.9707057E+05   -1.7580272E+00
   2.5954168E-04   1.9548099E+05   -1.7574517E+00
   2.6074027E-04   1.9390475E+05   -1.7568762E+00
   2.6194439E-04   1.9234172E+05   -1.7563006E+00
   2.6315408E-04   1.9079181E+05   -1.7557249E+00
   2.6436935E-04   1.8925488E+05   -1.7551492E+00
   2.6559024E-04   1.8773084E+05   -1.7545734E+00
   2.6681676E-04   1.8621956E+05   -1.7539976E+00
   2.6804895E-04   1.8472093E+05   -1.7534217E+00
   2.6928683E-04   1.8323486E+05   -1.7528458E+00
   2.7053042E-04   1.8176122E+05   -1.7522699E+00
   2.7177976E-04   1.8029991E+05   -1.7516939E+00
   2.7303487E-04   1.7885082E+05   -1.7511179E+00
   2.7429577E-04   1.7741385E+05   -1.7505419E+00
   2.7556250E-04   1.7598890E+05   -1.7499659E+00
   2.7683507E-04   1.7457585E+05   -1.7493899E+00
   2.7811353E-04   1.7317461E+05   -1.7488139E+00
   2.7939788E-04   1.7178507E+05   -1.7482380E+00
   2.8068817E-04   1.7040713E+05   -1.7476620E+00
   2.8198442E-04   1.6904069E+05   -1.7470861E+00
   2.8328665E-04   1.6768566E+05   -1.7465101E+00
   2.8459490E-04   1.6634193E+05   -1.7459343E+00
   2.8590919E-04   1.6500940E+05   -1.7453584E+00
   2.8722955E-04   1.6368799E+05   -1.7447827E+00
   2.8855600E-04   1.6237758E+05   -1.7442069E+00
   2.8988859E-04   1.6107810E+05   -1.7436313E+00
   2.9122732E-04   1.5978943E+05   -1.7430557E+00
   2.9257224E-04   1.5851150E+05   -1.7424801E+00
   2.9392337E-04   1.5724420E+05   -1.7419047E+00
   2.9528074E-04   1.5598745E+05   -1.7413293E+00
   2.9664438E-04   1.5474116E+05   -1.7407541E+00
   2.9801431E-04   1.5350523E+05   -1.7401789E+00
   2.9939057E-04   1.5227957E+05   -1.7396038E+00
   3.0077319E-04   1.5106410E+05   -1.7390289E+00
   3.0216219E-04   1.4985873E+05   -1.7384540E+00
   3.0355761E-04   1.4866337E+05   -1.7378793E+00
   3.0495947E-04   1.4747794E+05   -1.7373047E+00
   3.0636780E-04   1.4630234E+05   -1.7367302E+00
   3.0778264E-04   1.4513651E+05   -1.7361559E+00
   3.0920401E-04   1.4398034E+05   -1.7355817E+00
   3.1063195E-04   1.4283376E+05   -1.7350077E+00
   3.1206648E-04   1.4169668E+05   -1.7344339E+00
   3.1350764E-04   1.4056903E+05   -1.7338602E+00
   3.1495545E-04   1.3945072E+05   -1.7332866E+00
   3.1640994E-04   1.3834168E+05   -1.7327133E+00
   3.1787116E-04   1.3724182E+05   -1.7321401E+00
   3.1933912E-04   1.3615106E+05   -1.7315671E+00
   3.2081386E-04   1.3506932E+05   -1.7309943E+00
   3.2229541E-04   1.3399654E+05   -1.7304217E+00
   3.2378381E-04   1.3293262E+05   -1.7298494E+00
   3.2527908E-04   1.3187750E+05   -1.7292772E+00
   3.2678125E-04   1.3083110E+05   -1.7287052E+00
   3.2829036E-04   1.2979335E+05   -1.7281335E+00
   3.2980644E-04   1.2876416E+05   -1.7275620E+00
   3.3132952E-04   1.2774348E+05   -1.7269907E+00
   3.3285963E-04   1.2673121E+05   -1.7264197E+00
   3.3439681E-04   1.2572730E+05   -1.7258489E+00
   3.3594109E-04   1.2473167E+05   -1.7252784E+00
   3.3749250E-04   1.2374425E+05   -1.7247082E+00
   3.3905108E-04   1.2276497E+05   -1.7241382E+00
   3.4061685E-04   1.2179376E+05   -1.7235684E+00
   3.4218986E-04   1.2083055E+05   -1.7229990E+00
   3.4377013E-04   1.1987527E+05   -1.7224298E+00
   3.4535769E-04   1.1892785E+05   -1.7218609E+00
   3.4695259E-04   1.1798823E+05   -1.7212923E+00
   3.4855485E-04   1.1705634E+05   -1.7207241E+00
   3.5016452E-04   1.1613212E+05   -1.7201561E+00
   3.5178161E-04   1.1521550E+05   -1.7195884E+00
   3.5340618E-04   1.1430640E+05   -1.7190211E+00
   3.5503824E-04   1.1340478E+05   -1.7184540E+00
   3.5667785E-04   1.1251057E+05   -1.7178873E+00
   3.5832502E-04   1.1162369E+05   -1.7173210E+00
   3.5997981E-04   1.1074410E+05   -1.7167550E+00
   3.6164223E-04   1.0987172E+05   -1.7161893E+00
   3.6331233E-04   1.0900650E+05   -1.7156240E+00
   3.6499015E-04   1.0814837E+05   -1.7150590E+00
   3.6667571E-04   1.0729728E+05   -1.7144944E+00
   3.6836906E-04   1.0645317E+05   -1.7139302E+00
   3.7007022E-04   1.0561597E+05   -1.7133663E+00
   3.7177925E-04   1.0478562E+05   -1.7128028E+00
   3.7349616E-04   1.0396207E+05   -1.7122397E+00
   3.7522101E-04   1.0314527E+05   -1.7116770E+00
   3.7695382E-04   1.0233514E+05   -1.7111147E+00
   3.7869463E-04   1.0153165E+05   -1.7105528E+00
   3.8044348E-04   1.0073472E+05   -1.7099913E+00
   3.8220041E-04   9.9944302E+04   -1.7094302E+00
   3.8396545E-04   9.9160345E+04   -1.7088695E+00
   3.8573864E-04   9.8382792E+04   -1.7083093E+00
   3.8752002E-04   9.7611587E+04   -1.7077495E+00
   3.8930963E-04   9.6846678E+04   -1.7071901E+00
   3.9110750E-04   9.6088010E+04   -1.7066312E+00
   3.9291368E-04   9.5335530E+04   -1.7060727E+00
   3.9472820E-04   9.4589187E+04   -1.7055146E+00
   3.9655109E-04   9.3848928E+04   -1.7049571E+00
   3.9838241E-04   9.3114701E+04   -1.7043999E+00
   4.0022218E-04   9.2386455E+04   -1.7038433E+00
   4.0207045E-04   9.1664140E+04   -1.7032871E+00
   4.0392725E-04   9.0947705E+04   -1.7027314E+00
   4.0579263E-04   9.0237101E+04   -1.7021762E+00
   4.0766662E-04   8.9532278E+04   -1.7016214E+00
   4.0954927E-04   8.8833188E+04   -1.7010672E+00
   4.1144061E-04   8.8139780E+04   -1.7005135E+00
   4.1334068E-04   8.7452009E+04   -1.6999602E+00
   4.1524953E-04   8.6769825E+04   -1.6994075E+00
   4.1716720E-04   8.6093182E+04   -1.6988553E+00
   4.1909372E-04   8.5422032E+04   -1.6983036E+00
   4.2102914E-04   8.4756330E+04   -1.6977524E+00
   4.2297350E-04   8.4096030E+04   -1.6972018E+00
   4.2492683E-04   8.3441084E+04   -1.6966517E+00
   4.2688919E-04   8.2791450E+04   -1.6961021E+00
   4.2886061E-04   8.2147081E+04   -1.6955531E+00
   4.3084113E-04   8.1507934E+04   -1.6950046E+00
   4.3283080E-04   8.0873964E+04   -1.6944567E+00
   4.3482966E-04   8.0245127E+04   -1.6939094E+00
   4.3683775E-04   7.9621380E+04   -1.6933626E+00
   4.3885511E-04   7.9002681E+04   -1.6928163E+00
   4.4088179E-04   7.8388986E+04   -1.6922707E+00
   4.4291783E-04   7.7780254E+04   -1.6917256E+00
   4.4496327E-04   7.7176443E+04   -1.6911812E+00
   4.4701816E-04   7.6577512E+04   -1.6906373E+00
   4.4908253E-04   7.5983418E+04   -1.6900940E+00
   4.5115644E-04   7.5394122E+04   -1.6895513E+00
   4.5323993E-04   7.4809584E+04   -1.6890092E+00
   4.5533304E-04   7.4229763E+04   -1.6884677E+00
   4.5743582E-04   7.3654620E+04   -1.6879268E+00
   4.5954830E-04   7.3084115E+04   -1.6873865E+00
   4.6167054E-04   7.2518209E+04   -1.6868469E+00
   4.6380259E-04   7.1956864E+04   -1.6863079E+00
   4.6594448E-04   7.1400041E+04   -1.6857695E+00
   4.6809626E-04   7.0847703E+04   -1.6852318E+00
   4.7025797E-04   7.0299812E+04   -1.6846947E+00
   4.7242967E-04   6.9756330E+04   -1.6841582E+00
   4.7461140E-04   6.9217221E+04   -1.6836224E+00
   4.7680321E-04   6.8682448E+04   -1.6830872E+00
   4.7900514E-04   6.8151974E+04   -1.6825528E+00
   4.8121723E-04   6.7625764E+04   -1.6820189E+00
   4.8343954E-04   6.7103782E+04   -1.6814858E+00
   4.8567212E-04   6.6585993E+04   -1.6809533E+00
   4.8791500E-04   6.6072361E+04   -1.6804214E+00
   4.9016825E-04   6.5562851E+04   -1.6798903E+00
   4.9243189E-04   6.5057430E+04   -1.6793599E+00
   4.9470600E-04   6.4556062E+04   -1.6788301E+00
   4.9699060E-04   6.4058715E+04   -1.6783010E+00
   4.9928575E-04   6.3565354E+04   -1.6777727E+00
   5.0159151E-04   6.3075946E+04   -1.6772450E+00
   5.0390791E-04   6.2590458E+04   -1.6767180E+00
   5.0623501E-04   6.2108858E+04   -1.6761918E+00
   5.0857286E-04   6.1631113E+04   -1.6756662E+00
   5.1092150E-04   6.1157190E+04   -1.6751414E+00
   5.1328099E-04   6.0687059E+04   -1.6746173E+00
   5.1565137E-04   6.0220687E+04   -1.6740940E+00
   5.1803270E-04   5.9758043E+04   -1.6735713E+00
   5.2042503E-04   5.9299096E+04   -1.6730494E+00
   5.2282841E-04   5.8843815E+04   -1.6725282E+00
   5.2524289E-04   5.8392170E+04   -1.6720078E+00
   5.2766851E-04   5.7944130E+04   -1.6714881E+00
   5.3010534E-04   5.7499665E+04   -1.6709692E+00
   5.3255342E-04   5.7058746E+04   -1.6704510E+00
   5.3501281E-04   5.6621343E+04   -1.6699336E+00
   5.3748356E-04   5.6187427E+04   -1.6694170E+00
   5.3996571E-04   5.5756969E+04   -1.6689011E+00
   5.4245933E-04   5.5329940E+04   -1.6683860E+00
   5.4496446E-04   5.4906312E+04   -1.6678716E+00
   5.4748117E-04   5.4486057E+04   -1.6673581E+00
   5.5000949E-04   5.4069146E+04   -1.6668453E+00
   5.5254949E-04   5.3655551E+04   -1.6663333E+00
   5.5510123E-04   5.3245246E+04   -1.6658221E+00
   5.5766474E-04   5.2838203E+04   -1.6653116E+00
   5.6024010E-04   5.2434395E+04   -1.6648020E+00
   5.6282734E-04   5.2033795E+04   -1.6642932E+00
   5.6542654E-04   5.1636376E+04   -1.6637852E+00
   5.6803774E-04   5.1242113E+04   -1.6632779E+00
   5.7066099E-04   5.0850979E+04   -1.6627715E+00
   5.7329637E-04   5.0462948E+04   -1.6622659E+00
   5.7594391E-04   5.0077994E+04   -1.6617611E+00
   5.7860368E-04   4.9696093E+04   -1.6612572E+00
   5.8127573E-04   4.9317218E+04   -1.6607540E+00
   5.8396012E-04   4.8941346E+04   -1.6602517E+00
   5.8665691E-04   4.8568450E+04   -1.6597502E+00
   5.8936616E-04   4.8198507E+04   -1.6592496E+00
   5.9208791E-04   4.7831492E+04   -1.6587497E+00
   5.9482223E-04   4.7467380E+04   -1.6582507E+00
   5.9756919E-04   4.7106149E+04   -1.6577526E+00
   6.0032882E-04   4.6747774E+04   -1.6572553E+00
   6.0310120E-04   4.6392232E+04   -1.6567589E+00
   6.0588639E-04   4.6039499E+04   -1.6562633E+00
   6.0868443E-04   4.5689552E+04   -1.6557685E+00
   6.1149540E-04   4.5342368E+04   -1.6552746E+00
   6.1431935E-04   4.4997925E+04   -1.6547816E+00
   6.1715634E-04   4.4656199E+04   -1.6542895E+00
   6.2000644E-04   4.4317170E+04   -1.6537982E+00
   6.2286969E-04   4.3980813E+04   -1.6533077E+00
