#        a       HoverH0(a)       dlogHdloga_of_a(a)
   1.0000000E-04   1.0401267E+06   -1.8874984E+00
   1.0046181E-04   1.0311213E+06   -1.8870961E+00
   1.0092575E-04   1.0221958E+06   -1.8866929E+00
   1.0139184E-04   1.0133494E+06   -1.8862886E+00
   1.0186008E-04   1.0045815E+06   -1.8858833E+00
   1.0233048E-04   9.9589126E+05   -1.8854770E+00
   1.0280305E-04   9.8727806E+05   -1.8850697E+00
   1.0327781E-04   9.7874120E+05   -1.8846613E+00
   1.0375475E-04   9.7027998E+05   -1.8842520E+00
   1.0423390E-04   9.6189373E+05   -1.8838416E+00
   1.0471527E-04   9.5358176E+05   -1.8834302E+00
   1.0519885E-04   9.4534341E+05   -1.8830178E+00
   1.0568467E-04   9.3717802E+05   -1.8826044E+00
   1.0617274E-04   9.2908493E+05   -1.8821900E+00
   1.0666305E-04   9.2106349E+05   -1.8817746E+00
   1.0715563E-04   9.1311306E+05   -1.8813581E+00
   1.0765049E-04   9.0523299E+05   -1.8809407E+00
   1.0814763E-04   8.9742266E+05   -1.8805222E+00
   1.0864707E-04   8.8968143E+05   -1.8801027E+00
   1.0914881E-04   8.8200868E+05   -1.8796823E+00
   1.0965287E-04   8.7440380E+05   -1.8792608E+00
   1.1015926E-04   8.6686617E+05   -1.8788383E+00
   1.1066799E-04   8.5939520E+05   -1.8784148E+00
   1.1117906E-04   8.5199028E+05   -1.8779903E+00
   1.1169250E-04   8.4465081E+05   -1.8775648E+00
   1.1220831E-04   8.3737622E+05   -1.8771383E+00
   1.1272650E-04   8.3016591E+05   -1.8767108E+00
   1.1324708E-04   8.2301931E+05   -1.8762823E+00
   1.1377007E-04   8.1593584E+05   -1.8758528E+00
   1.1429547E-04   8.0891495E+05   -1.8754223E+00
   1.1482330E-04   8.0195606E+05   -1.8749908E+00
   1.1535356E-04   7.9505861E+05   -1.8745583E+00
   1.1588628E-04   7.8822207E+05   -1.8741249E+00
   1.1642145E-04   7.8144587E+05   -1.8736904E+00
   1.1695910E-04   7.7472947E+05   -1.8732549E+00
   1.1749923E-04   7.6807235E+05   -1.8728185E+00
   1.1804185E-04   7.6147396E+05   -1.8723810E+00
   1.1858698E-04   7.5493378E+05   -1.8719426E+00
   1.1913463E-04   7.4845129E+05   -1.8715032E+00
   1.1968481E-04   7.4202596E+05   -1.8710628E+00
   1.2023752E-04   7.3565730E+05   -1.8706214E+00
   1.2079279E-04   7.2934477E+05   -1.8701790E+00
   1.2135063E-04   7.2308789E+05   -1.8697356E+00
   1.2191104E-04   7.1688615E+05   -1.8692913E+00
   1.2247403E-04   7.1073906E+05   -1.8688460E+00
   1.2303963E-04   7.0464613E+05   -1.8683997E+00
   1.2360784E-04   6.9860687E+05   -1.8679525E+00
   1.2417868E-04   6.9262079E+05   -1.8675042E+00
   1.2475215E-04   6.8668743E+05   -1.8670550E+00
   1.2532826E-04   6.8080630E+05   -1.8666048E+00
   1.2590704E-04   6.7497695E+05   -1.8661537E+00
   1.2648850E-04   6.6919890E+05   -1.8657016E+00
   1.2707263E-04   6.6347170E+05   -1.8652485E+00
   1.2765947E-04   6.5779489E+05   -1.8647945E+00
   1.2824901E-04   6.5216801E+05   -1.8643394E+00
   1.2884128E-04   6.4659063E+05   -1.8638835E+00
   1.2943628E-04   6.4106229E+05   -1.8634266E+00
   1.3003403E-04   6.3558256E+05   -1.8629687E+00
   1.3063454E-04   6.3015100E+05   -1.8625099E+00
   1.3123783E-04   6.2476718E+05   -1.8620501E+00
   1.3184390E-04   6.1943067E+05   -1.8615893E+00
   1.3245277E-04   6.1414105E+05   -1.8611276E+00
   1.3306445E-04   6.0889789E+05   -1.8606650E+00
   1.3367895E-04   6.0370079E+05   -1.8602014E+00
   1.3429630E-04   5.9854932E+05   -1.8597369E+00
   1.3491649E-04   5.9344308E+05   -1.8592715E+00
   1.3553955E-04   5.8838167E+05   -1.8588051E+00
   1.3616548E-04   5.8336469E+05   -1.8583377E+00
   1.3679431E-04   5.7839172E+05   -1.8578695E+00
   1.3742604E-04   5.7346239E+05   -1.8574003E+00
   1.3806069E-04   5.6857630E+05   -1.8569301E+00
   1.3869827E-04   5.6373306E+05   -1.8564591E+00
   1.3933879E-04   5.5893229E+05   -1.8559871E+00
   1.3998227E-04   5.5417362E+05   -1.8555142E+00
   1.4062872E-04   5.4945665E+05   -1.8550404E+00
   1.4127816E-04   5.4478102E+05   -1.8545656E+00
   1.4193060E-04   5.4014637E+05   -1.8540899E+00
   1.4258605E-04   5.3555232E+05   -1.8536134E+00
   1.4324453E-04   5.3099850E+05   -1.8531359E+00
   1.4390605E-04   5.2648457E+05   -1.8526575E+00
   1.4457062E-04   5.2201017E+05   -1.8521782E+00
   1.4523826E-04   5.1757493E+05   -1.8516980E+00
   1.4590899E-04   5.1317852E+05   -1.8512169E+00
   1.4658281E-04   5.0882057E+05   -1.8507349E+00
   1.4725974E-04   5.0450076E+05   -1.8502520E+00
   1.4793981E-04   5.0021874E+05   -1.8497682E+00
   1.4862301E-04   4.9597416E+05   -1.8492835E+00
   1.4930936E-04   4.9176670E+05   -1.8487979E+00
   1.4999889E-04   4.8759603E+05   -1.8483115E+00
   1.5069160E-04   4.8346181E+05   -1.8478241E+00
   1.5138751E-04   4.7936372E+05   -1.8473359E+00
   1.5208663E-04   4.7530145E+05   -1.8468468E+00
   1.5278899E-04   4.7127465E+05   -1.8463568E+00
   1.5349458E-04   4.6728304E+05   -1.8458660E+00
   1.5420343E-04   4.6332627E+05   -1.8453743E+00
   1.5491556E-04   4.5940406E+05   -1.8448817E+00
   1.5563098E-04   4.5551608E+05   -1.8443883E+00
   1.5634970E-04   4.5166203E+05   -1.8438940E+00
   1.5707174E-04   4.4784161E+05   -1.8433988E+00
   1.5779711E-04   4.4405453E+05   -1.8429028E+00
   1.5852584E-04   4.4030047E+05   -1.8424060E+00
   1.5925792E-04   4.3657915E+05   -1.8419083E+00
   1.5999339E-04   4.3289027E+05   -1.8414097E+00
   1.6073226E-04   4.2923356E+05   -1.8409103E+00
   1.6147454E-04   4.2560871E+05   -1.8404101E+00
   1.6222024E-04   4.2201544E+05   -1.8399090E+00
   1.6296939E-04   4.1845348E+05   -1.8394072E+00
   1.6372200E-04   4.1492255E+05   -1.8389044E+00
   1.6447809E-04   4.1142236E+05   -1.8384009E+00
   1.6523767E-04   4.0795265E+05   -1.8378965E+00
   1.6600075E-04   4.0451314E+05   -1.8373913E+00
   1.6676736E-04   4.0110356E+05   -1.8368853E+00
   1.6753751E-04   3.9772365E+05   -1.8363785E+00
   1.6831122E-04   3.9437314E+05   -1.8358709E+00
   1.6908849E-04   3.9105177E+05   -1.8353625E+00
   1.6986936E-04   3.8775928E+05   -1.8348533E+00
   1.7065384E-04   3.8449542E+05   -1.8343433E+00
   1.7144193E-04   3.8125993E+05   -1.8338324E+00
   1.7223367E-04   3.7805255E+05   -1.8333208E+00
   1.7302906E-04   3.7487304E+05   -1.8328085E+00
   1.7382813E-04   3.7172115E+05   -1.8322953E+00
   1.7463089E-04   3.6859663E+05   -1.8317813E+00
   1.7543735E-04   3.6549924E+05   -1.8312666E+00
   1.7624754E-04   3.6242874E+05   -1.8307511E+00
   1.7706147E-04   3.5938489E+05   -1.8302348E+00
   1.7787916E-04   3.5636745E+05   -1.8297178E+00
   1.7870062E-04   3.5337619E+05   -1.8292000E+00
   1.7952588E-04   3.5041087E+05   -1.8286815E+00
   1.8035495E-04   3.4747127E+05   -1.8281622E+00
   1.8118785E-04   3.4455715E+05   -1.8276421E+00
   1.8202459E-04   3.4166829E+05   -1.8271213E+00
   1.8286520E-04   3.3880446E+05   -1.8265998E+00
   1.8370969E-04   3.3596545E+05   -1.8260775E+00
   1.8455808E-04   3.3315103E+05   -1.8255545E+00
   1.8541039E-04   3.3036098E+05   -1.8250308E+00
   1.8626663E-04   3.2759509E+05   -1.8245063E+00
   1.8712683E-04   3.2485314E+05   -1.8239811E+00
   1.8799100E-04   3.2213493E+05   -1.8234552E+00
   1.8885917E-04   3.1944023E+05   -1.8229286E+00
   1.8973134E-04   3.1676884E+05   -1.8224013E+00
   1.9060754E-04   3.1412055E+05   -1.8218733E+00
   1.9148778E-04   3.1149517E+05   -1.8213446E+00
   1.9237209E-04   3.0889248E+05   -1.8208151E+00
   1.9326049E-04   3.0631228E+05   -1.8202850E+00
   1.9415299E-04   3.0375438E+05   -1.8197542E+00
   1.9504960E-04   3.0121858E+05   -1.8192228E+00
   1.9595036E-04   2.9870467E+05   -1.8186906E+00
   1.9685528E-04   2.9621248E+05   -1.8181578E+00
   1.9776438E-04   2.9374180E+05   -1.8176243E+00
   1.9867768E-04   2.9129244E+05   -1.8170901E+00
   1.9959519E-04   2.8886422E+05   -1.8165553E+00
   2.0051694E-04   2.8645695E+05   -1.8160198E+00
   2.0144295E-04   2.8407044E+05   -1.8154836E+00
   2.0237324E-04   2.8170451E+05   -1.8149468E+00
   2.0330782E-04   2.7935897E+05   -1.8144094E+00
   2.0424671E-04   2.7703365E+05   -1.8138713E+00
   2.0518995E-04   2.7472837E+05   -1.8133326E+00
   2.0613754E-04   2.7244295E+05   -1.8127933E+00
   2.0708950E-04   2.7017721E+05   -1.8122533E+00
   2.0804586E-04   2.6793098E+05   -1.8117128E+00
   2.0900664E-04   2.6570409E+05   -1.8111716E+00
   2.0997185E-04   2.6349636E+05   -1.8106298E+00
   2.1094152E-04   2.6130763E+05   -1.8100873E+00
   2.1191567E-04   2.5913773E+05   -1.8095443E+00
   2.1289432E-04   2.5698649E+05   -1.8090007E+00
   2.1387749E-04   2.5485375E+05   -1.8084565E+00
   2.1486520E-04   2.5273934E+05   -1.8079117E+00
   2.1585747E-04   2.5064311E+05   -1.8073664E+00
   2.1685432E-04   2.4856488E+05   -1.8068204E+00
   2.1785578E-04   2.4650451E+05   -1.8062739E+00
   2.1886186E-04   2.4446183E+05   -1.8057268E+00
   2.1987259E-04   2.4243669E+05   -1.8051792E+00
   2.2088798E-04   2.4042893E+05   -1.8046309E+00
   2.2190807E-04   2.3843841E+05   -1.8040822E+00
   2.2293286E-04   2.3646496E+05   -1.8035329E+00
   2.2396239E-04   2.3450844E+05   -1.8029830E+00
   2.2499667E-04   2.3256869E+05   -1.8024326E+00
   2.2603573E-04   2.3064558E+05   -1.8018817E+00
   2.2707958E-04   2.2873895E+05   -1.8013303E+00
   2.2812826E-04   2.2684866E+05   -1.8007783E+00
   2.2918178E-04   2.2497456E+05   -1.8002258E+00
   2.3024017E-04   2.2311651E+05   -1.7996728E+00
   2.3130344E-04   2.2127437E+05   -1.7991193E+00
   2.3237162E-04   2.1944800E+05   -1.7985653E+00
   2.3344474E-04   2.1763726E+05   -1.7980108E+00
   2.3452281E-04   2.1584202E+05   -1.7974558E+00
   2.3560586E-04   2.1406213E+05   -1.7969003E+00
   2.3669392E-04   2.1229746E+05   -1.7963443E+00
   2.3778699E-04   2.1054788E+05   -1.7957879E+00
   2.3888512E-04   2.0881325E+05   -1.7952310E+00
   2.3998831E-04   2.0709344E+05   -1.7946736E+00
   2.4109661E-04   2.0538833E+05   -1.7941158E+00
   2.4221001E-04   2.0369778E+05   -1.7935575E+00
   2.4332857E-04   2.0202166E+05   -1.7929988E+00
   2.4445228E-04   2.0035986E+05   -1.7924396E+00
   2.4558119E-04   1.9871223E+05   -1.7918800E+00
   2.4671531E-04   1.9707866E+05   -1.7913199E+00
   2.4785467E-04   1.9545903E+05   -1.7907594E+00
   2.4899928E-04   1.9385321E+05   -1.7901985E+00
   2.5014919E-04   1.9226107E+05   -1.7896372E+00
   2.5130440E-04   1.9068251E+05   -1.7890755E+00
   2.5246495E-04   1.8911740E+05   -1.7885134E+00
   2.5363086E-04   1.8756562E+05   -1.7879508E+00
   2.5480216E-04   1.8602705E+05   -1.7873879E+00
   2.5597886E-04   1.8450158E+05   -1.7868246E+00
   2.5716100E-04   1.8298910E+05   -1.7862609E+00
   2.5834859E-04   1.8148949E+05   -1.7856968E+00
   2.5954168E-04   1.8000264E+05   -1.7851324E+00
   2.6074027E-04   1.7852843E+05   -1.7845676E+00
   2.6194439E-04   1.7706675E+05   -1.7840024E+00
   2.6315408E-04   1.7561750E+05   -1.7834369E+00
   2.6436935E-04   1.7418057E+05   -1.7828710E+00
   2.6559024E-04   1.7275584E+05   -1.7823048E+00
   2.6681676E-04   1.7134322E+05   -1.7817382E+00
   2.6804895E-04   1.6994259E+05   -1.7811713E+00
   2.6928683E-04   1.6855385E+05   -1.7806041E+00
   2.7053042E-04   1.6717689E+05   -1.7800366E+00
   2.7177976E-04   1.6581162E+05   -1.7794687E+00
   2.7303487E-04   1.6445793E+05   -1.7789006E+00
   2.7429577E-04   1.6311571E+05   -1.7783321E+00
   2.7556250E-04   1.6178488E+05   -1.7777633E+00
   2.7683507E-04   1.6046532E+05   -1.7771943E+00
   2.7811353E-04   1.5915695E+05   -1.7766250E+00
   2.7939788E-04   1.5785965E+05   -1.7760553E+00
   2.8068817E-04   1.5657334E+05   -1.7754854E+00
   2.8198442E-04   1.5529792E+05   -1.7749153E+00
   2.8328665E-04   1.5403330E+05   -1.7743449E+00
   2.8459490E-04   1.5277937E+05   -1.7737742E+00
   2.8590919E-04   1.5153605E+05   -1.7732033E+00
   2.8722955E-04   1.5030324E+05   -1.7726321E+00
   2.8855600E-04   1.4908086E+05   -1.7720607E+00
   2.8988859E-04   1.4786881E+05   -1.7714890E+00
   2.9122732E-04   1.4666699E+05   -1.7709171E+00
   2.9257224E-04   1.4547533E+05   -1.7703451E+00
   2.9392337E-04   1.4429373E+05   -1.7697727E+00
   2.9528074E-04   1.4312211E+05   -1.7692002E+00
   2.9664438E-04   1.4196037E+05   -1.7686275E+00
   2.9801431E-04   1.4080844E+05   -1.7680546E+00
   2.9939057E-04   1.3966622E+05   -1.7674815E+00
   3.0077319E-04   1.3853363E+05   -1.7669082E+00
   3.0216219E-04   1.3741059E+05   -1.7663347E+00
   3.0355761E-04   1.3629701E+05   -1.7657611E+00
   3.0495947E-04   1.3519282E+05   -1.7651872E+00
   3.0636780E-04   1.3409793E+05   -1.7646133E+00
   3.0778264E-04   1.3301225E+05   -1.7640391E+00
   3.0920401E-04   1.3193571E+05   -1.7634648E+00
   3.1063195E-04   1.3086824E+05   -1.7628904E+00
   3.1206648E-04   1.2980974E+05   -1.7623159E+00
   3.1350764E-04   1.2876015E+05   -1.7617412E+00
   3.1495545E-04   1.2771938E+05   -1.7611663E+00
   3.1640994E-04   1.2668736E+05   -1.7605914E+00
   3.1787116E-04   1.2566401E+05   -1.7600164E+00
   3.1933912E-04   1.2464925E+05   -1.7594412E+00
   3.2081386E-04   1.2364302E+05   -1.7588659E+00
   3.2229541E-04   1.2264524E+05   -1.7582906E+00
   3.2378381E-04   1.2165583E+05   -1.7577152E+00
   3.2527908E-04   1.2067473E+05   -1.7571396E+00
   3.2678125E-04   1.1970185E+05   -1.7565640E+00
   3.2829036E-04   1.1873713E+05   -1.7559884E+00
   3.2980644E-04   1.1778050E+05   -1.7554126E+00
   3.3132952E-04   1.1683189E+05   -1.7548368E+00
   3.3285963E-04   1.1589122E+05   -1.7542610E+00
   3.3439681E-04   1.1495843E+05   -1.7536851E+00
   3.3594109E-04   1.1403346E+05   -1.7531092E+00
   3.3749250E-04   1.1311622E+05   -1.7525332E+00
   3.3905108E-04   1.1220666E+05   -1.7519572E+00
   3.4061685E-04   1.1130471E+05   -1.7513812E+00
   3.4218986E-04   1.1041031E+05   -1.7508052E+00
   3.4377013E-04   1.0952338E+05   -1.7502291E+00
   3.4535769E-04   1.0864386E+05   -1.7496531E+00
   3.4695259E-04   1.0777170E+05   -1.7490771E+00
   3.4855485E-04   1.0690682E+05   -1.7485010E+00
   3.5016452E-04   1.0604916E+05   -1.7479250E+00
   3.5178161E-04   1.0519866E+05   -1.7473490E+00
   3.5340618E-04   1.0435526E+05   -1.7467731E+00
   3.5503824E-04   1.0351889E+05   -1.7461971E+00
   3.5667785E-04   1.0268950E+05   -1.7456212E+00
   3.5832502E-04   1.0186703E+05   -1.7450454E+00
   3.5997981E-04   1.0105141E+05   -1.7444696E+00
   3.6164223E-04   1.0024259E+05   -1.7438939E+00
   3.6331233E-04   9.9440501E+04   -1.7433182E+00
   3.6499015E-04   9.8645096E+04   -1.7427426E+00
   3.6667571E-04   9.7856313E+04   -1.7421671E+00
   3.6836906E-04   9.7074094E+04   -1.7415916E+00
   3.7007022E-04   9.6298383E+04   -1.7410163E+00
   3.7177925E-04   9.5529124E+04   -1.7404410E+00
   3.7349616E-04   9.4766262E+04   -1.7398659E+00
   3.7522101E-04   9.4009740E+04   -1.7392908E+00
   3.7695382E-04   9.3259505E+04   -1.7387159E+00
   3.7869463E-04   9.2515502E+04   -1.7381410E+00
   3.8044348E-04   9.1777677E+04   -1.7375663E+00
   3.8220041E-04   9.1045978E+04   -1.7369918E+00
   3.8396545E-04   9.0320352E+04   -1.7364173E+00
   3.8573864E-04   8.9600746E+04   -1.7358431E+00
   3.8752002E-04   8.8887108E+04   -1.7352689E+00
   3.8930963E-04   8.8179387E+04   -1.7346949E+00
   3.9110750E-04   8.7477533E+04   -1.7341211E+00
   3.9291368E-04   8.6781494E+04   -1.7335475E+00
   3.9472820E-04   8.6091221E+04   -1.7329740E+00
   3.9655109E-04   8.5406664E+04   -1.7324007E+00
   3.9838241E-04   8.4727774E+04   -1.7318276E+00
   4.0022218E-04   8.4054502E+04   -1.7312546E+00
   4.0207045E-04   8.3386801E+04   -1.7306819E+00
   4.0392725E-04   8.2724622E+04   -1.7301094E+00
   4.0579263E-04   8.2067918E+04   -1.7295371E+00
   4.0766662E-04   8.1416641E+04   -1.7289650E+00
   4.0954927E-04   8.0770746E+04   -1.7283931E+00
   4.1144061E-04   8.0130186E+04   -1.7278214E+00
   4.1334068E-04   7.9494916E+04   -1.7272500E+00
   4.1524953E-04   7.8864889E+04   -1.7266788E+00
   4.1716720E-04   7.8240061E+04   -1.7261079E+00
   4.1909372E-04   7.7620388E+04   -1.7255372E+00
   4.2102914E-04   7.7005825E+04   -1.7249668E+00
   4.2297350E-04   7.6396329E+04   -1.7243966E+00
   4.2492683E-04   7.5791856E+04   -1.7238267E+00
   4.2688919E-04   7.5192363E+04   -1.7232571E+00
   4.2886061E-04   7.4597808E+04   -1.7226877E+00
   4.3084113E-04   7.4008148E+04   -1.7221186E+00
   4.3283080E-04   7.3423342E+04   -1.7215499E+00
   4.3482966E-04   7.2843347E+04   -1.7209814E+00
   4.3683775E-04   7.2268123E+04   -1.7204132E+00
   4.3885511E-04   7.1697630E+04   -1.7198454E+00
   4.4088179E-04   7.1131825E+04   -1.7192778E+00
   4.4291783E-04   7.0570671E+04   -1.7187106E+00
   4.4496327E-04   7.0014126E+04   -1.7181437E+00
   4.4701816E-04   6.9462152E+04   -1.7175771E+00
   4.4908253E-04   6.8914709E+04   -1.7170109E+00
   4.5115644E-04   6.8371759E+04   -1.7164450E+00
   4.5323993E-04   6.7833263E+04   -1.7158795E+00
   4.5533304E-04   6.7299184E+04   -1.7153143E+00
   4.5743582E-04   6.6769484E+04   -1.7147494E+00
   4.5954830E-04   6.6244126E+04   -1.7141850E+00
   4.6167054E-04   6.5723072E+04   -1.7136209E+00
   4.6380259E-04   6.5206285E+04   -1.7130572E+00
   4.6594448E-04   6.4693731E+04   -1.7124939E+00
   4.6809626E-04   6.4185371E+04   -1.7119309E+00
   4.7025797E-04   6.3681172E+04   -1.7113684E+00
   4.7242967E-04   6.3181097E+04   -1.7108062E+00
   4.7461140E-04   6.2685111E+04   -1.7102445E+00
   4.7680321E-04   6.2193179E+04   -1.7096831E+00
   4.7900514E-04   6.1705268E+04   -1.7091222E+00
   4.8121723E-04   6.1221342E+04   -1.7085617E+00
   4.8343954E-04   6.0741369E+04   -1.7080017E+00
   4.8567212E-04   6.0265314E+04   -1.7074420E+00
   4.8791500E-04   5.9793144E+04   -1.7068828E+00
   4.9016825E-04   5.9324827E+04   -1.7063241E+00
   4.9243189E-04   5.8860329E+04   -1.7057658E+00
   4.9470600E-04   5.8399618E+04   -1.7052079E+00
   4.9699060E-04   5.7942661E+04   -1.7046505E+00
   4.9928575E-04   5.7489428E+04   -1.7040936E+00
   5.0159151E-04   5.7039887E+04   -1.7035371E+00
   5.0390791E-04   5.6594005E+04   -1.7029811E+00
   5.0623501E-04   5.6151753E+04   -1.7024256E+00
   5.0857286E-04   5.5713100E+04   -1.7018706E+00
   5.1092150E-04   5.5278014E+04   -1.7013161E+00
   5.1328099E-04   5.4846466E+04   -1.7007620E+00
   5.1565137E-04   5.4418427E+04   -1.7002085E+00
   5.1803270E-04   5.3993865E+04   -1.6996555E+00
   5.2042503E-04   5.3572752E+04   -1.6991030E+00
   5.2282841E-04   5.3155059E+04   -1.6985510E+00
   5.2524289E-04   5.2740757E+04   -1.6979995E+00
   5.2766851E-04   5.2329816E+04   -1.6974486E+00
   5.3010534E-04   5.1922209E+04   -1.6968981E+00
   5.3255342E-04   5.1517908E+04   -1.6963483E+00
   5.3501281E-04   5.1116884E+04   -1.6957989E+00
   5.3748356E-04   5.0719111E+04   -1.6952501E+00
   5.3996571E-04   5.0324559E+04   -1.6947019E+00
   5.4245933E-04   4.9933204E+04   -1.6941542E+00
   5.4496446E-04   4.9545016E+04   -1.6936071E+00
   5.4748117E-04   4.9159971E+04   -1.6930606E+00
   5.5000949E-04   4.8778040E+04   -1.6925146E+00
   5.5254949E-04   4.8399199E+04   -1.6919692E+00
   5.5510123E-04   4.8023420E+04   -1.6914244E+00
   5.5766474E-04   4.7650678E+04   -1.6908801E+00
   5.6024010E-04   4.7280948E+04   -1.6903365E+00
   5.6282734E-04   4.6914205E+04   -1.6897934E+00
   5.6542654E-04   4.6550422E+04   -1.6892510E+00
   5.6803774E-04   4.6189576E+04   -1.6887092E+00
   5.7066099E-04   4.5831641E+04   -1.6881679E+00
   5.7329637E-04   4.5476593E+04   -1.6876273E+00
   5.7594391E-04   4.5124408E+04   -1.6870873E+00
   5.7860368E-04   4.4775062E+04   -1.6865480E+00
   5.8127573E-04   4.4428531E+04   -1.6860092E+00
   5.8396012E-04   4.4084791E+04   -1.6854711E+00
   5.8665691E-04   4.3743819E+04   -1.6849336E+00
   5.8936616E-04   4.3405592E+04   -1.6843968E+00
   5.9208791E-04   4.3070086E+04   -1.6838606E+00
   5.9482223E-04   4.2737279E+04   -1.6833251E+00
   5.9756919E-04   4.2407148E+04   -1.6827902E+00
   6.0032882E-04   4.2079671E+04   -1.6822560E+00
   6.0310120E-04   4.1754826E+04   -1.6817225E+00
   6.0588639E-04   4.1432590E+04   -1.6811896E+00
   6.0868443E-04   4.1112942E+04   -1.6806574E+00
   6.1149540E-04   4.0795860E+04   -1.6801259E+00
   6.1431935E-04   4.0481322E+04   -1.6795950E+00
   6.1715634E-04   4.0169308E+04   -1.6790649E+00
   6.2000644E-04   3.9859796E+04   -1.6785354E+00
   6.2286969E-04   3.9552765E+04   -1.6780067E+00
