#        a       HoverH0(a)       dlogHdloga_of_a(a)
   1.0000000E-04   1.0349948E+06   -1.8764217E+00
   1.0046181E-04   1.0260862E+06   -1.8759925E+00
   1.0092575E-04   1.0172564E+06   -1.8755624E+00
   1.0139184E-04   1.0085046E+06   -1.8751312E+00
   1.0186008E-04   9.9982999E+05   -1.8746991E+00
   1.0233048E-04   9.9123201E+05   -1.8742659E+00
   1.0280305E-04   9.8270993E+05   -1.8738318E+00
   1.0327781E-04   9.7426307E+05   -1.8733966E+00
   1.0375475E-04   9.6589076E+05   -1.8729605E+00
   1.0423390E-04   9.5759232E+05   -1.8725234E+00
   1.0471527E-04   9.4936709E+05   -1.8720853E+00
   1.0519885E-04   9.4121441E+05   -1.8716462E+00
   1.0568467E-04   9.3313363E+05   -1.8712061E+00
   1.0617274E-04   9.2512410E+05   -1.8707650E+00
   1.0666305E-04   9.1718520E+05   -1.8703230E+00
   1.0715563E-04   9.0931627E+05   -1.8698799E+00
   1.0765049E-04   9.0151670E+05   -1.8694359E+00
   1.0814763E-04   8.9378586E+05   -1.8689909E+00
   1.0864707E-04   8.8612314E+05   -1.8685450E+00
   1.0914881E-04   8.7852791E+05   -1.8680980E+00
   1.0965287E-04   8.7099958E+05   -1.8676501E+00
   1.1015926E-04   8.6353755E+05   -1.8672012E+00
   1.1066799E-04   8.5614122E+05   -1.8667514E+00
   1.1117906E-04   8.4881000E+05   -1.8663005E+00
   1.1169250E-04   8.4154331E+05   -1.8658488E+00
   1.1220831E-04   8.3434056E+05   -1.8653960E+00
   1.1272650E-04   8.2720119E+05   -1.8649423E+00
   1.1324708E-04   8.2012463E+05   -1.8644876E+00
   1.1377007E-04   8.1311032E+05   -1.8640319E+00
   1.1429547E-04   8.0615769E+05   -1.8635753E+00
   1.1482330E-04   7.9926619E+05   -1.8631178E+00
   1.1535356E-04   7.9243528E+05   -1.8626592E+00
   1.1588628E-04   7.8566441E+05   -1.8621998E+00
   1.1642145E-04   7.7895305E+05   -1.8617394E+00
   1.1695910E-04   7.7230065E+05   -1.8612780E+00
   1.1749923E-04   7.6570669E+05   -1.8608157E+00
   1.1804185E-04   7.5917066E+05   -1.8603524E+00
   1.1858698E-04   7.5269202E+05   -1.8598882E+00
   1.1913463E-04   7.4627027E+05   -1.8594230E+00
   1.1968481E-04   7.3990489E+05   -1.8589570E+00
   1.2023752E-04   7.3359539E+05   -1.8584899E+00
   1.2079279E-04   7.2734125E+05   -1.8580220E+00
   1.2135063E-04   7.2114200E+05   -1.8575531E+00
   1.2191104E-04   7.1499712E+05   -1.8570833E+00
   1.2247403E-04   7.0890614E+05   -1.8566125E+00
   1.2303963E-04   7.0286858E+05   -1.8561408E+00
   1.2360784E-04   6.9688395E+05   -1.8556682E+00
   1.2417868E-04   6.9095179E+05   -1.8551947E+00
   1.2475215E-04   6.8507161E+05   -1.8547203E+00
   1.2532826E-04   6.7924297E+05   -1.8542449E+00
   1.2590704E-04   6.7346539E+05   -1.8537686E+00
   1.2648850E-04   6.6773842E+05   -1.8532915E+00
   1.2707263E-04   6.6206161E+05   -1.8528134E+00
   1.2765947E-04   6.5643451E+05   -1.8523344E+00
   1.2824901E-04   6.5085668E+05   -1.8518545E+00
   1.2884128E-04   6.4532767E+05   -1.8513736E+00
   1.2943628E-04   6.3984704E+05   -1.8508919E+00
   1.3003403E-04   6.3441438E+05   -1.8504093E+00
   1.3063454E-04   6.2902923E+05   -1.8499258E+00
   1.3123783E-04   6.2369119E+05   -1.8494415E+00
   1.3184390E-04   6.1839983E+05   -1.8489562E+00
   1.3245277E-04   6.1315474E+05   -1.8484700E+00
   1.3306445E-04   6.0795549E+05   -1.8479830E+00
   1.3367895E-04   6.0280169E+05   -1.8474950E+00
   1.3429630E-04   5.9769292E+05   -1.8470062E+00
   1.3491649E-04   5.9262878E+05   -1.8465166E+00
   1.3553955E-04   5.8760887E+05   -1.8460260E+00
   1.3616548E-04   5.8263281E+05   -1.8455346E+00
   1.3679431E-04   5.7770020E+05   -1.8450423E+00
   1.3742604E-04   5.7281065E+05   -1.8445491E+00
   1.3806069E-04   5.6796377E+05   -1.8440551E+00
   1.3869827E-04   5.6315918E+05   -1.8435603E+00
   1.3933879E-04   5.5839652E+05   -1.8430646E+00
   1.3998227E-04   5.5367540E+05   -1.8425680E+00
   1.4062872E-04   5.4899545E+05   -1.8420706E+00
   1.4127816E-04   5.4435631E+05   -1.8415723E+00
   1.4193060E-04   5.3975760E+05   -1.8410732E+00
   1.4258605E-04   5.3519898E+05   -1.8405732E+00
   1.4324453E-04   5.3068009E+05   -1.8400725E+00
   1.4390605E-04   5.2620056E+05   -1.8395708E+00
   1.4457062E-04   5.2176006E+05   -1.8390684E+00
   1.4523826E-04   5.1735822E+05   -1.8385651E+00
   1.4590899E-04   5.1299472E+05   -1.8380610E+00
   1.4658281E-04   5.0866919E+05   -1.8375561E+00
   1.4725974E-04   5.0438132E+05   -1.8370504E+00
   1.4793981E-04   5.0013075E+05   -1.8365439E+00
   1.4862301E-04   4.9591717E+05   -1.8360365E+00
   1.4930936E-04   4.9174023E+05   -1.8355284E+00
   1.4999889E-04   4.8759962E+05   -1.8350194E+00
   1.5069160E-04   4.8349500E+05   -1.8345097E+00
   1.5138751E-04   4.7942607E+05   -1.8339991E+00
   1.5208663E-04   4.7539250E+05   -1.8334878E+00
   1.5278899E-04   4.7139397E+05   -1.8329757E+00
   1.5349458E-04   4.6743019E+05   -1.8324627E+00
   1.5420343E-04   4.6350082E+05   -1.8319491E+00
   1.5491556E-04   4.5960558E+05   -1.8314346E+00
   1.5563098E-04   4.5574416E+05   -1.8309194E+00
   1.5634970E-04   4.5191625E+05   -1.8304033E+00
   1.5707174E-04   4.4812155E+05   -1.8298866E+00
   1.5779711E-04   4.4435978E+05   -1.8293690E+00
   1.5852584E-04   4.4063064E+05   -1.8288507E+00
   1.5925792E-04   4.3693384E+05   -1.8283317E+00
   1.5999339E-04   4.3326910E+05   -1.8278119E+00
   1.6073226E-04   4.2963611E+05   -1.8272914E+00
   1.6147454E-04   4.2603462E+05   -1.8267701E+00
   1.6222024E-04   4.2246433E+05   -1.8262480E+00
   1.6296939E-04   4.1892497E+05   -1.8257253E+00
   1.6372200E-04   4.1541626E+05   -1.8252018E+00
   1.6447809E-04   4.1193793E+05   -1.8246776E+00
   1.6523767E-04   4.0848972E+05   -1.8241527E+00
   1.6600075E-04   4.0507135E+05   -1.8236270E+00
   1.6676736E-04   4.0168256E+05   -1.8231006E+00
   1.6753751E-04   3.9832309E+05   -1.8225735E+00
   1.6831122E-04   3.9499267E+05   -1.8220458E+00
   1.6908849E-04   3.9169105E+05   -1.8215173E+00
   1.6986936E-04   3.8841798E+05   -1.8209881E+00
   1.7065384E-04   3.8517319E+05   -1.8204582E+00
   1.7144193E-04   3.8195645E+05   -1.8199277E+00
   1.7223367E-04   3.7876749E+05   -1.8193964E+00
   1.7302906E-04   3.7560608E+05   -1.8188645E+00
   1.7382813E-04   3.7247198E+05   -1.8183319E+00
   1.7463089E-04   3.6936493E+05   -1.8177986E+00
   1.7543735E-04   3.6628470E+05   -1.8172646E+00
   1.7624754E-04   3.6323105E+05   -1.8167300E+00
   1.7706147E-04   3.6020374E+05   -1.8161948E+00
   1.7787916E-04   3.5720255E+05   -1.8156589E+00
   1.7870062E-04   3.5422724E+05   -1.8151223E+00
   1.7952588E-04   3.5127758E+05   -1.8145851E+00
   1.8035495E-04   3.4835334E+05   -1.8140472E+00
   1.8118785E-04   3.4545430E+05   -1.8135087E+00
   1.8202459E-04   3.4258024E+05   -1.8129696E+00
   1.8286520E-04   3.3973094E+05   -1.8124299E+00
   1.8370969E-04   3.3690617E+05   -1.8118895E+00
   1.8455808E-04   3.3410573E+05   -1.8113485E+00
   1.8541039E-04   3.3132938E+05   -1.8108069E+00
   1.8626663E-04   3.2857693E+05   -1.8102647E+00
   1.8712683E-04   3.2584816E+05   -1.8097219E+00
   1.8799100E-04   3.2314286E+05   -1.8091785E+00
   1.8885917E-04   3.2046082E+05   -1.8086345E+00
   1.8973134E-04   3.1780184E+05   -1.8080899E+00
   1.9060754E-04   3.1516571E+05   -1.8075448E+00
   1.9148778E-04   3.1255223E+05   -1.8069990E+00
   1.9237209E-04   3.0996121E+05   -1.8064527E+00
   1.9326049E-04   3.0739244E+05   -1.8059058E+00
   1.9415299E-04   3.0484573E+05   -1.8053583E+00
   1.9504960E-04   3.0232088E+05   -1.8048103E+00
   1.9595036E-04   2.9981769E+05   -1.8042618E+00
   1.9685528E-04   2.9733599E+05   -1.8037126E+00
   1.9776438E-04   2.9487558E+05   -1.8031630E+00
   1.9867768E-04   2.9243626E+05   -1.8026128E+00
   1.9959519E-04   2.9001786E+05   -1.8020620E+00
   2.0051694E-04   2.8762019E+05   -1.8015108E+00
   2.0144295E-04   2.8524307E+05   -1.8009590E+00
   2.0237324E-04   2.8288631E+05   -1.8004067E+00
   2.0330782E-04   2.8054974E+05   -1.7998539E+00
   2.0424671E-04   2.7823318E+05   -1.7993005E+00
   2.0518995E-04   2.7593644E+05   -1.7987467E+00
   2.0613754E-04   2.7365937E+05   -1.7981924E+00
   2.0708950E-04   2.7140178E+05   -1.7976375E+00
   2.0804586E-04   2.6916351E+05   -1.7970822E+00
   2.0900664E-04   2.6694437E+05   -1.7965264E+00
   2.0997185E-04   2.6474422E+05   -1.7959702E+00
   2.1094152E-04   2.6256286E+05   -1.7954134E+00
   2.1191567E-04   2.6040015E+05   -1.7948562E+00
   2.1289432E-04   2.5825592E+05   -1.7942985E+00
   2.1387749E-04   2.5613000E+05   -1.7937404E+00
   2.1486520E-04   2.5402224E+05   -1.7931818E+00
   2.1585747E-04   2.5193246E+05   -1.7926228E+00
   2.1685432E-04   2.4986053E+05   -1.7920634E+00
   2.1785578E-04   2.4780627E+05   -1.7915035E+00
   2.1886186E-04   2.4576954E+05   -1.7909431E+00
   2.1987259E-04   2.4375018E+05   -1.7903824E+00
   2.2088798E-04   2.4174803E+05   -1.7898212E+00
   2.2190807E-04   2.3976295E+05   -1.7892596E+00
   2.2293286E-04   2.3779479E+05   -1.7886977E+00
   2.2396239E-04   2.3584339E+05   -1.7881353E+00
   2.2499667E-04   2.3390861E+05   -1.7875725E+00
   2.2603573E-04   2.3199031E+05   -1.7870093E+00
   2.2707958E-04   2.3008833E+05   -1.7864458E+00
   2.2812826E-04   2.2820254E+05   -1.7858818E+00
   2.2918178E-04   2.2633280E+05   -1.7853175E+00
   2.3024017E-04   2.2447896E+05   -1.7847528E+00
   2.3130344E-04   2.2264088E+05   -1.7841878E+00
   2.3237162E-04   2.2081843E+05   -1.7836224E+00
   2.3344474E-04   2.1901147E+05   -1.7830567E+00
   2.3452281E-04   2.1721986E+05   -1.7824906E+00
   2.3560586E-04   2.1544347E+05   -1.7819241E+00
   2.3669392E-04   2.1368216E+05   -1.7813574E+00
   2.3778699E-04   2.1193580E+05   -1.7807903E+00
   2.3888512E-04   2.1020427E+05   -1.7802229E+00
   2.3998831E-04   2.0848743E+05   -1.7796551E+00
   2.4109661E-04   2.0678515E+05   -1.7790871E+00
   2.4221001E-04   2.0509731E+05   -1.7785187E+00
   2.4332857E-04   2.0342378E+05   -1.7779501E+00
   2.4445228E-04   2.0176443E+05   -1.7773812E+00
   2.4558119E-04   2.0011915E+05   -1.7768119E+00
   2.4671531E-04   1.9848780E+05   -1.7762424E+00
   2.4785467E-04   1.9687026E+05   -1.7756726E+00
   2.4899928E-04   1.9526642E+05   -1.7751026E+00
   2.5014919E-04   1.9367616E+05   -1.7745323E+00
   2.5130440E-04   1.9209935E+05   -1.7739617E+00
   2.5246495E-04   1.9053588E+05   -1.7733908E+00
   2.5363086E-04   1.8898563E+05   -1.7728198E+00
   2.5480216E-04   1.8744849E+05   -1.7722485E+00
   2.5597886E-04   1.8592433E+05   -1.7716769E+00
   2.5716100E-04   1.8441306E+05   -1.7711051E+00
   2.5834859E-04   1.8291456E+05   -1.7705331E+00
   2.5954168E-04   1.8142871E+05   -1.7699609E+00
   2.6074027E-04   1.7995540E+05   -1.7693885E+00
   2.6194439E-04   1.7849453E+05   -1.7688158E+00
   2.6315408E-04   1.7704599E+05   -1.7682430E+00
   2.6436935E-04   1.7560966E+05   -1.7676700E+00
   2.6559024E-04   1.7418545E+05   -1.7670967E+00
   2.6681676E-04   1.7277324E+05   -1.7665233E+00
   2.6804895E-04   1.7137294E+05   -1.7659498E+00
   2.6928683E-04   1.6998443E+05   -1.7653760E+00
   2.7053042E-04   1.6860762E+05   -1.7648021E+00
   2.7177976E-04   1.6724241E+05   -1.7642281E+00
   2.7303487E-04   1.6588868E+05   -1.7636538E+00
   2.7429577E-04   1.6454635E+05   -1.7630795E+00
   2.7556250E-04   1.6321532E+05   -1.7625050E+00
   2.7683507E-04   1.6189548E+05   -1.7619304E+00
   2.7811353E-04   1.6058673E+05   -1.7613556E+00
   2.7939788E-04   1.5928899E+05   -1.7607807E+00
   2.8068817E-04   1.5800216E+05   -1.7602057E+00
   2.8198442E-04   1.5672614E+05   -1.7596306E+00
   2.8328665E-04   1.5546083E+05   -1.7590554E+00
   2.8459490E-04   1.5420615E+05   -1.7584801E+00
   2.8590919E-04   1.5296200E+05   -1.7579047E+00
   2.8722955E-04   1.5172828E+05   -1.7573293E+00
   2.8855600E-04   1.5050492E+05   -1.7567537E+00
   2.8988859E-04   1.4929182E+05   -1.7561781E+00
   2.9122732E-04   1.4808889E+05   -1.7556024E+00
   2.9257224E-04   1.4689604E+05   -1.7550266E+00
   2.9392337E-04   1.4571319E+05   -1.7544508E+00
   2.9528074E-04   1.4454024E+05   -1.7538750E+00
   2.9664438E-04   1.4337712E+05   -1.7532991E+00
   2.9801431E-04   1.4222373E+05   -1.7527232E+00
   2.9939057E-04   1.4108000E+05   -1.7521472E+00
   3.0077319E-04   1.3994584E+05   -1.7515712E+00
   3.0216219E-04   1.3882116E+05   -1.7509952E+00
   3.0355761E-04   1.3770588E+05   -1.7504192E+00
   3.0495947E-04   1.3659993E+05   -1.7498432E+00
   3.0636780E-04   1.3550322E+05   -1.7492672E+00
   3.0778264E-04   1.3441567E+05   -1.7486912E+00
   3.0920401E-04   1.3333721E+05   -1.7481152E+00
   3.1063195E-04   1.3226775E+05   -1.7475392E+00
   3.1206648E-04   1.3120721E+05   -1.7469632E+00
   3.1350764E-04   1.3015552E+05   -1.7463873E+00
   3.1495545E-04   1.2911261E+05   -1.7458114E+00
   3.1640994E-04   1.2807839E+05   -1.7452356E+00
   3.1787116E-04   1.2705280E+05   -1.7446598E+00
   3.1933912E-04   1.2603575E+05   -1.7440841E+00
   3.2081386E-04   1.2502717E+05   -1.7435084E+00
   3.2229541E-04   1.2402699E+05   -1.7429328E+00
   3.2378381E-04   1.2303514E+05   -1.7423573E+00
   3.2527908E-04   1.2205155E+05   -1.7417818E+00
   3.2678125E-04   1.2107614E+05   -1.7412065E+00
   3.2829036E-04   1.2010885E+05   -1.7406312E+00
   3.2980644E-04   1.1914959E+05   -1.7400560E+00
   3.3132952E-04   1.1819831E+05   -1.7394810E+00
   3.3285963E-04   1.1725494E+05   -1.7389060E+00
   3.3439681E-04   1.1631941E+05   -1.7383312E+00
   3.3594109E-04   1.1539164E+05   -1.7377565E+00
   3.3749250E-04   1.1447158E+05   -1.7371819E+00
   3.3905108E-04   1.1355916E+05   -1.7366074E+00
   3.4061685E-04   1.1265430E+05   -1.7360331E+00
   3.4218986E-04   1.1175695E+05   -1.7354590E+00
   3.4377013E-04   1.1086704E+05   -1.7348850E+00
   3.4535769E-04   1.0998451E+05   -1.7343111E+00
   3.4695259E-04   1.0910930E+05   -1.7337374E+00
   3.4855485E-04   1.0824133E+05   -1.7331639E+00
   3.5016452E-04   1.0738055E+05   -1.7325906E+00
   3.5178161E-04   1.0652690E+05   -1.7320174E+00
   3.5340618E-04   1.0568031E+05   -1.7314445E+00
   3.5503824E-04   1.0484073E+05   -1.7308717E+00
   3.5667785E-04   1.0400809E+05   -1.7302992E+00
   3.5832502E-04   1.0318234E+05   -1.7297268E+00
   3.5997981E-04   1.0236342E+05   -1.7291546E+00
   3.6164223E-04   1.0155126E+05   -1.7285827E+00
   3.6331233E-04   1.0074581E+05   -1.7280110E+00
   3.6499015E-04   9.9947010E+04   -1.7274396E+00
   3.6667571E-04   9.9154806E+04   -1.7268683E+00
   3.6836906E-04   9.8369140E+04   -1.7262973E+00
   3.7007022E-04   9.7589957E+04   -1.7257266E+00
   3.7177925E-04   9.6817199E+04   -1.7251561E+00
   3.7349616E-04   9.6050814E+04   -1.7245859E+00
   3.7522101E-04   9.5290745E+04   -1.7240159E+00
   3.7695382E-04   9.4536938E+04   -1.7234462E+00
   3.7869463E-04   9.3789342E+04   -1.7228768E+00
   3.8044348E-04   9.3047901E+04   -1.7223077E+00
   3.8220041E-04   9.2312563E+04   -1.7217388E+00
   3.8396545E-04   9.1583277E+04   -1.7211703E+00
   3.8573864E-04   9.0859990E+04   -1.7206021E+00
   3.8752002E-04   9.0142652E+04   -1.7200341E+00
   3.8930963E-04   8.9431210E+04   -1.7194665E+00
   3.9110750E-04   8.8725616E+04   -1.7188992E+00
   3.9291368E-04   8.8025818E+04   -1.7183322E+00
   3.9472820E-04   8.7331768E+04   -1.7177656E+00
   3.9655109E-04   8.6643417E+04   -1.7171993E+00
   3.9838241E-04   8.5960715E+04   -1.7166333E+00
   4.0022218E-04   8.5283615E+04   -1.7160677E+00
   4.0207045E-04   8.4612069E+04   -1.7155024E+00
   4.0392725E-04   8.3946029E+04   -1.7149375E+00
   4.0579263E-04   8.3285450E+04   -1.7143729E+00
   4.0766662E-04   8.2630283E+04   -1.7138088E+00
   4.0954927E-04   8.1980483E+04   -1.7132450E+00
   4.1144061E-04   8.1336004E+04   -1.7126815E+00
   4.1334068E-04   8.0696801E+04   -1.7121185E+00
   4.1524953E-04   8.0062829E+04   -1.7115559E+00
   4.1716720E-04   7.9434043E+04   -1.7109936E+00
   4.1909372E-04   7.8810400E+04   -1.7104318E+00
   4.2102914E-04   7.8191855E+04   -1.7098703E+00
   4.2297350E-04   7.7578366E+04   -1.7093093E+00
   4.2492683E-04   7.6969889E+04   -1.7087487E+00
   4.2688919E-04   7.6366381E+04   -1.7081886E+00
   4.2886061E-04   7.5767802E+04   -1.7076288E+00
   4.3084113E-04   7.5174108E+04   -1.7070695E+00
   4.3283080E-04   7.4585258E+04   -1.7065106E+00
   4.3482966E-04   7.4001211E+04   -1.7059522E+00
   4.3683775E-04   7.3421926E+04   -1.7053942E+00
   4.3885511E-04   7.2847363E+04   -1.7048367E+00
   4.4088179E-04   7.2277482E+04   -1.7042797E+00
   4.4291783E-04   7.1712243E+04   -1.7037231E+00
   4.4496327E-04   7.1151607E+04   -1.7031670E+00
   4.4701816E-04   7.0595534E+04   -1.7026114E+00
   4.4908253E-04   7.0043987E+04   -1.7020562E+00
   4.5115644E-04   6.9496926E+04   -1.7015016E+00
   4.5323993E-04   6.8954315E+04   -1.7009474E+00
   4.5533304E-04   6.8416114E+04   -1.7003938E+00
   4.5743582E-04   6.7882288E+04   -1.6998406E+00
   4.5954830E-04   6.7352798E+04   -1.6992880E+00
   4.6167054E-04   6.6827608E+04   -1.6987358E+00
   4.6380259E-04   6.6306682E+04   -1.6981842E+00
   4.6594448E-04   6.5789984E+04   -1.6976332E+00
   4.6809626E-04   6.5277478E+04   -1.6970826E+00
   4.7025797E-04   6.4769129E+04   -1.6965326E+00
   4.7242967E-04   6.4264901E+04   -1.6959831E+00
   4.7461140E-04   6.3764760E+04   -1.6954342E+00
   4.7680321E-04   6.3268671E+04   -1.6948858E+00
   4.7900514E-04   6.2776600E+04   -1.6943380E+00
   4.8121723E-04   6.2288514E+04   -1.6937907E+00
   4.8343954E-04   6.1804378E+04   -1.6932440E+00
   4.8567212E-04   6.1324160E+04   -1.6926979E+00
   4.8791500E-04   6.0847826E+04   -1.6921523E+00
   4.9016825E-04   6.0375343E+04   -1.6916074E+00
   4.9243189E-04   5.9906680E+04   -1.6910630E+00
   4.9470600E-04   5.9441803E+04   -1.6905192E+00
   4.9699060E-04   5.8980682E+04   -1.6899760E+00
   4.9928575E-04   5.8523284E+04   -1.6894334E+00
   5.0159151E-04   5.8069578E+04   -1.6888914E+00
   5.0390791E-04   5.7619534E+04   -1.6883500E+00
   5.0623501E-04   5.7173120E+04   -1.6878092E+00
   5.0857286E-04   5.6730306E+04   -1.6872691E+00
   5.1092150E-04   5.6291062E+04   -1.6867296E+00
   5.1328099E-04   5.5855357E+04   -1.6861906E+00
   5.1565137E-04   5.5423163E+04   -1.6856524E+00
   5.1803270E-04   5.4994449E+04   -1.6851147E+00
   5.2042503E-04   5.4569186E+04   -1.6845777E+00
   5.2282841E-04   5.4147345E+04   -1.6840414E+00
   5.2524289E-04   5.3728899E+04   -1.6835057E+00
   5.2766851E-04   5.3313817E+04   -1.6829707E+00
   5.3010534E-04   5.2902073E+04   -1.6824363E+00
   5.3255342E-04   5.2493637E+04   -1.6819026E+00
   5.3501281E-04   5.2088483E+04   -1.6813695E+00
   5.3748356E-04   5.1686583E+04   -1.6808371E+00
   5.3996571E-04   5.1287910E+04   -1.6803054E+00
   5.4245933E-04   5.0892436E+04   -1.6797744E+00
   5.4496446E-04   5.0500135E+04   -1.6792441E+00
   5.4748117E-04   5.0110981E+04   -1.6787144E+00
   5.5000949E-04   4.9724946E+04   -1.6781855E+00
   5.5254949E-04   4.9342006E+04   -1.6776572E+00
   5.5510123E-04   4.8962134E+04   -1.6771297E+00
   5.5766474E-04   4.8585304E+04   -1.6766028E+00
   5.6024010E-04   4.8211492E+04   -1.6760767E+00
   5.6282734E-04   4.7840671E+04   -1.6755513E+00
   5.6542654E-04   4.7472818E+04   -1.6750266E+00
   5.6803774E-04   4.7107907E+04   -1.6745026E+00
   5.7066099E-04   4.6745913E+04   -1.6739794E+00
   5.7329637E-04   4.6386813E+04   -1.6734569E+00
   5.7594391E-04   4.6030583E+04   -1.6729351E+00
   5.7860368E-04   4.5677198E+04   -1.6724140E+00
   5.8127573E-04   4.5326634E+04   -1.6718937E+00
   5.8396012E-04   4.4978869E+04   -1.6713742E+00
   5.8665691E-04   4.4633879E+04   -1.6708554E+00
   5.8936616E-04   4.4291640E+04   -1.6703373E+00
   5.9208791E-04   4.3952131E+04   -1.6698201E+00
   5.9482223E-04   4.3615328E+04   -1.6693035E+00
   5.9756919E-04   4.3281209E+04   -1.6687878E+00
   6.0032882E-04   4.2949751E+04   -1.6682728E+00
   6.0310120E-04   4.2620933E+04   -1.6677586E+00
   6.0588639E-04   4.2294732E+04   -1.6672451E+00
   6.0868443E-04   4.1971127E+04   -1.6667325E+00
   6.1149540E-04   4.1650097E+04   -1.6662206E+00
   6.1431935E-04   4.1331619E+04   -1.6657095E+00
   6.1715634E-04   4.1015673E+04   -1.6651992E+00
   6.2000644E-04   4.0702238E+04   -1.6646898E+00
   6.2286969E-04   4.0391293E+04   -1.6641811E+00
