#        a       HoverH0(a)       dlogHdloga_of_a(a)
   1.0000000E-04   1.1385563E+06   -1.8764898E+00
   1.0046181E-04   1.1287561E+06   -1.8760607E+00
   1.0092575E-04   1.1190424E+06   -1.8756307E+00
   1.0139184E-04   1.1094145E+06   -1.8751997E+00
   1.0186008E-04   1.0998716E+06   -1.8747677E+00
   1.0233048E-04   1.0904130E+06   -1.8743347E+00
   1.0280305E-04   1.0810378E+06   -1.8739007E+00
   1.0327781E-04   1.0717455E+06   -1.8734658E+00
   1.0375475E-04   1.0625351E+06   -1.8730298E+00
   1.0423390E-04   1.0534060E+06   -1.8725928E+00
   1.0471527E-04   1.0443574E+06   -1.8721549E+00
   1.0519885E-04   1.0353887E+06   -1.8717159E+00
   1.0568467E-04   1.0264991E+06   -1.8712760E+00
   1.0617274E-04   1.0176878E+06   -1.8708351E+00
   1.0666305E-04   1.0089542E+06   -1.8703932E+00
   1.0715563E-04   1.0002977E+06   -1.8699503E+00
   1.0765049E-04   9.9171739E+05   -1.8695065E+00
   1.0814763E-04   9.8321272E+05   -1.8690616E+00
   1.0864707E-04   9.7478299E+05   -1.8686158E+00
   1.0914881E-04   9.6642752E+05   -1.8681690E+00
   1.0965287E-04   9.5814565E+05   -1.8677213E+00
   1.1015926E-04   9.4993670E+05   -1.8672726E+00
   1.1066799E-04   9.4180004E+05   -1.8668228E+00
   1.1117906E-04   9.3373501E+05   -1.8663722E+00
   1.1169250E-04   9.2574096E+05   -1.8659205E+00
   1.1220831E-04   9.1781727E+05   -1.8654679E+00
   1.1272650E-04   9.0996330E+05   -1.8650144E+00
   1.1324708E-04   9.0217842E+05   -1.8645598E+00
   1.1377007E-04   8.9446202E+05   -1.8641043E+00
   1.1429547E-04   8.8681349E+05   -1.8636479E+00
   1.1482330E-04   8.7923221E+05   -1.8631905E+00
   1.1535356E-04   8.7171758E+05   -1.8627321E+00
   1.1588628E-04   8.6426900E+05   -1.8622728E+00
   1.1642145E-04   8.5688588E+05   -1.8618125E+00
   1.1695910E-04   8.4956763E+05   -1.8613513E+00
   1.1749923E-04   8.4231368E+05   -1.8608891E+00
   1.1804185E-04   8.3512345E+05   -1.8604260E+00
   1.1858698E-04   8.2799636E+05   -1.8599619E+00
   1.1913463E-04   8.2093186E+05   -1.8594969E+00
   1.1968481E-04   8.1392937E+05   -1.8590310E+00
   1.2023752E-04   8.0698835E+05   -1.8585641E+00
   1.2079279E-04   8.0010825E+05   -1.8580963E+00
   1.2135063E-04   7.9328851E+05   -1.8576276E+00
   1.2191104E-04   7.8652860E+05   -1.8571579E+00
   1.2247403E-04   7.7982799E+05   -1.8566873E+00
   1.2303963E-04   7.7318614E+05   -1.8562158E+00
   1.2360784E-04   7.6660252E+05   -1.8557433E+00
   1.2417868E-04   7.6007662E+05   -1.8552699E+00
   1.2475215E-04   7.5360791E+05   -1.8547956E+00
   1.2532826E-04   7.4719590E+05   -1.8543204E+00
   1.2590704E-04   7.4084006E+05   -1.8538443E+00
   1.2648850E-04   7.3453990E+05   -1.8533673E+00
   1.2707263E-04   7.2829492E+05   -1.8528893E+00
   1.2765947E-04   7.2210462E+05   -1.8524105E+00
   1.2824901E-04   7.1596853E+05   -1.8519307E+00
   1.2884128E-04   7.0988614E+05   -1.8514500E+00
   1.2943628E-04   7.0385699E+05   -1.8509685E+00
   1.3003403E-04   6.9788060E+05   -1.8504860E+00
   1.3063454E-04   6.9195649E+05   -1.8500026E+00
   1.3123783E-04   6.8608419E+05   -1.8495184E+00
   1.3184390E-04   6.8026325E+05   -1.8490333E+00
   1.3245277E-04   6.7449321E+05   -1.8485472E+00
   1.3306445E-04   6.6877360E+05   -1.8480603E+00
   1.3367895E-04   6.6310399E+05   -1.8475726E+00
   1.3429630E-04   6.5748392E+05   -1.8470839E+00
   1.3491649E-04   6.5191295E+05   -1.8465943E+00
   1.3553955E-04   6.4639064E+05   -1.8461039E+00
   1.3616548E-04   6.4091657E+05   -1.8456126E+00
   1.3679431E-04   6.3549029E+05   -1.8451205E+00
   1.3742604E-04   6.3011139E+05   -1.8446275E+00
   1.3806069E-04   6.2477943E+05   -1.8441336E+00
   1.3869827E-04   6.1949400E+05   -1.8436389E+00
   1.3933879E-04   6.1425469E+05   -1.8431433E+00
   1.3998227E-04   6.0906107E+05   -1.8426469E+00
   1.4062872E-04   6.0391276E+05   -1.8421496E+00
   1.4127816E-04   5.9880933E+05   -1.8416514E+00
   1.4193060E-04   5.9375040E+05   -1.8411525E+00
   1.4258605E-04   5.8873556E+05   -1.8406527E+00
   1.4324453E-04   5.8376442E+05   -1.8401520E+00
   1.4390605E-04   5.7883659E+05   -1.8396505E+00
   1.4457062E-04   5.7395169E+05   -1.8391482E+00
   1.4523826E-04   5.6910933E+05   -1.8386451E+00
   1.4590899E-04   5.6430913E+05   -1.8381411E+00
   1.4658281E-04   5.5955072E+05   -1.8376363E+00
   1.4725974E-04   5.5483373E+05   -1.8371307E+00
   1.4793981E-04   5.5015779E+05   -1.8366243E+00
   1.4862301E-04   5.4552252E+05   -1.8361171E+00
   1.4930936E-04   5.4092758E+05   -1.8356091E+00
   1.4999889E-04   5.3637259E+05   -1.8351003E+00
   1.5069160E-04   5.3185721E+05   -1.8345906E+00
   1.5138751E-04   5.2738108E+05   -1.8340802E+00
   1.5208663E-04   5.2294385E+05   -1.8335690E+00
   1.5278899E-04   5.1854517E+05   -1.8330570E+00
   1.5349458E-04   5.1418472E+05   -1.8325442E+00
   1.5420343E-04   5.0986213E+05   -1.8320307E+00
   1.5491556E-04   5.0557708E+05   -1.8315163E+00
   1.5563098E-04   5.0132923E+05   -1.8310012E+00
   1.5634970E-04   4.9711825E+05   -1.8304853E+00
   1.5707174E-04   4.9294382E+05   -1.8299687E+00
   1.5779711E-04   4.8880560E+05   -1.8294512E+00
   1.5852584E-04   4.8470328E+05   -1.8289331E+00
   1.5925792E-04   4.8063654E+05   -1.8284141E+00
   1.5999339E-04   4.7660505E+05   -1.8278945E+00
   1.6073226E-04   4.7260852E+05   -1.8273740E+00
   1.6147454E-04   4.6864662E+05   -1.8268529E+00
   1.6222024E-04   4.6471905E+05   -1.8263310E+00
   1.6296939E-04   4.6082551E+05   -1.8258083E+00
   1.6372200E-04   4.5696569E+05   -1.8252849E+00
   1.6447809E-04   4.5313929E+05   -1.8247608E+00
   1.6523767E-04   4.4934602E+05   -1.8242360E+00
   1.6600075E-04   4.4558558E+05   -1.8237105E+00
   1.6676736E-04   4.4185768E+05   -1.8231842E+00
   1.6753751E-04   4.3816203E+05   -1.8226573E+00
   1.6831122E-04   4.3449835E+05   -1.8221296E+00
   1.6908849E-04   4.3086635E+05   -1.8216012E+00
   1.6986936E-04   4.2726575E+05   -1.8210721E+00
   1.7065384E-04   4.2369628E+05   -1.8205424E+00
   1.7144193E-04   4.2015765E+05   -1.8200119E+00
   1.7223367E-04   4.1664959E+05   -1.8194808E+00
   1.7302906E-04   4.1317183E+05   -1.8189490E+00
   1.7382813E-04   4.0972411E+05   -1.8184165E+00
   1.7463089E-04   4.0630616E+05   -1.8178833E+00
   1.7543735E-04   4.0291771E+05   -1.8173494E+00
   1.7624754E-04   3.9955850E+05   -1.8168149E+00
   1.7706147E-04   3.9622827E+05   -1.8162798E+00
   1.7787916E-04   3.9292677E+05   -1.8157440E+00
   1.7870062E-04   3.8965374E+05   -1.8152075E+00
   1.7952588E-04   3.8640893E+05   -1.8146704E+00
   1.8035495E-04   3.8319209E+05   -1.8141326E+00
   1.8118785E-04   3.8000297E+05   -1.8135943E+00
   1.8202459E-04   3.7684133E+05   -1.8130552E+00
   1.8286520E-04   3.7370693E+05   -1.8125156E+00
   1.8370969E-04   3.7059951E+05   -1.8119753E+00
   1.8455808E-04   3.6751885E+05   -1.8114344E+00
   1.8541039E-04   3.6446471E+05   -1.8108929E+00
   1.8626663E-04   3.6143685E+05   -1.8103508E+00
   1.8712683E-04   3.5843504E+05   -1.8098081E+00
   1.8799100E-04   3.5545905E+05   -1.8092648E+00
   1.8885917E-04   3.5250865E+05   -1.8087209E+00
   1.8973134E-04   3.4958362E+05   -1.8081764E+00
   1.9060754E-04   3.4668373E+05   -1.8076313E+00
   1.9148778E-04   3.4380875E+05   -1.8070857E+00
   1.9237209E-04   3.4095848E+05   -1.8065394E+00
   1.9326049E-04   3.3813269E+05   -1.8059926E+00
   1.9415299E-04   3.3533116E+05   -1.8054453E+00
   1.9504960E-04   3.3255368E+05   -1.8048973E+00
   1.9595036E-04   3.2980005E+05   -1.8043489E+00
   1.9685528E-04   3.2707004E+05   -1.8037998E+00
   1.9776438E-04   3.2436345E+05   -1.8032503E+00
   1.9867768E-04   3.2168007E+05   -1.8027001E+00
   1.9959519E-04   3.1901970E+05   -1.8021495E+00
   2.0051694E-04   3.1638213E+05   -1.8015983E+00
   2.0144295E-04   3.1376717E+05   -1.8010466E+00
   2.0237324E-04   3.1117461E+05   -1.8004944E+00
   2.0330782E-04   3.0860426E+05   -1.7999416E+00
   2.0424671E-04   3.0605592E+05   -1.7993884E+00
   2.0518995E-04   3.0352940E+05   -1.7988346E+00
   2.0613754E-04   3.0102450E+05   -1.7982804E+00
   2.0708950E-04   2.9854104E+05   -1.7977256E+00
   2.0804586E-04   2.9607883E+05   -1.7971704E+00
   2.0900664E-04   2.9363767E+05   -1.7966147E+00
   2.0997185E-04   2.9121739E+05   -1.7960585E+00
   2.1094152E-04   2.8881779E+05   -1.7955018E+00
   2.1191567E-04   2.8643870E+05   -1.7949447E+00
   2.1289432E-04   2.8407994E+05   -1.7943871E+00
   2.1387749E-04   2.8174133E+05   -1.7938290E+00
   2.1486520E-04   2.7942269E+05   -1.7932705E+00
   2.1585747E-04   2.7712384E+05   -1.7927116E+00
   2.1685432E-04   2.7484462E+05   -1.7921522E+00
   2.1785578E-04   2.7258484E+05   -1.7915924E+00
   2.1886186E-04   2.7034434E+05   -1.7910321E+00
   2.1987259E-04   2.6812295E+05   -1.7904714E+00
   2.2088798E-04   2.6592050E+05   -1.7899103E+00
   2.2190807E-04   2.6373682E+05   -1.7893488E+00
   2.2293286E-04   2.6157175E+05   -1.7887869E+00
   2.2396239E-04   2.5942513E+05   -1.7882246E+00
   2.2499667E-04   2.5729679E+05   -1.7876618E+00
   2.2603573E-04   2.5518657E+05   -1.7870987E+00
   2.2707958E-04   2.5309431E+05   -1.7865352E+00
   2.2812826E-04   2.5101987E+05   -1.7859714E+00
   2.2918178E-04   2.4896307E+05   -1.7854071E+00
   2.3024017E-04   2.4692377E+05   -1.7848425E+00
   2.3130344E-04   2.4490181E+05   -1.7842775E+00
   2.3237162E-04   2.4289703E+05   -1.7837122E+00
   2.3344474E-04   2.4090930E+05   -1.7831465E+00
   2.3452281E-04   2.3893846E+05   -1.7825804E+00
   2.3560586E-04   2.3698436E+05   -1.7820141E+00
   2.3669392E-04   2.3504685E+05   -1.7814474E+00
   2.3778699E-04   2.3312580E+05   -1.7808803E+00
   2.3888512E-04   2.3122104E+05   -1.7803129E+00
   2.3998831E-04   2.2933245E+05   -1.7797453E+00
   2.4109661E-04   2.2745988E+05   -1.7791773E+00
   2.4221001E-04   2.2560320E+05   -1.7786090E+00
   2.4332857E-04   2.2376225E+05   -1.7780404E+00
   2.4445228E-04   2.2193691E+05   -1.7774715E+00
   2.4558119E-04   2.2012703E+05   -1.7769023E+00
   2.4671531E-04   2.1833249E+05   -1.7763328E+00
   2.4785467E-04   2.1655314E+05   -1.7757631E+00
   2.4899928E-04   2.1478886E+05   -1.7751931E+00
   2.5014919E-04   2.1303952E+05   -1.7746228E+00
   2.5130440E-04   2.1130497E+05   -1.7740523E+00
   2.5246495E-04   2.0958510E+05   -1.7734815E+00
   2.5363086E-04   2.0787978E+05   -1.7729104E+00
   2.5480216E-04   2.0618887E+05   -1.7723391E+00
   2.5597886E-04   2.0451226E+05   -1.7717676E+00
   2.5716100E-04   2.0284981E+05   -1.7711959E+00
   2.5834859E-04   2.0120141E+05   -1.7706239E+00
   2.5954168E-04   1.9956692E+05   -1.7700517E+00
   2.6074027E-04   1.9794624E+05   -1.7694793E+00
   2.6194439E-04   1.9633924E+05   -1.7689067E+00
   2.6315408E-04   1.9474580E+05   -1.7683339E+00
   2.6436935E-04   1.9316580E+05   -1.7677609E+00
   2.6559024E-04   1.9159912E+05   -1.7671877E+00
   2.6681676E-04   1.9004566E+05   -1.7666144E+00
   2.6804895E-04   1.8850528E+05   -1.7660408E+00
   2.6928683E-04   1.8697789E+05   -1.7654671E+00
   2.7053042E-04   1.8546336E+05   -1.7648932E+00
   2.7177976E-04   1.8396159E+05   -1.7643192E+00
   2.7303487E-04   1.8247246E+05   -1.7637450E+00
   2.7429577E-04   1.8099586E+05   -1.7631707E+00
   2.7556250E-04   1.7953168E+05   -1.7625962E+00
   2.7683507E-04   1.7807983E+05   -1.7620216E+00
   2.7811353E-04   1.7664018E+05   -1.7614468E+00
   2.7939788E-04   1.7521263E+05   -1.7608720E+00
   2.8068817E-04   1.7379708E+05   -1.7602970E+00
   2.8198442E-04   1.7239343E+05   -1.7597219E+00
   2.8328665E-04   1.7100156E+05   -1.7591467E+00
   2.8459490E-04   1.6962138E+05   -1.7585714E+00
   2.8590919E-04   1.6825279E+05   -1.7579961E+00
   2.8722955E-04   1.6689568E+05   -1.7574206E+00
   2.8855600E-04   1.6554996E+05   -1.7568451E+00
   2.8988859E-04   1.6421552E+05   -1.7562694E+00
   2.9122732E-04   1.6289227E+05   -1.7556938E+00
   2.9257224E-04   1.6158011E+05   -1.7551180E+00
   2.9392337E-04   1.6027895E+05   -1.7545422E+00
   2.9528074E-04   1.5898869E+05   -1.7539664E+00
   2.9664438E-04   1.5770923E+05   -1.7533905E+00
   2.9801431E-04   1.5644049E+05   -1.7528146E+00
   2.9939057E-04   1.5518236E+05   -1.7522386E+00
   3.0077319E-04   1.5393476E+05   -1.7516626E+00
   3.0216219E-04   1.5269760E+05   -1.7510866E+00
   3.0355761E-04   1.5147078E+05   -1.7505106E+00
   3.0495947E-04   1.5025421E+05   -1.7499346E+00
   3.0636780E-04   1.4904781E+05   -1.7493586E+00
   3.0778264E-04   1.4785149E+05   -1.7487826E+00
   3.0920401E-04   1.4666517E+05   -1.7482066E+00
   3.1063195E-04   1.4548874E+05   -1.7476306E+00
   3.1206648E-04   1.4432214E+05   -1.7470546E+00
   3.1350764E-04   1.4316527E+05   -1.7464787E+00
   3.1495545E-04   1.4201805E+05   -1.7459028E+00
   3.1640994E-04   1.4088040E+05   -1.7453270E+00
   3.1787116E-04   1.3975223E+05   -1.7447512E+00
   3.1933912E-04   1.3863347E+05   -1.7441754E+00
   3.2081386E-04   1.3752402E+05   -1.7435998E+00
   3.2229541E-04   1.3642382E+05   -1.7430242E+00
   3.2378381E-04   1.3533277E+05   -1.7424486E+00
   3.2527908E-04   1.3425081E+05   -1.7418732E+00
   3.2678125E-04   1.3317785E+05   -1.7412978E+00
   3.2829036E-04   1.3211382E+05   -1.7407225E+00
   3.2980644E-04   1.3105863E+05   -1.7401473E+00
   3.3132952E-04   1.3001222E+05   -1.7395722E+00
   3.3285963E-04   1.2897450E+05   -1.7389973E+00
   3.3439681E-04   1.2794541E+05   -1.7384224E+00
   3.3594109E-04   1.2692486E+05   -1.7378477E+00
   3.3749250E-04   1.2591278E+05   -1.7372731E+00
   3.3905108E-04   1.2490911E+05   -1.7366986E+00
   3.4061685E-04   1.2391377E+05   -1.7361243E+00
   3.4218986E-04   1.2292668E+05   -1.7355501E+00
   3.4377013E-04   1.2194778E+05   -1.7349761E+00
   3.4535769E-04   1.2097699E+05   -1.7344022E+00
   3.4695259E-04   1.2001425E+05   -1.7338285E+00
   3.4855485E-04   1.1905948E+05   -1.7332549E+00
   3.5016452E-04   1.1811262E+05   -1.7326816E+00
   3.5178161E-04   1.1717361E+05   -1.7321084E+00
   3.5340618E-04   1.1624236E+05   -1.7315354E+00
   3.5503824E-04   1.1531882E+05   -1.7309626E+00
   3.5667785E-04   1.1440292E+05   -1.7303900E+00
   3.5832502E-04   1.1349459E+05   -1.7298176E+00
   3.5997981E-04   1.1259377E+05   -1.7292454E+00
   3.6164223E-04   1.1170040E+05   -1.7286735E+00
   3.6331233E-04   1.1081441E+05   -1.7281017E+00
   3.6499015E-04   1.0993573E+05   -1.7275302E+00
   3.6667571E-04   1.0906431E+05   -1.7269590E+00
   3.6836906E-04   1.0820008E+05   -1.7263879E+00
   3.7007022E-04   1.0734298E+05   -1.7258171E+00
   3.7177925E-04   1.0649295E+05   -1.7252466E+00
   3.7349616E-04   1.0564993E+05   -1.7246764E+00
   3.7522101E-04   1.0481385E+05   -1.7241063E+00
   3.7695382E-04   1.0398467E+05   -1.7235366E+00
   3.7869463E-04   1.0316232E+05   -1.7229672E+00
   3.8044348E-04   1.0234674E+05   -1.7223980E+00
   3.8220041E-04   1.0153787E+05   -1.7218291E+00
   3.8396545E-04   1.0073566E+05   -1.7212605E+00
   3.8573864E-04   9.9940051E+04   -1.7206922E+00
   3.8752002E-04   9.9150985E+04   -1.7201242E+00
   3.8930963E-04   9.8368405E+04   -1.7195566E+00
   3.9110750E-04   9.7592257E+04   -1.7189892E+00
   3.9291368E-04   9.6822487E+04   -1.7184222E+00
   3.9472820E-04   9.6059039E+04   -1.7178555E+00
   3.9655109E-04   9.5301859E+04   -1.7172891E+00
   3.9838241E-04   9.4550894E+04   -1.7167231E+00
   4.0022218E-04   9.3806092E+04   -1.7161574E+00
   4.0207045E-04   9.3067399E+04   -1.7155921E+00
   4.0392725E-04   9.2334764E+04   -1.7150271E+00
   4.0579263E-04   9.1608134E+04   -1.7144625E+00
   4.0766662E-04   9.0887459E+04   -1.7138983E+00
   4.0954927E-04   9.0172688E+04   -1.7133344E+00
   4.1144061E-04   8.9463770E+04   -1.7127709E+00
   4.1334068E-04   8.8760656E+04   -1.7122078E+00
   4.1524953E-04   8.8063297E+04   -1.7116451E+00
   4.1716720E-04   8.7371642E+04   -1.7110828E+00
   4.1909372E-04   8.6685645E+04   -1.7105209E+00
   4.2102914E-04   8.6005256E+04   -1.7099594E+00
   4.2297350E-04   8.5330428E+04   -1.7093983E+00
   4.2492683E-04   8.4661114E+04   -1.7088377E+00
   4.2688919E-04   8.3997266E+04   -1.7082774E+00
   4.2886061E-04   8.3338840E+04   -1.7077176E+00
   4.3084113E-04   8.2685787E+04   -1.7071582E+00
   4.3283080E-04   8.2038064E+04   -1.7065993E+00
   4.3482966E-04   8.1395624E+04   -1.7060408E+00
   4.3683775E-04   8.0758422E+04   -1.7054828E+00
   4.3885511E-04   8.0126415E+04   -1.7049252E+00
   4.4088179E-04   7.9499558E+04   -1.7043681E+00
   4.4291783E-04   7.8877807E+04   -1.7038114E+00
   4.4496327E-04   7.8261120E+04   -1.7032552E+00
   4.4701816E-04   7.7649452E+04   -1.7026995E+00
   4.4908253E-04   7.7042763E+04   -1.7021443E+00
   4.5115644E-04   7.6441009E+04   -1.7015896E+00
   4.5323993E-04   7.5844150E+04   -1.7010353E+00
   4.5533304E-04   7.5252142E+04   -1.7004816E+00
   4.5743582E-04   7.4664947E+04   -1.6999284E+00
   4.5954830E-04   7.4082521E+04   -1.6993756E+00
   4.6167054E-04   7.3504826E+04   -1.6988234E+00
   4.6380259E-04   7.2931822E+04   -1.6982717E+00
   4.6594448E-04   7.2363468E+04   -1.6977206E+00
   4.6809626E-04   7.1799725E+04   -1.6971699E+00
   4.7025797E-04   7.1240555E+04   -1.6966198E+00
   4.7242967E-04   7.0685919E+04   -1.6960703E+00
   4.7461140E-04   7.0135778E+04   -1.6955213E+00
   4.7680321E-04   6.9590095E+04   -1.6949728E+00
   4.7900514E-04   6.9048832E+04   -1.6944249E+00
   4.8121723E-04   6.8511951E+04   -1.6938775E+00
   4.8343954E-04   6.7979417E+04   -1.6933307E+00
   4.8567212E-04   6.7451192E+04   -1.6927845E+00
   4.8791500E-04   6.6927239E+04   -1.6922389E+00
   4.9016825E-04   6.6407524E+04   -1.6916938E+00
   4.9243189E-04   6.5892009E+04   -1.6911493E+00
   4.9470600E-04   6.5380661E+04   -1.6906054E+00
   4.9699060E-04   6.4873443E+04   -1.6900622E+00
   4.9928575E-04   6.4370321E+04   -1.6895195E+00
   5.0159151E-04   6.3871260E+04   -1.6889774E+00
   5.0390791E-04   6.3376227E+04   -1.6884359E+00
   5.0623501E-04   6.2885188E+04   -1.6878950E+00
   5.0857286E-04   6.2398108E+04   -1.6873548E+00
   5.1092150E-04   6.1914956E+04   -1.6868151E+00
   5.1328099E-04   6.1435697E+04   -1.6862761E+00
   5.1565137E-04   6.0960299E+04   -1.6857377E+00
   5.1803270E-04   6.0488730E+04   -1.6852000E+00
   5.2042503E-04   6.0020957E+04   -1.6846629E+00
   5.2282841E-04   5.9556949E+04   -1.6841265E+00
   5.2524289E-04   5.9096674E+04   -1.6835907E+00
   5.2766851E-04   5.8640101E+04   -1.6830555E+00
   5.3010534E-04   5.8187199E+04   -1.6825210E+00
   5.3255342E-04   5.7737937E+04   -1.6819872E+00
   5.3501281E-04   5.7292284E+04   -1.6814540E+00
   5.3748356E-04   5.6850211E+04   -1.6809216E+00
   5.3996571E-04   5.6411687E+04   -1.6803897E+00
   5.4245933E-04   5.5976682E+04   -1.6798586E+00
   5.4496446E-04   5.5545168E+04   -1.6793282E+00
   5.4748117E-04   5.5117116E+04   -1.6787984E+00
   5.5000949E-04   5.4692495E+04   -1.6782694E+00
   5.5254949E-04   5.4271278E+04   -1.6777410E+00
   5.5510123E-04   5.3853436E+04   -1.6772133E+00
   5.5766474E-04   5.3438940E+04   -1.6766864E+00
   5.6024010E-04   5.3027764E+04   -1.6761601E+00
   5.6282734E-04   5.2619879E+04   -1.6756346E+00
   5.6542654E-04   5.2215257E+04   -1.6751098E+00
   5.6803774E-04   5.1813872E+04   -1.6745857E+00
   5.7066099E-04   5.1415697E+04   -1.6740623E+00
   5.7329637E-04   5.1020704E+04   -1.6735397E+00
   5.7594391E-04   5.0628868E+04   -1.6730178E+00
   5.7860368E-04   5.0240162E+04   -1.6724967E+00
   5.8127573E-04   4.9854560E+04   -1.6719762E+00
   5.8396012E-04   4.9472036E+04   -1.6714566E+00
   5.8665691E-04   4.9092564E+04   -1.6709376E+00
   5.8936616E-04   4.8716119E+04   -1.6704195E+00
   5.9208791E-04   4.8342677E+04   -1.6699021E+00
   5.9482223E-04   4.7972211E+04   -1.6693854E+00
   5.9756919E-04   4.7604698E+04   -1.6688696E+00
   6.0032882E-04   4.7240112E+04   -1.6683544E+00
   6.0310120E-04   4.6878430E+04   -1.6678401E+00
   6.0588639E-04   4.6519627E+04   -1.6673266E+00
   6.0868443E-04   4.6163679E+04   -1.6668138E+00
   6.1149540E-04   4.5810563E+04   -1.6663018E+00
   6.1431935E-04   4.5460255E+04   -1.6657906E+00
   6.1715634E-04   4.5112732E+04   -1.6652802E+00
   6.2000644E-04   4.4767972E+04   -1.6647705E+00
   6.2286969E-04   4.4425950E+04   -1.6642617E+00
