#        a       HoverH0(a)       dlogHdloga_of_a(a)
   1.0000000E-04   1.0805528E+06   -1.8554626E+00
   1.0046181E-04   1.0713557E+06   -1.8549887E+00
   1.0092575E-04   1.0622392E+06   -1.8545139E+00
   1.0139184E-04   1.0532026E+06   -1.8540381E+00
   1.0186008E-04   1.0442451E+06   -1.8535615E+00
   1.0233048E-04   1.0353661E+06   -1.8530839E+00
   1.0280305E-04   1.0265649E+06   -1.8526054E+00
   1.0327781E-04   1.0178407E+06   -1.8521260E+00
   1.0375475E-04   1.0091929E+06   -1.8516457E+00
   1.0423390E-04   1.0006208E+06   -1.8511645E+00
   1.0471527E-04   9.9212374E+05   -1.8506825E+00
   1.0519885E-04   9.8370099E+05   -1.8501995E+00
   1.0568467E-04   9.7535192E+05   -1.8497156E+00
   1.0617274E-04   9.6707586E+05   -1.8492308E+00
   1.0666305E-04   9.5887218E+05   -1.8487452E+00
   1.0715563E-04   9.5074022E+05   -1.8482586E+00
   1.0765049E-04   9.4267934E+05   -1.8477712E+00
   1.0814763E-04   9.3468890E+05   -1.8472829E+00
   1.0864707E-04   9.2676828E+05   -1.8467937E+00
   1.0914881E-04   9.1891685E+05   -1.8463037E+00
   1.0965287E-04   9.1113400E+05   -1.8458128E+00
   1.1015926E-04   9.0341911E+05   -1.8453210E+00
   1.1066799E-04   8.9577157E+05   -1.8448283E+00
   1.1117906E-04   8.8819079E+05   -1.8443348E+00
   1.1169250E-04   8.8067617E+05   -1.8438404E+00
   1.1220831E-04   8.7322712E+05   -1.8433452E+00
   1.1272650E-04   8.6584305E+05   -1.8428491E+00
   1.1324708E-04   8.5852339E+05   -1.8423522E+00
   1.1377007E-04   8.5126756E+05   -1.8418544E+00
   1.1429547E-04   8.4407499E+05   -1.8413558E+00
   1.1482330E-04   8.3694511E+05   -1.8408563E+00
   1.1535356E-04   8.2987737E+05   -1.8403560E+00
   1.1588628E-04   8.2287122E+05   -1.8398549E+00
   1.1642145E-04   8.1592609E+05   -1.8393529E+00
   1.1695910E-04   8.0904146E+05   -1.8388501E+00
   1.1749923E-04   8.0221678E+05   -1.8383465E+00
   1.1804185E-04   7.9545152E+05   -1.8378421E+00
   1.1858698E-04   7.8874514E+05   -1.8373368E+00
   1.1913463E-04   7.8209713E+05   -1.8368308E+00
   1.1968481E-04   7.7550696E+05   -1.8363239E+00
   1.2023752E-04   7.6897411E+05   -1.8358162E+00
   1.2079279E-04   7.6249809E+05   -1.8353077E+00
   1.2135063E-04   7.5607838E+05   -1.8347984E+00
   1.2191104E-04   7.4971448E+05   -1.8342883E+00
   1.2247403E-04   7.4340589E+05   -1.8337774E+00
   1.2303963E-04   7.3715212E+05   -1.8332658E+00
   1.2360784E-04   7.3095269E+05   -1.8327533E+00
   1.2417868E-04   7.2480710E+05   -1.8322401E+00
   1.2475215E-04   7.1871489E+05   -1.8317261E+00
   1.2532826E-04   7.1267557E+05   -1.8312113E+00
   1.2590704E-04   7.0668868E+05   -1.8306957E+00
   1.2648850E-04   7.0075374E+05   -1.8301794E+00
   1.2707263E-04   6.9487030E+05   -1.8296623E+00
   1.2765947E-04   6.8903790E+05   -1.8291444E+00
   1.2824901E-04   6.8325609E+05   -1.8286258E+00
   1.2884128E-04   6.7752442E+05   -1.8281065E+00
   1.2943628E-04   6.7184244E+05   -1.8275863E+00
   1.3003403E-04   6.6620970E+05   -1.8270655E+00
   1.3063454E-04   6.6062578E+05   -1.8265439E+00
   1.3123783E-04   6.5509023E+05   -1.8260216E+00
   1.3184390E-04   6.4960263E+05   -1.8254985E+00
   1.3245277E-04   6.4416256E+05   -1.8249747E+00
   1.3306445E-04   6.3876958E+05   -1.8244502E+00
   1.3367895E-04   6.3342329E+05   -1.8239249E+00
   1.3429630E-04   6.2812326E+05   -1.8233990E+00
   1.3491649E-04   6.2286909E+05   -1.8228723E+00
   1.3553955E-04   6.1766037E+05   -1.8223450E+00
   1.3616548E-04   6.1249670E+05   -1.8218169E+00
   1.3679431E-04   6.0737768E+05   -1.8212881E+00
   1.3742604E-04   6.0230291E+05   -1.8207586E+00
   1.3806069E-04   5.9727199E+05   -1.8202285E+00
   1.3869827E-04   5.9228455E+05   -1.8196976E+00
   1.3933879E-04   5.8734019E+05   -1.8191661E+00
   1.3998227E-04   5.8243853E+05   -1.8186339E+00
   1.4062872E-04   5.7757920E+05   -1.8181010E+00
   1.4127816E-04   5.7276182E+05   -1.8175674E+00
   1.4193060E-04   5.6798601E+05   -1.8170332E+00
   1.4258605E-04   5.6325141E+05   -1.8164983E+00
   1.4324453E-04   5.5855766E+05   -1.8159628E+00
   1.4390605E-04   5.5390439E+05   -1.8154266E+00
   1.4457062E-04   5.4929124E+05   -1.8148898E+00
   1.4523826E-04   5.4471786E+05   -1.8143523E+00
   1.4590899E-04   5.4018390E+05   -1.8138142E+00
   1.4658281E-04   5.3568900E+05   -1.8132754E+00
   1.4725974E-04   5.3123283E+05   -1.8127361E+00
   1.4793981E-04   5.2681503E+05   -1.8121961E+00
   1.4862301E-04   5.2243528E+05   -1.8116554E+00
   1.4930936E-04   5.1809323E+05   -1.8111142E+00
   1.4999889E-04   5.1378854E+05   -1.8105723E+00
   1.5069160E-04   5.0952090E+05   -1.8100299E+00
   1.5138751E-04   5.0528997E+05   -1.8094868E+00
   1.5208663E-04   5.0109542E+05   -1.8089432E+00
   1.5278899E-04   4.9693694E+05   -1.8083990E+00
   1.5349458E-04   4.9281421E+05   -1.8078541E+00
   1.5420343E-04   4.8872690E+05   -1.8073087E+00
   1.5491556E-04   4.8467472E+05   -1.8067627E+00
   1.5563098E-04   4.8065734E+05   -1.8062162E+00
   1.5634970E-04   4.7667447E+05   -1.8056691E+00
   1.5707174E-04   4.7272579E+05   -1.8051214E+00
   1.5779711E-04   4.6881100E+05   -1.8045731E+00
   1.5852584E-04   4.6492981E+05   -1.8040243E+00
   1.5925792E-04   4.6108191E+05   -1.8034750E+00
   1.5999339E-04   4.5726702E+05   -1.8029251E+00
   1.6073226E-04   4.5348485E+05   -1.8023747E+00
   1.6147454E-04   4.4973509E+05   -1.8018238E+00
   1.6222024E-04   4.4601748E+05   -1.8012723E+00
   1.6296939E-04   4.4233172E+05   -1.8007203E+00
   1.6372200E-04   4.3867753E+05   -1.8001678E+00
   1.6447809E-04   4.3505465E+05   -1.7996147E+00
   1.6523767E-04   4.3146278E+05   -1.7990612E+00
   1.6600075E-04   4.2790166E+05   -1.7985072E+00
   1.6676736E-04   4.2437101E+05   -1.7979527E+00
   1.6753751E-04   4.2087057E+05   -1.7973976E+00
   1.6831122E-04   4.1740007E+05   -1.7968421E+00
   1.6908849E-04   4.1395925E+05   -1.7962861E+00
   1.6986936E-04   4.1054785E+05   -1.7957297E+00
   1.7065384E-04   4.0716560E+05   -1.7951728E+00
   1.7144193E-04   4.0381226E+05   -1.7946154E+00
   1.7223367E-04   4.0048756E+05   -1.7940575E+00
   1.7302906E-04   3.9719126E+05   -1.7934992E+00
   1.7382813E-04   3.9392310E+05   -1.7929405E+00
   1.7463089E-04   3.9068284E+05   -1.7923813E+00
   1.7543735E-04   3.8747023E+05   -1.7918216E+00
   1.7624754E-04   3.8428503E+05   -1.7912616E+00
   1.7706147E-04   3.8112699E+05   -1.7907011E+00
   1.7787916E-04   3.7799589E+05   -1.7901402E+00
   1.7870062E-04   3.7489147E+05   -1.7895788E+00
   1.7952588E-04   3.7181352E+05   -1.7890171E+00
   1.8035495E-04   3.6876179E+05   -1.7884550E+00
   1.8118785E-04   3.6573606E+05   -1.7878924E+00
   1.8202459E-04   3.6273609E+05   -1.7873295E+00
   1.8286520E-04   3.5976166E+05   -1.7867662E+00
   1.8370969E-04   3.5681256E+05   -1.7862025E+00
   1.8455808E-04   3.5388854E+05   -1.7856384E+00
   1.8541039E-04   3.5098940E+05   -1.7850739E+00
   1.8626663E-04   3.4811492E+05   -1.7845091E+00
   1.8712683E-04   3.4526487E+05   -1.7839439E+00
   1.8799100E-04   3.4243906E+05   -1.7833784E+00
   1.8885917E-04   3.3963725E+05   -1.7828125E+00
   1.8973134E-04   3.3685925E+05   -1.7822463E+00
   1.9060754E-04   3.3410484E+05   -1.7816798E+00
   1.9148778E-04   3.3137382E+05   -1.7811129E+00
   1.9237209E-04   3.2866598E+05   -1.7805457E+00
   1.9326049E-04   3.2598112E+05   -1.7799781E+00
   1.9415299E-04   3.2331903E+05   -1.7794103E+00
   1.9504960E-04   3.2067953E+05   -1.7788421E+00
   1.9595036E-04   3.1806241E+05   -1.7782737E+00
   1.9685528E-04   3.1546747E+05   -1.7777049E+00
   1.9776438E-04   3.1289453E+05   -1.7771359E+00
   1.9867768E-04   3.1034338E+05   -1.7765665E+00
   1.9959519E-04   3.0781385E+05   -1.7759969E+00
   2.0051694E-04   3.0530573E+05   -1.7754271E+00
   2.0144295E-04   3.0281884E+05   -1.7748569E+00
   2.0237324E-04   3.0035300E+05   -1.7742865E+00
   2.0330782E-04   2.9790802E+05   -1.7737158E+00
   2.0424671E-04   2.9548372E+05   -1.7731449E+00
   2.0518995E-04   2.9307992E+05   -1.7725738E+00
   2.0613754E-04   2.9069644E+05   -1.7720024E+00
   2.0708950E-04   2.8833310E+05   -1.7714307E+00
   2.0804586E-04   2.8598974E+05   -1.7708589E+00
   2.0900664E-04   2.8366616E+05   -1.7702868E+00
   2.0997185E-04   2.8136221E+05   -1.7697145E+00
   2.1094152E-04   2.7907770E+05   -1.7691420E+00
   2.1191567E-04   2.7681247E+05   -1.7685693E+00
   2.1289432E-04   2.7456635E+05   -1.7679964E+00
   2.1387749E-04   2.7233918E+05   -1.7674233E+00
   2.1486520E-04   2.7013079E+05   -1.7668500E+00
   2.1585747E-04   2.6794101E+05   -1.7662766E+00
   2.1685432E-04   2.6576969E+05   -1.7657030E+00
   2.1785578E-04   2.6361666E+05   -1.7651292E+00
   2.1886186E-04   2.6148176E+05   -1.7645552E+00
   2.1987259E-04   2.5936484E+05   -1.7639811E+00
   2.2088798E-04   2.5726573E+05   -1.7634069E+00
   2.2190807E-04   2.5518429E+05   -1.7628325E+00
   2.2293286E-04   2.5312036E+05   -1.7622580E+00
   2.2396239E-04   2.5107379E+05   -1.7616833E+00
   2.2499667E-04   2.4904443E+05   -1.7611085E+00
   2.2603573E-04   2.4703212E+05   -1.7605336E+00
   2.2707958E-04   2.4503672E+05   -1.7599586E+00
   2.2812826E-04   2.4305808E+05   -1.7593835E+00
   2.2918178E-04   2.4109606E+05   -1.7588083E+00
   2.3024017E-04   2.3915051E+05   -1.7582329E+00
   2.3130344E-04   2.3722129E+05   -1.7576575E+00
   2.3237162E-04   2.3530826E+05   -1.7570821E+00
   2.3344474E-04   2.3341127E+05   -1.7565065E+00
   2.3452281E-04   2.3153019E+05   -1.7559309E+00
   2.3560586E-04   2.2966488E+05   -1.7553552E+00
   2.3669392E-04   2.2781520E+05   -1.7547794E+00
   2.3778699E-04   2.2598102E+05   -1.7542036E+00
   2.3888512E-04   2.2416220E+05   -1.7536278E+00
   2.3998831E-04   2.2235860E+05   -1.7530519E+00
   2.4109661E-04   2.2057011E+05   -1.7524760E+00
   2.4221001E-04   2.1879658E+05   -1.7519000E+00
   2.4332857E-04   2.1703789E+05   -1.7513241E+00
   2.4445228E-04   2.1529390E+05   -1.7507481E+00
   2.4558119E-04   2.1356450E+05   -1.7501721E+00
   2.4671531E-04   2.1184954E+05   -1.7495961E+00
   2.4785467E-04   2.1014892E+05   -1.7490201E+00
   2.4899928E-04   2.0846251E+05   -1.7484442E+00
   2.5014919E-04   2.0679017E+05   -1.7478682E+00
   2.5130440E-04   2.0513180E+05   -1.7472923E+00
   2.5246495E-04   2.0348726E+05   -1.7467164E+00
   2.5363086E-04   2.0185645E+05   -1.7461405E+00
   2.5480216E-04   2.0023923E+05   -1.7455647E+00
   2.5597886E-04   1.9863550E+05   -1.7449889E+00
   2.5716100E-04   1.9704514E+05   -1.7444131E+00
   2.5834859E-04   1.9546803E+05   -1.7438375E+00
   2.5954168E-04   1.9390405E+05   -1.7432619E+00
   2.6074027E-04   1.9235310E+05   -1.7426863E+00
   2.6194439E-04   1.9081506E+05   -1.7421109E+00
   2.6315408E-04   1.8928982E+05   -1.7415355E+00
   2.6436935E-04   1.8777727E+05   -1.7409602E+00
   2.6559024E-04   1.8627730E+05   -1.7403850E+00
   2.6681676E-04   1.8478980E+05   -1.7398099E+00
   2.6804895E-04   1.8331467E+05   -1.7392349E+00
   2.6928683E-04   1.8185179E+05   -1.7386601E+00
   2.7053042E-04   1.8040107E+05   -1.7380853E+00
   2.7177976E-04   1.7896239E+05   -1.7375107E+00
   2.7303487E-04   1.7753565E+05   -1.7369362E+00
   2.7429577E-04   1.7612076E+05   -1.7363618E+00
   2.7556250E-04   1.7471760E+05   -1.7357876E+00
   2.7683507E-04   1.7332608E+05   -1.7352136E+00
   2.7811353E-04   1.7194610E+05   -1.7346397E+00
   2.7939788E-04   1.7057756E+05   -1.7340659E+00
   2.8068817E-04   1.6922035E+05   -1.7334923E+00
   2.8198442E-04   1.6787439E+05   -1.7329189E+00
   2.8328665E-04   1.6653958E+05   -1.7323457E+00
   2.8459490E-04   1.6521581E+05   -1.7317727E+00
   2.8590919E-04   1.6390300E+05   -1.7311998E+00
   2.8722955E-04   1.6260105E+05   -1.7306272E+00
   2.8855600E-04   1.6130987E+05   -1.7300547E+00
   2.8988859E-04   1.6002936E+05   -1.7294825E+00
   2.9122732E-04   1.5875943E+05   -1.7289105E+00
   2.9257224E-04   1.5750000E+05   -1.7283387E+00
   2.9392337E-04   1.5625097E+05   -1.7277671E+00
   2.9528074E-04   1.5501225E+05   -1.7271958E+00
   2.9664438E-04   1.5378376E+05   -1.7266247E+00
   2.9801431E-04   1.5256541E+05   -1.7260539E+00
   2.9939057E-04   1.5135711E+05   -1.7254833E+00
   3.0077319E-04   1.5015877E+05   -1.7249129E+00
   3.0216219E-04   1.4897031E+05   -1.7243429E+00
   3.0355761E-04   1.4779164E+05   -1.7237731E+00
   3.0495947E-04   1.4662269E+05   -1.7232035E+00
   3.0636780E-04   1.4546336E+05   -1.7226343E+00
   3.0778264E-04   1.4431358E+05   -1.7220653E+00
   3.0920401E-04   1.4317326E+05   -1.7214966E+00
   3.1063195E-04   1.4204232E+05   -1.7209283E+00
   3.1206648E-04   1.4092069E+05   -1.7203602E+00
   3.1350764E-04   1.3980827E+05   -1.7197924E+00
   3.1495545E-04   1.3870501E+05   -1.7192250E+00
   3.1640994E-04   1.3761080E+05   -1.7186579E+00
   3.1787116E-04   1.3652559E+05   -1.7180911E+00
   3.1933912E-04   1.3544929E+05   -1.7175246E+00
   3.2081386E-04   1.3438182E+05   -1.7169585E+00
   3.2229541E-04   1.3332312E+05   -1.7163927E+00
   3.2378381E-04   1.3227310E+05   -1.7158273E+00
   3.2527908E-04   1.3123169E+05   -1.7152622E+00
   3.2678125E-04   1.3019882E+05   -1.7146975E+00
   3.2829036E-04   1.2917441E+05   -1.7141331E+00
   3.2980644E-04   1.2815840E+05   -1.7135692E+00
   3.3132952E-04   1.2715071E+05   -1.7130056E+00
   3.3285963E-04   1.2615127E+05   -1.7124423E+00
   3.3439681E-04   1.2516001E+05   -1.7118795E+00
   3.3594109E-04   1.2417686E+05   -1.7113171E+00
   3.3749250E-04   1.2320176E+05   -1.7107551E+00
   3.3905108E-04   1.2223462E+05   -1.7101934E+00
   3.4061685E-04   1.2127540E+05   -1.7096322E+00
   3.4218986E-04   1.2032401E+05   -1.7090714E+00
   3.4377013E-04   1.1938039E+05   -1.7085111E+00
   3.4535769E-04   1.1844448E+05   -1.7079511E+00
   3.4695259E-04   1.1751621E+05   -1.7073916E+00
   3.4855485E-04   1.1659552E+05   -1.7068325E+00
   3.5016452E-04   1.1568233E+05   -1.7062739E+00
   3.5178161E-04   1.1477659E+05   -1.7057157E+00
   3.5340618E-04   1.1387824E+05   -1.7051580E+00
   3.5503824E-04   1.1298721E+05   -1.7046007E+00
   3.5667785E-04   1.1210344E+05   -1.7040439E+00
   3.5832502E-04   1.1122687E+05   -1.7034876E+00
   3.5997981E-04   1.1035743E+05   -1.7029317E+00
   3.6164223E-04   1.0949507E+05   -1.7023764E+00
   3.6331233E-04   1.0863973E+05   -1.7018215E+00
   3.6499015E-04   1.0779134E+05   -1.7012671E+00
   3.6667571E-04   1.0694985E+05   -1.7007132E+00
   3.6836906E-04   1.0611521E+05   -1.7001598E+00
   3.7007022E-04   1.0528734E+05   -1.6996069E+00
   3.7177925E-04   1.0446620E+05   -1.6990545E+00
   3.7349616E-04   1.0365173E+05   -1.6985027E+00
   3.7522101E-04   1.0284386E+05   -1.6979513E+00
   3.7695382E-04   1.0204256E+05   -1.6974005E+00
   3.7869463E-04   1.0124775E+05   -1.6968503E+00
   3.8044348E-04   1.0045939E+05   -1.6963005E+00
   3.8220041E-04   9.9677420E+04   -1.6957513E+00
   3.8396545E-04   9.8901787E+04   -1.6952027E+00
   3.8573864E-04   9.8132438E+04   -1.6946546E+00
   3.8752002E-04   9.7369319E+04   -1.6941071E+00
   3.8930963E-04   9.6612378E+04   -1.6935601E+00
   3.9110750E-04   9.5861562E+04   -1.6930137E+00
   3.9291368E-04   9.5116821E+04   -1.6924679E+00
   3.9472820E-04   9.4378103E+04   -1.6919226E+00
   3.9655109E-04   9.3645357E+04   -1.6913780E+00
   3.9838241E-04   9.2918533E+04   -1.6908339E+00
   4.0022218E-04   9.2197582E+04   -1.6902904E+00
   4.0207045E-04   9.1482453E+04   -1.6897475E+00
   4.0392725E-04   9.0773098E+04   -1.6892052E+00
   4.0579263E-04   9.0069469E+04   -1.6886635E+00
   4.0766662E-04   8.9371516E+04   -1.6881225E+00
   4.0954927E-04   8.8679193E+04   -1.6875820E+00
   4.1144061E-04   8.7992452E+04   -1.6870422E+00
   4.1334068E-04   8.7311247E+04   -1.6865030E+00
   4.1524953E-04   8.6635530E+04   -1.6859644E+00
   4.1716720E-04   8.5965255E+04   -1.6854264E+00
   4.1909372E-04   8.5300378E+04   -1.6848891E+00
   4.2102914E-04   8.4640852E+04   -1.6843525E+00
   4.2297350E-04   8.3986634E+04   -1.6838165E+00
   4.2492683E-04   8.3337677E+04   -1.6832811E+00
   4.2688919E-04   8.2693939E+04   -1.6827464E+00
   4.2886061E-04   8.2055376E+04   -1.6822124E+00
   4.3084113E-04   8.1421944E+04   -1.6816790E+00
   4.3283080E-04   8.0793600E+04   -1.6811463E+00
   4.3482966E-04   8.0170301E+04   -1.6806142E+00
   4.3683775E-04   7.9552007E+04   -1.6800829E+00
   4.3885511E-04   7.8938673E+04   -1.6795522E+00
   4.4088179E-04   7.8330260E+04   -1.6790222E+00
   4.4291783E-04   7.7726726E+04   -1.6784930E+00
   4.4496327E-04   7.7128030E+04   -1.6779644E+00
   4.4701816E-04   7.6534131E+04   -1.6774365E+00
   4.4908253E-04   7.5944991E+04   -1.6769093E+00
   4.5115644E-04   7.5360568E+04   -1.6763828E+00
   4.5323993E-04   7.4780824E+04   -1.6758570E+00
   4.5533304E-04   7.4205720E+04   -1.6753320E+00
   4.5743582E-04   7.3635216E+04   -1.6748077E+00
   4.5954830E-04   7.3069275E+04   -1.6742841E+00
   4.6167054E-04   7.2507859E+04   -1.6737612E+00
   4.6380259E-04   7.1950929E+04   -1.6732391E+00
   4.6594448E-04   7.1398449E+04   -1.6727177E+00
   4.6809626E-04   7.0850381E+04   -1.6721970E+00
   4.7025797E-04   7.0306688E+04   -1.6716771E+00
   4.7242967E-04   6.9767335E+04   -1.6711579E+00
   4.7461140E-04   6.9232285E+04   -1.6706395E+00
   4.7680321E-04   6.8701502E+04   -1.6701218E+00
   4.7900514E-04   6.8174951E+04   -1.6696050E+00
   4.8121723E-04   6.7652597E+04   -1.6690888E+00
   4.8343954E-04   6.7134404E+04   -1.6685735E+00
   4.8567212E-04   6.6620339E+04   -1.6680589E+00
   4.8791500E-04   6.6110367E+04   -1.6675451E+00
   4.9016825E-04   6.5604453E+04   -1.6670320E+00
   4.9243189E-04   6.5102565E+04   -1.6665198E+00
   4.9470600E-04   6.4604669E+04   -1.6660083E+00
   4.9699060E-04   6.4110732E+04   -1.6654976E+00
   4.9928575E-04   6.3620721E+04   -1.6649877E+00
   5.0159151E-04   6.3134603E+04   -1.6644787E+00
   5.0390791E-04   6.2652346E+04   -1.6639704E+00
   5.0623501E-04   6.2173919E+04   -1.6634629E+00
   5.0857286E-04   6.1699289E+04   -1.6629562E+00
   5.1092150E-04   6.1228425E+04   -1.6624504E+00
   5.1328099E-04   6.0761296E+04   -1.6619453E+00
   5.1565137E-04   6.0297871E+04   -1.6614411E+00
   5.1803270E-04   5.9838120E+04   -1.6609377E+00
   5.2042503E-04   5.9382012E+04   -1.6604351E+00
   5.2282841E-04   5.8929516E+04   -1.6599333E+00
   5.2524289E-04   5.8480604E+04   -1.6594324E+00
   5.2766851E-04   5.8035246E+04   -1.6589323E+00
   5.3010534E-04   5.7593411E+04   -1.6584331E+00
   5.3255342E-04   5.7155072E+04   -1.6579347E+00
   5.3501281E-04   5.6720199E+04   -1.6574371E+00
   5.3748356E-04   5.6288763E+04   -1.6569404E+00
   5.3996571E-04   5.5860738E+04   -1.6564445E+00
   5.4245933E-04   5.5436093E+04   -1.6559495E+00
   5.4496446E-04   5.5014802E+04   -1.6554554E+00
   5.4748117E-04   5.4596837E+04   -1.6549621E+00
   5.5000949E-04   5.4182170E+04   -1.6544696E+00
   5.5254949E-04   5.3770775E+04   -1.6539780E+00
   5.5510123E-04   5.3362623E+04   -1.6534873E+00
   5.5766474E-04   5.2957690E+04   -1.6529975E+00
   5.6024010E-04   5.2555948E+04   -1.6525086E+00
   5.6282734E-04   5.2157371E+04   -1.6520205E+00
   5.6542654E-04   5.1761933E+04   -1.6515333E+00
   5.6803774E-04   5.1369608E+04   -1.6510470E+00
   5.7066099E-04   5.0980371E+04   -1.6505615E+00
   5.7329637E-04   5.0594197E+04   -1.6500770E+00
   5.7594391E-04   5.0211059E+04   -1.6495933E+00
   5.7860368E-04   4.9830934E+04   -1.6491106E+00
   5.8127573E-04   4.9453797E+04   -1.6486287E+00
   5.8396012E-04   4.9079623E+04   -1.6481477E+00
   5.8665691E-04   4.8708387E+04   -1.6476676E+00
   5.8936616E-04   4.8340067E+04   -1.6471885E+00
   5.9208791E-04   4.7974638E+04   -1.6467102E+00
   5.9482223E-04   4.7612075E+04   -1.6462329E+00
   5.9756919E-04   4.7252357E+04   -1.6457564E+00
   6.0032882E-04   4.6895459E+04   -1.6452809E+00
   6.0310120E-04   4.6541359E+04   -1.6448063E+00
   6.0588639E-04   4.6190033E+04   -1.6443326E+00
   6.0868443E-04   4.5841460E+04   -1.6438598E+00
   6.1149540E-04   4.5495615E+04   -1.6433880E+00
   6.1431935E-04   4.5152479E+04   -1.6429171E+00
   6.1715634E-04   4.4812027E+04   -1.6424471E+00
   6.2000644E-04   4.4474239E+04   -1.6419780E+00
   6.2286969E-04   4.4139092E+04   -1.6415099E+00
