#        a       HoverH0(a)       dlogHdloga_of_a(a)
   1.0000000E-04   1.1153244E+06   -1.8824319E+00
   1.0046181E-04   1.1056938E+06   -1.8820170E+00
   1.0092575E-04   1.0961484E+06   -1.8816012E+00
   1.0139184E-04   1.0866876E+06   -1.8811843E+00
   1.0186008E-04   1.0773104E+06   -1.8807664E+00
   1.0233048E-04   1.0680163E+06   -1.8803476E+00
   1.0280305E-04   1.0588044E+06   -1.8799277E+00
   1.0327781E-04   1.0496739E+06   -1.8795068E+00
   1.0375475E-04   1.0406242E+06   -1.8790849E+00
   1.0423390E-04   1.0316546E+06   -1.8786620E+00
   1.0471527E-04   1.0227642E+06   -1.8782381E+00
   1.0519885E-04   1.0139525E+06   -1.8778132E+00
   1.0568467E-04   1.0052186E+06   -1.8773872E+00
   1.0617274E-04   9.9656192E+05   -1.8769603E+00
   1.0666305E-04   9.8798174E+05   -1.8765324E+00
   1.0715563E-04   9.7947736E+05   -1.8761035E+00
   1.0765049E-04   9.7104812E+05   -1.8756736E+00
   1.0814763E-04   9.6269332E+05   -1.8752427E+00
   1.0864707E-04   9.5441230E+05   -1.8748108E+00
   1.0914881E-04   9.4620440E+05   -1.8743779E+00
   1.0965287E-04   9.3806897E+05   -1.8739440E+00
   1.1015926E-04   9.3000534E+05   -1.8735091E+00
   1.1066799E-04   9.2201287E+05   -1.8730732E+00
   1.1117906E-04   9.1409093E+05   -1.8726364E+00
   1.1169250E-04   9.0623888E+05   -1.8721985E+00
   1.1220831E-04   8.9845610E+05   -1.8717597E+00
   1.1272650E-04   8.9074195E+05   -1.8713198E+00
   1.1324708E-04   8.8309583E+05   -1.8708790E+00
   1.1377007E-04   8.7551713E+05   -1.8704372E+00
   1.1429547E-04   8.6800524E+05   -1.8699944E+00
   1.1482330E-04   8.6055955E+05   -1.8695507E+00
   1.1535356E-04   8.5317948E+05   -1.8691059E+00
   1.1588628E-04   8.4586444E+05   -1.8686602E+00
   1.1642145E-04   8.3861384E+05   -1.8682135E+00
   1.1695910E-04   8.3142710E+05   -1.8677659E+00
   1.1749923E-04   8.2430365E+05   -1.8673172E+00
   1.1804185E-04   8.1724293E+05   -1.8668676E+00
   1.1858698E-04   8.1024436E+05   -1.8664170E+00
   1.1913463E-04   8.0330740E+05   -1.8659655E+00
   1.1968481E-04   7.9643149E+05   -1.8655130E+00
   1.2023752E-04   7.8961608E+05   -1.8650595E+00
   1.2079279E-04   7.8286063E+05   -1.8646051E+00
   1.2135063E-04   7.7616461E+05   -1.8641497E+00
   1.2191104E-04   7.6952747E+05   -1.8636933E+00
   1.2247403E-04   7.6294869E+05   -1.8632360E+00
   1.2303963E-04   7.5642776E+05   -1.8627777E+00
   1.2360784E-04   7.4996414E+05   -1.8623185E+00
   1.2417868E-04   7.4355732E+05   -1.8618583E+00
   1.2475215E-04   7.3720681E+05   -1.8613972E+00
   1.2532826E-04   7.3091209E+05   -1.8609351E+00
   1.2590704E-04   7.2467265E+05   -1.8604721E+00
   1.2648850E-04   7.1848802E+05   -1.8600081E+00
   1.2707263E-04   7.1235769E+05   -1.8595432E+00
   1.2765947E-04   7.0628119E+05   -1.8590774E+00
   1.2824901E-04   7.0025802E+05   -1.8586106E+00
   1.2884128E-04   6.9428771E+05   -1.8581428E+00
   1.2943628E-04   6.8836979E+05   -1.8576742E+00
   1.3003403E-04   6.8250379E+05   -1.8572046E+00
   1.3063454E-04   6.7668924E+05   -1.8567341E+00
   1.3123783E-04   6.7092568E+05   -1.8562626E+00
   1.3184390E-04   6.6521266E+05   -1.8557903E+00
   1.3245277E-04   6.5954972E+05   -1.8553170E+00
   1.3306445E-04   6.5393642E+05   -1.8548428E+00
   1.3367895E-04   6.4837231E+05   -1.8543677E+00
   1.3429630E-04   6.4285695E+05   -1.8538916E+00
   1.3491649E-04   6.3738991E+05   -1.8534147E+00
   1.3553955E-04   6.3197075E+05   -1.8529368E+00
   1.3616548E-04   6.2659904E+05   -1.8524580E+00
   1.3679431E-04   6.2127437E+05   -1.8519784E+00
   1.3742604E-04   6.1599631E+05   -1.8514978E+00
   1.3806069E-04   6.1076444E+05   -1.8510163E+00
   1.3869827E-04   6.0557835E+05   -1.8505339E+00
   1.3933879E-04   6.0043764E+05   -1.8500507E+00
   1.3998227E-04   5.9534189E+05   -1.8495665E+00
   1.4062872E-04   5.9029070E+05   -1.8490815E+00
   1.4127816E-04   5.8528368E+05   -1.8485955E+00
   1.4193060E-04   5.8032043E+05   -1.8481087E+00
   1.4258605E-04   5.7540056E+05   -1.8476210E+00
   1.4324453E-04   5.7052368E+05   -1.8471324E+00
   1.4390605E-04   5.6568942E+05   -1.8466430E+00
   1.4457062E-04   5.6089738E+05   -1.8461526E+00
   1.4523826E-04   5.5614720E+05   -1.8456614E+00
   1.4590899E-04   5.5143849E+05   -1.8451694E+00
   1.4658281E-04   5.4677089E+05   -1.8446764E+00
   1.4725974E-04   5.4214403E+05   -1.8441826E+00
   1.4793981E-04   5.3755755E+05   -1.8436880E+00
   1.4862301E-04   5.3301108E+05   -1.8431925E+00
   1.4930936E-04   5.2850428E+05   -1.8426961E+00
   1.4999889E-04   5.2403678E+05   -1.8421989E+00
   1.5069160E-04   5.1960823E+05   -1.8417009E+00
   1.5138751E-04   5.1521830E+05   -1.8412020E+00
   1.5208663E-04   5.1086663E+05   -1.8407022E+00
   1.5278899E-04   5.0655288E+05   -1.8402017E+00
   1.5349458E-04   5.0227671E+05   -1.8397003E+00
   1.5420343E-04   4.9803780E+05   -1.8391980E+00
   1.5491556E-04   4.9383580E+05   -1.8386950E+00
   1.5563098E-04   4.8967040E+05   -1.8381911E+00
   1.5634970E-04   4.8554125E+05   -1.8376864E+00
   1.5707174E-04   4.8144804E+05   -1.8371809E+00
   1.5779711E-04   4.7739046E+05   -1.8366745E+00
   1.5852584E-04   4.7336817E+05   -1.8361674E+00
   1.5925792E-04   4.6938087E+05   -1.8356595E+00
   1.5999339E-04   4.6542825E+05   -1.8351507E+00
   1.6073226E-04   4.6151000E+05   -1.8346412E+00
   1.6147454E-04   4.5762581E+05   -1.8341308E+00
   1.6222024E-04   4.5377537E+05   -1.8336197E+00
   1.6296939E-04   4.4995840E+05   -1.8331077E+00
   1.6372200E-04   4.4617458E+05   -1.8325950E+00
   1.6447809E-04   4.4242363E+05   -1.8320815E+00
   1.6523767E-04   4.3870525E+05   -1.8315673E+00
   1.6600075E-04   4.3501916E+05   -1.8310522E+00
   1.6676736E-04   4.3136506E+05   -1.8305364E+00
   1.6753751E-04   4.2774267E+05   -1.8300198E+00
   1.6831122E-04   4.2415171E+05   -1.8295025E+00
   1.6908849E-04   4.2059190E+05   -1.8289844E+00
   1.6986936E-04   4.1706296E+05   -1.8284655E+00
   1.7065384E-04   4.1356462E+05   -1.8279459E+00
   1.7144193E-04   4.1009661E+05   -1.8274256E+00
   1.7223367E-04   4.0665866E+05   -1.8269045E+00
   1.7302906E-04   4.0325049E+05   -1.8263826E+00
   1.7382813E-04   3.9987186E+05   -1.8258601E+00
   1.7463089E-04   3.9652248E+05   -1.8253367E+00
   1.7543735E-04   3.9320211E+05   -1.8248127E+00
   1.7624754E-04   3.8991049E+05   -1.8242880E+00
   1.7706147E-04   3.8664735E+05   -1.8237625E+00
   1.7787916E-04   3.8341245E+05   -1.8232363E+00
   1.7870062E-04   3.8020555E+05   -1.8227094E+00
   1.7952588E-04   3.7702637E+05   -1.8221818E+00
   1.8035495E-04   3.7387470E+05   -1.8216535E+00
   1.8118785E-04   3.7075027E+05   -1.8211245E+00
   1.8202459E-04   3.6765284E+05   -1.8205948E+00
   1.8286520E-04   3.6458219E+05   -1.8200644E+00
   1.8370969E-04   3.6153807E+05   -1.8195333E+00
   1.8455808E-04   3.5852024E+05   -1.8190015E+00
   1.8541039E-04   3.5552847E+05   -1.8184691E+00
   1.8626663E-04   3.5256254E+05   -1.8179360E+00
   1.8712683E-04   3.4962221E+05   -1.8174022E+00
   1.8799100E-04   3.4670725E+05   -1.8168678E+00
   1.8885917E-04   3.4381744E+05   -1.8163327E+00
   1.8973134E-04   3.4095256E+05   -1.8157969E+00
   1.9060754E-04   3.3811239E+05   -1.8152605E+00
   1.9148778E-04   3.3529670E+05   -1.8147235E+00
   1.9237209E-04   3.3250529E+05   -1.8141858E+00
   1.9326049E-04   3.2973793E+05   -1.8136474E+00
   1.9415299E-04   3.2699442E+05   -1.8131085E+00
   1.9504960E-04   3.2427453E+05   -1.8125689E+00
   1.9595036E-04   3.2157808E+05   -1.8120287E+00
   1.9685528E-04   3.1890484E+05   -1.8114878E+00
   1.9776438E-04   3.1625461E+05   -1.8109464E+00
   1.9867768E-04   3.1362718E+05   -1.8104043E+00
   1.9959519E-04   3.1102237E+05   -1.8098617E+00
   2.0051694E-04   3.0843995E+05   -1.8093184E+00
   2.0144295E-04   3.0587975E+05   -1.8087746E+00
   2.0237324E-04   3.0334156E+05   -1.8082301E+00
   2.0330782E-04   3.0082518E+05   -1.8076851E+00
   2.0424671E-04   2.9833043E+05   -1.8071395E+00
   2.0518995E-04   2.9585711E+05   -1.8065933E+00
   2.0613754E-04   2.9340504E+05   -1.8060466E+00
   2.0708950E-04   2.9097402E+05   -1.8054993E+00
   2.0804586E-04   2.8856387E+05   -1.8049514E+00
   2.0900664E-04   2.8617441E+05   -1.8044029E+00
   2.0997185E-04   2.8380545E+05   -1.8038540E+00
   2.1094152E-04   2.8145682E+05   -1.8033044E+00
   2.1191567E-04   2.7912833E+05   -1.8027544E+00
   2.1289432E-04   2.7681980E+05   -1.8022038E+00
   2.1387749E-04   2.7453106E+05   -1.8016526E+00
   2.1486520E-04   2.7226194E+05   -1.8011010E+00
   2.1585747E-04   2.7001226E+05   -1.8005488E+00
   2.1685432E-04   2.6778185E+05   -1.7999961E+00
   2.1785578E-04   2.6557054E+05   -1.7994429E+00
   2.1886186E-04   2.6337816E+05   -1.7988892E+00
   2.1987259E-04   2.6120455E+05   -1.7983350E+00
   2.2088798E-04   2.5904954E+05   -1.7977803E+00
   2.2190807E-04   2.5691297E+05   -1.7972251E+00
   2.2293286E-04   2.5479467E+05   -1.7966694E+00
   2.2396239E-04   2.5269448E+05   -1.7961132E+00
   2.2499667E-04   2.5061224E+05   -1.7955566E+00
   2.2603573E-04   2.4854781E+05   -1.7949995E+00
   2.2707958E-04   2.4650101E+05   -1.7944419E+00
   2.2812826E-04   2.4447169E+05   -1.7938839E+00
   2.2918178E-04   2.4245970E+05   -1.7933255E+00
   2.3024017E-04   2.4046490E+05   -1.7927665E+00
   2.3130344E-04   2.3848711E+05   -1.7922072E+00
   2.3237162E-04   2.3652621E+05   -1.7916474E+00
   2.3344474E-04   2.3458203E+05   -1.7910872E+00
   2.3452281E-04   2.3265444E+05   -1.7905265E+00
   2.3560586E-04   2.3074328E+05   -1.7899655E+00
   2.3669392E-04   2.2884841E+05   -1.7894040E+00
   2.3778699E-04   2.2696969E+05   -1.7888421E+00
   2.3888512E-04   2.2510697E+05   -1.7882798E+00
   2.3998831E-04   2.2326012E+05   -1.7877171E+00
   2.4109661E-04   2.2142900E+05   -1.7871540E+00
   2.4221001E-04   2.1961347E+05   -1.7865906E+00
   2.4332857E-04   2.1781339E+05   -1.7860267E+00
   2.4445228E-04   2.1602862E+05   -1.7854625E+00
   2.4558119E-04   2.1425903E+05   -1.7848979E+00
   2.4671531E-04   2.1250450E+05   -1.7843330E+00
   2.4785467E-04   2.1076488E+05   -1.7837677E+00
   2.4899928E-04   2.0904004E+05   -1.7832020E+00
   2.5014919E-04   2.0732986E+05   -1.7826360E+00
   2.5130440E-04   2.0563421E+05   -1.7820696E+00
   2.5246495E-04   2.0395296E+05   -1.7815029E+00
   2.5363086E-04   2.0228599E+05   -1.7809359E+00
   2.5480216E-04   2.0063316E+05   -1.7803686E+00
   2.5597886E-04   1.9899436E+05   -1.7798009E+00
   2.5716100E-04   1.9736946E+05   -1.7792329E+00
   2.5834859E-04   1.9575834E+05   -1.7786647E+00
   2.5954168E-04   1.9416088E+05   -1.7780961E+00
   2.6074027E-04   1.9257696E+05   -1.7775272E+00
   2.6194439E-04   1.9100646E+05   -1.7769581E+00
   2.6315408E-04   1.8944927E+05   -1.7763886E+00
   2.6436935E-04   1.8790527E+05   -1.7758189E+00
   2.6559024E-04   1.8637434E+05   -1.7752489E+00
   2.6681676E-04   1.8485637E+05   -1.7746786E+00
   2.6804895E-04   1.8335124E+05   -1.7741081E+00
   2.6928683E-04   1.8185885E+05   -1.7735373E+00
   2.7053042E-04   1.8037907E+05   -1.7729663E+00
   2.7177976E-04   1.7891181E+05   -1.7723950E+00
   2.7303487E-04   1.7745695E+05   -1.7718235E+00
   2.7429577E-04   1.7601439E+05   -1.7712518E+00
   2.7556250E-04   1.7458401E+05   -1.7706798E+00
   2.7683507E-04   1.7316572E+05   -1.7701077E+00
   2.7811353E-04   1.7175939E+05   -1.7695353E+00
   2.7939788E-04   1.7036494E+05   -1.7689627E+00
   2.8068817E-04   1.6898226E+05   -1.7683899E+00
   2.8198442E-04   1.6761124E+05   -1.7678169E+00
   2.8328665E-04   1.6625178E+05   -1.7672437E+00
   2.8459490E-04   1.6490378E+05   -1.7666704E+00
   2.8590919E-04   1.6356715E+05   -1.7660968E+00
   2.8722955E-04   1.6224178E+05   -1.7655231E+00
   2.8855600E-04   1.6092757E+05   -1.7649492E+00
   2.8988859E-04   1.5962444E+05   -1.7643752E+00
   2.9122732E-04   1.5833227E+05   -1.7638010E+00
   2.9257224E-04   1.5705098E+05   -1.7632267E+00
   2.9392337E-04   1.5578047E+05   -1.7626522E+00
   2.9528074E-04   1.5452064E+05   -1.7620776E+00
   2.9664438E-04   1.5327141E+05   -1.7615029E+00
   2.9801431E-04   1.5203269E+05   -1.7609280E+00
   2.9939057E-04   1.5080437E+05   -1.7603530E+00
   3.0077319E-04   1.4958637E+05   -1.7597780E+00
   3.0216219E-04   1.4837861E+05   -1.7592028E+00
   3.0355761E-04   1.4718098E+05   -1.7586275E+00
   3.0495947E-04   1.4599341E+05   -1.7580521E+00
   3.0636780E-04   1.4481581E+05   -1.7574766E+00
   3.0778264E-04   1.4364809E+05   -1.7569011E+00
   3.0920401E-04   1.4249015E+05   -1.7563255E+00
   3.1063195E-04   1.4134193E+05   -1.7557498E+00
   3.1206648E-04   1.4020334E+05   -1.7551740E+00
   3.1350764E-04   1.3907428E+05   -1.7545982E+00
   3.1495545E-04   1.3795468E+05   -1.7540224E+00
   3.1640994E-04   1.3684446E+05   -1.7534465E+00
   3.1787116E-04   1.3574353E+05   -1.7528706E+00
   3.1933912E-04   1.3465182E+05   -1.7522946E+00
   3.2081386E-04   1.3356924E+05   -1.7517186E+00
   3.2229541E-04   1.3249572E+05   -1.7511426E+00
   3.2378381E-04   1.3143117E+05   -1.7505666E+00
   3.2527908E-04   1.3037553E+05   -1.7499906E+00
   3.2678125E-04   1.2932870E+05   -1.7494145E+00
   3.2829036E-04   1.2829063E+05   -1.7488385E+00
   3.2980644E-04   1.2726122E+05   -1.7482625E+00
   3.3132952E-04   1.2624040E+05   -1.7476865E+00
   3.3285963E-04   1.2522811E+05   -1.7471105E+00
   3.3439681E-04   1.2422426E+05   -1.7465346E+00
   3.3594109E-04   1.2322879E+05   -1.7459587E+00
   3.3749250E-04   1.2224162E+05   -1.7453828E+00
   3.3905108E-04   1.2126268E+05   -1.7448070E+00
   3.4061685E-04   1.2029190E+05   -1.7442313E+00
   3.4218986E-04   1.1932921E+05   -1.7436556E+00
   3.4377013E-04   1.1837453E+05   -1.7430799E+00
   3.4535769E-04   1.1742781E+05   -1.7425044E+00
   3.4695259E-04   1.1648896E+05   -1.7419289E+00
   3.4855485E-04   1.1555793E+05   -1.7413535E+00
   3.5016452E-04   1.1463464E+05   -1.7407782E+00
   3.5178161E-04   1.1371903E+05   -1.7402030E+00
   3.5340618E-04   1.1281103E+05   -1.7396279E+00
   3.5503824E-04   1.1191058E+05   -1.7390529E+00
   3.5667785E-04   1.1101761E+05   -1.7384780E+00
   3.5832502E-04   1.1013206E+05   -1.7379032E+00
   3.5997981E-04   1.0925386E+05   -1.7373286E+00
   3.6164223E-04   1.0838295E+05   -1.7367541E+00
   3.6331233E-04   1.0751927E+05   -1.7361798E+00
   3.6499015E-04   1.0666275E+05   -1.7356055E+00
   3.6667571E-04   1.0581334E+05   -1.7350315E+00
   3.6836906E-04   1.0497096E+05   -1.7344576E+00
   3.7007022E-04   1.0413557E+05   -1.7338838E+00
   3.7177925E-04   1.0330710E+05   -1.7333103E+00
   3.7349616E-04   1.0248549E+05   -1.7327369E+00
   3.7522101E-04   1.0167069E+05   -1.7321637E+00
   3.7695382E-04   1.0086263E+05   -1.7315906E+00
   3.7869463E-04   1.0006125E+05   -1.7310178E+00
   3.8044348E-04   9.9266508E+04   -1.7304452E+00
   3.8220041E-04   9.8478335E+04   -1.7298728E+00
   3.8396545E-04   9.7696677E+04   -1.7293005E+00
   3.8573864E-04   9.6921479E+04   -1.7287285E+00
   3.8752002E-04   9.6152686E+04   -1.7281568E+00
   3.8930963E-04   9.5390242E+04   -1.7275852E+00
   3.9110750E-04   9.4634093E+04   -1.7270139E+00
   3.9291368E-04   9.3884184E+04   -1.7264428E+00
   3.9472820E-04   9.3140464E+04   -1.7258720E+00
   3.9655109E-04   9.2402877E+04   -1.7253015E+00
   3.9838241E-04   9.1671373E+04   -1.7247311E+00
   4.0022218E-04   9.0945899E+04   -1.7241611E+00
   4.0207045E-04   9.0226403E+04   -1.7235913E+00
   4.0392725E-04   8.9512834E+04   -1.7230218E+00
   4.0579263E-04   8.8805141E+04   -1.7224526E+00
   4.0766662E-04   8.8103274E+04   -1.7218837E+00
   4.0954927E-04   8.7407184E+04   -1.7213151E+00
   4.1144061E-04   8.6716820E+04   -1.7207467E+00
   4.1334068E-04   8.6032134E+04   -1.7201787E+00
   4.1524953E-04   8.5353078E+04   -1.7196110E+00
   4.1716720E-04   8.4679603E+04   -1.7190436E+00
   4.1909372E-04   8.4011661E+04   -1.7184765E+00
   4.2102914E-04   8.3349206E+04   -1.7179097E+00
   4.2297350E-04   8.2692190E+04   -1.7173433E+00
   4.2492683E-04   8.2040567E+04   -1.7167773E+00
   4.2688919E-04   8.1394292E+04   -1.7162115E+00
   4.2886061E-04   8.0753318E+04   -1.7156461E+00
   4.3084113E-04   8.0117600E+04   -1.7150811E+00
   4.3283080E-04   7.9487094E+04   -1.7145165E+00
   4.3482966E-04   7.8861755E+04   -1.7139522E+00
   4.3683775E-04   7.8241539E+04   -1.7133883E+00
   4.3885511E-04   7.7626402E+04   -1.7128247E+00
   4.4088179E-04   7.7016301E+04   -1.7122616E+00
   4.4291783E-04   7.6411193E+04   -1.7116988E+00
   4.4496327E-04   7.5811037E+04   -1.7111364E+00
   4.4701816E-04   7.5215788E+04   -1.7105745E+00
   4.4908253E-04   7.4625407E+04   -1.7100129E+00
   4.5115644E-04   7.4039851E+04   -1.7094518E+00
   4.5323993E-04   7.3459080E+04   -1.7088911E+00
   4.5533304E-04   7.2883053E+04   -1.7083308E+00
   4.5743582E-04   7.2311729E+04   -1.7077709E+00
   4.5954830E-04   7.1745069E+04   -1.7072114E+00
   4.6167054E-04   7.1183032E+04   -1.7066524E+00
   4.6380259E-04   7.0625580E+04   -1.7060939E+00
   4.6594448E-04   7.0072675E+04   -1.7055358E+00
   4.6809626E-04   6.9524276E+04   -1.7049781E+00
   4.7025797E-04   6.8980346E+04   -1.7044210E+00
   4.7242967E-04   6.8440848E+04   -1.7038642E+00
   4.7461140E-04   6.7905742E+04   -1.7033080E+00
   4.7680321E-04   6.7374994E+04   -1.7027522E+00
   4.7900514E-04   6.6848564E+04   -1.7021969E+00
   4.8121723E-04   6.6326418E+04   -1.7016421E+00
   4.8343954E-04   6.5808518E+04   -1.7010878E+00
   4.8567212E-04   6.5294829E+04   -1.7005340E+00
   4.8791500E-04   6.4785315E+04   -1.6999807E+00
   4.9016825E-04   6.4279940E+04   -1.6994279E+00
   4.9243189E-04   6.3778670E+04   -1.6988757E+00
   4.9470600E-04   6.3281470E+04   -1.6983239E+00
   4.9699060E-04   6.2788306E+04   -1.6977727E+00
   4.9928575E-04   6.2299143E+04   -1.6972220E+00
   5.0159151E-04   6.1813948E+04   -1.6966718E+00
   5.0390791E-04   6.1332687E+04   -1.6961221E+00
   5.0623501E-04   6.0855327E+04   -1.6955731E+00
   5.0857286E-04   6.0381835E+04   -1.6950245E+00
   5.1092150E-04   5.9912178E+04   -1.6944765E+00
   5.1328099E-04   5.9446325E+04   -1.6939291E+00
   5.1565137E-04   5.8984242E+04   -1.6933822E+00
   5.1803270E-04   5.8525899E+04   -1.6928359E+00
   5.2042503E-04   5.8071263E+04   -1.6922902E+00
   5.2282841E-04   5.7620304E+04   -1.6917451E+00
   5.2524289E-04   5.7172990E+04   -1.6912005E+00
   5.2766851E-04   5.6729291E+04   -1.6906566E+00
   5.3010534E-04   5.6289177E+04   -1.6901132E+00
   5.3255342E-04   5.5852616E+04   -1.6895704E+00
   5.3501281E-04   5.5419580E+04   -1.6890282E+00
   5.3748356E-04   5.4990039E+04   -1.6884867E+00
   5.3996571E-04   5.4563963E+04   -1.6879457E+00
   5.4245933E-04   5.4141323E+04   -1.6874054E+00
   5.4496446E-04   5.3722091E+04   -1.6868657E+00
   5.4748117E-04   5.3306237E+04   -1.6863266E+00
   5.5000949E-04   5.2893734E+04   -1.6857881E+00
   5.5254949E-04   5.2484553E+04   -1.6852503E+00
   5.5510123E-04   5.2078667E+04   -1.6847131E+00
   5.5766474E-04   5.1676047E+04   -1.6841766E+00
   5.6024010E-04   5.1276666E+04   -1.6836407E+00
   5.6282734E-04   5.0880497E+04   -1.6831055E+00
   5.6542654E-04   5.0487514E+04   -1.6825709E+00
   5.6803774E-04   5.0097690E+04   -1.6820370E+00
   5.7066099E-04   4.9710997E+04   -1.6815037E+00
   5.7329637E-04   4.9327410E+04   -1.6809712E+00
   5.7594391E-04   4.8946904E+04   -1.6804393E+00
   5.7860368E-04   4.8569451E+04   -1.6799080E+00
   5.8127573E-04   4.8195027E+04   -1.6793775E+00
   5.8396012E-04   4.7823607E+04   -1.6788477E+00
   5.8665691E-04   4.7455164E+04   -1.6783185E+00
   5.8936616E-04   4.7089675E+04   -1.6777901E+00
   5.9208791E-04   4.6727115E+04   -1.6772623E+00
   5.9482223E-04   4.6367458E+04   -1.6767353E+00
   5.9756919E-04   4.6010682E+04   -1.6762089E+00
   6.0032882E-04   4.5656761E+04   -1.6756833E+00
   6.0310120E-04   4.5305672E+04   -1.6751584E+00
   6.0588639E-04   4.4957392E+04   -1.6746342E+00
   6.0868443E-04   4.4611897E+04   -1.6741108E+00
   6.1149540E-04   4.4269164E+04   -1.6735880E+00
   6.1431935E-04   4.3929169E+04   -1.6730660E+00
   6.1715634E-04   4.3591891E+04   -1.6725448E+00
   6.2000644E-04   4.3257306E+04   -1.6720243E+00
   6.2286969E-04   4.2925391E+04   -1.6715045E+00
