#        a       HoverH0(a)       dlogHdloga_of_a(a)
   1.0000000E-04   1.2091364E+06   -1.8668633E+00
   1.0046181E-04   1.1987818E+06   -1.8664127E+00
   1.0092575E-04   1.1885184E+06   -1.8659612E+00
   1.0139184E-04   1.1783453E+06   -1.8655086E+00
   1.0186008E-04   1.1682617E+06   -1.8650552E+00
   1.0233048E-04   1.1582668E+06   -1.8646007E+00
   1.0280305E-04   1.1483599E+06   -1.8641453E+00
   1.0327781E-04   1.1385400E+06   -1.8636889E+00
   1.0375475E-04   1.1288066E+06   -1.8632316E+00
   1.0423390E-04   1.1191586E+06   -1.8627733E+00
   1.0471527E-04   1.1095955E+06   -1.8623141E+00
   1.0519885E-04   1.1001165E+06   -1.8618539E+00
   1.0568467E-04   1.0907207E+06   -1.8613928E+00
   1.0617274E-04   1.0814075E+06   -1.8609307E+00
   1.0666305E-04   1.0721761E+06   -1.8604677E+00
   1.0715563E-04   1.0630257E+06   -1.8600037E+00
   1.0765049E-04   1.0539558E+06   -1.8595388E+00
   1.0814763E-04   1.0449654E+06   -1.8590730E+00
   1.0864707E-04   1.0360539E+06   -1.8586062E+00
   1.0914881E-04   1.0272207E+06   -1.8581384E+00
   1.0965287E-04   1.0184650E+06   -1.8576698E+00
   1.1015926E-04   1.0097861E+06   -1.8572002E+00
   1.1066799E-04   1.0011833E+06   -1.8567297E+00
   1.1117906E-04   9.9265592E+05   -1.8562582E+00
   1.1169250E-04   9.8420334E+05   -1.8557859E+00
   1.1220831E-04   9.7582486E+05   -1.8553126E+00
   1.1272650E-04   9.6751982E+05   -1.8548384E+00
   1.1324708E-04   9.5928756E+05   -1.8543632E+00
   1.1377007E-04   9.5112743E+05   -1.8538872E+00
   1.1429547E-04   9.4303879E+05   -1.8534103E+00
   1.1482330E-04   9.3502099E+05   -1.8529324E+00
   1.1535356E-04   9.2707340E+05   -1.8524536E+00
   1.1588628E-04   9.1919540E+05   -1.8519739E+00
   1.1642145E-04   9.1138635E+05   -1.8514934E+00
   1.1695910E-04   9.0364565E+05   -1.8510119E+00
   1.1749923E-04   8.9597268E+05   -1.8505295E+00
   1.1804185E-04   8.8836685E+05   -1.8500462E+00
   1.1858698E-04   8.8082754E+05   -1.8495621E+00
   1.1913463E-04   8.7335416E+05   -1.8490770E+00
   1.1968481E-04   8.6594613E+05   -1.8485911E+00
   1.2023752E-04   8.5860286E+05   -1.8481043E+00
   1.2079279E-04   8.5132377E+05   -1.8476166E+00
   1.2135063E-04   8.4410829E+05   -1.8471280E+00
   1.2191104E-04   8.3695586E+05   -1.8466385E+00
   1.2247403E-04   8.2986590E+05   -1.8461482E+00
   1.2303963E-04   8.2283786E+05   -1.8456570E+00
   1.2360784E-04   8.1587119E+05   -1.8451649E+00
   1.2417868E-04   8.0896534E+05   -1.8446720E+00
   1.2475215E-04   8.0211977E+05   -1.8441782E+00
   1.2532826E-04   7.9533394E+05   -1.8436835E+00
   1.2590704E-04   7.8860731E+05   -1.8431880E+00
   1.2648850E-04   7.8193936E+05   -1.8426917E+00
   1.2707263E-04   7.7532956E+05   -1.8421945E+00
   1.2765947E-04   7.6877740E+05   -1.8416964E+00
   1.2824901E-04   7.6228237E+05   -1.8411975E+00
   1.2884128E-04   7.5584394E+05   -1.8406978E+00
   1.2943628E-04   7.4946163E+05   -1.8401972E+00
   1.3003403E-04   7.4313492E+05   -1.8396958E+00
   1.3063454E-04   7.3686332E+05   -1.8391936E+00
   1.3123783E-04   7.3064634E+05   -1.8386905E+00
   1.3184390E-04   7.2448350E+05   -1.8381867E+00
   1.3245277E-04   7.1837430E+05   -1.8376820E+00
   1.3306445E-04   7.1231828E+05   -1.8371764E+00
   1.3367895E-04   7.0631496E+05   -1.8366701E+00
   1.3429630E-04   7.0036387E+05   -1.8361630E+00
   1.3491649E-04   6.9446455E+05   -1.8356550E+00
   1.3553955E-04   6.8861653E+05   -1.8351463E+00
   1.3616548E-04   6.8281936E+05   -1.8346367E+00
   1.3679431E-04   6.7707258E+05   -1.8341264E+00
   1.3742604E-04   6.7137575E+05   -1.8336152E+00
   1.3806069E-04   6.6572842E+05   -1.8331033E+00
   1.3869827E-04   6.6013015E+05   -1.8325906E+00
   1.3933879E-04   6.5458051E+05   -1.8320771E+00
   1.3998227E-04   6.4907906E+05   -1.8315629E+00
   1.4062872E-04   6.4362537E+05   -1.8310478E+00
   1.4127816E-04   6.3821902E+05   -1.8305320E+00
   1.4193060E-04   6.3285959E+05   -1.8300154E+00
   1.4258605E-04   6.2754665E+05   -1.8294981E+00
   1.4324453E-04   6.2227981E+05   -1.8289800E+00
   1.4390605E-04   6.1705864E+05   -1.8284611E+00
   1.4457062E-04   6.1188275E+05   -1.8279415E+00
   1.4523826E-04   6.0675172E+05   -1.8274212E+00
   1.4590899E-04   6.0166516E+05   -1.8269001E+00
   1.4658281E-04   5.9662268E+05   -1.8263782E+00
   1.4725974E-04   5.9162389E+05   -1.8258557E+00
   1.4793981E-04   5.8666839E+05   -1.8253324E+00
   1.4862301E-04   5.8175580E+05   -1.8248083E+00
   1.4930936E-04   5.7688574E+05   -1.8242836E+00
   1.4999889E-04   5.7205783E+05   -1.8237581E+00
   1.5069160E-04   5.6727170E+05   -1.8232319E+00
   1.5138751E-04   5.6252698E+05   -1.8227050E+00
   1.5208663E-04   5.5782330E+05   -1.8221774E+00
   1.5278899E-04   5.5316030E+05   -1.8216491E+00
   1.5349458E-04   5.4853761E+05   -1.8211201E+00
   1.5420343E-04   5.4395488E+05   -1.8205904E+00
   1.5491556E-04   5.3941176E+05   -1.8200600E+00
   1.5563098E-04   5.3490788E+05   -1.8195290E+00
   1.5634970E-04   5.3044291E+05   -1.8189972E+00
   1.5707174E-04   5.2601650E+05   -1.8184648E+00
   1.5779711E-04   5.2162831E+05   -1.8179317E+00
   1.5852584E-04   5.1727800E+05   -1.8173979E+00
   1.5925792E-04   5.1296523E+05   -1.8168635E+00
   1.5999339E-04   5.0868967E+05   -1.8163284E+00
   1.6073226E-04   5.0445099E+05   -1.8157926E+00
   1.6147454E-04   5.0024887E+05   -1.8152562E+00
   1.6222024E-04   4.9608297E+05   -1.8147192E+00
   1.6296939E-04   4.9195299E+05   -1.8141815E+00
   1.6372200E-04   4.8785860E+05   -1.8136432E+00
   1.6447809E-04   4.8379949E+05   -1.8131042E+00
   1.6523767E-04   4.7977534E+05   -1.8125646E+00
   1.6600075E-04   4.7578585E+05   -1.8120244E+00
   1.6676736E-04   4.7183071E+05   -1.8114836E+00
   1.6753751E-04   4.6790961E+05   -1.8109422E+00
   1.6831122E-04   4.6402225E+05   -1.8104001E+00
   1.6908849E-04   4.6016834E+05   -1.8098575E+00
   1.6986936E-04   4.5634759E+05   -1.8093142E+00
   1.7065384E-04   4.5255968E+05   -1.8087704E+00
   1.7144193E-04   4.4880435E+05   -1.8082260E+00
   1.7223367E-04   4.4508129E+05   -1.8076809E+00
   1.7302906E-04   4.4139023E+05   -1.8071353E+00
   1.7382813E-04   4.3773088E+05   -1.8065892E+00
   1.7463089E-04   4.3410296E+05   -1.8060424E+00
   1.7543735E-04   4.3050619E+05   -1.8054951E+00
   1.7624754E-04   4.2694030E+05   -1.8049472E+00
   1.7706147E-04   4.2340502E+05   -1.8043988E+00
   1.7787916E-04   4.1990007E+05   -1.8038499E+00
   1.7870062E-04   4.1642519E+05   -1.8033003E+00
   1.7952588E-04   4.1298011E+05   -1.8027503E+00
   1.8035495E-04   4.0956457E+05   -1.8021997E+00
   1.8118785E-04   4.0617831E+05   -1.8016486E+00
   1.8202459E-04   4.0282108E+05   -1.8010969E+00
   1.8286520E-04   3.9949260E+05   -1.8005447E+00
   1.8370969E-04   3.9619264E+05   -1.7999920E+00
   1.8455808E-04   3.9292094E+05   -1.7994389E+00
   1.8541039E-04   3.8967725E+05   -1.7988852E+00
   1.8626663E-04   3.8646132E+05   -1.7983310E+00
   1.8712683E-04   3.8327291E+05   -1.7977763E+00
   1.8799100E-04   3.8011178E+05   -1.7972211E+00
   1.8885917E-04   3.7697769E+05   -1.7966654E+00
   1.8973134E-04   3.7387039E+05   -1.7961093E+00
   1.9060754E-04   3.7078966E+05   -1.7955527E+00
   1.9148778E-04   3.6773526E+05   -1.7949956E+00
   1.9237209E-04   3.6470695E+05   -1.7944380E+00
   1.9326049E-04   3.6170451E+05   -1.7938800E+00
   1.9415299E-04   3.5872772E+05   -1.7933216E+00
   1.9504960E-04   3.5577633E+05   -1.7927627E+00
   1.9595036E-04   3.5285014E+05   -1.7922033E+00
   1.9685528E-04   3.4994892E+05   -1.7916435E+00
   1.9776438E-04   3.4707245E+05   -1.7910833E+00
   1.9867768E-04   3.4422051E+05   -1.7905227E+00
   1.9959519E-04   3.4139288E+05   -1.7899616E+00
   2.0051694E-04   3.3858936E+05   -1.7894002E+00
   2.0144295E-04   3.3580974E+05   -1.7888383E+00
   2.0237324E-04   3.3305379E+05   -1.7882760E+00
   2.0330782E-04   3.3032132E+05   -1.7877134E+00
   2.0424671E-04   3.2761211E+05   -1.7871503E+00
   2.0518995E-04   3.2492597E+05   -1.7865868E+00
   2.0613754E-04   3.2226269E+05   -1.7860230E+00
   2.0708950E-04   3.1962207E+05   -1.7854588E+00
   2.0804586E-04   3.1700391E+05   -1.7848942E+00
   2.0900664E-04   3.1440802E+05   -1.7843293E+00
   2.0997185E-04   3.1183419E+05   -1.7837640E+00
   2.1094152E-04   3.0928224E+05   -1.7831983E+00
   2.1191567E-04   3.0675198E+05   -1.7826323E+00
   2.1289432E-04   3.0424321E+05   -1.7820660E+00
   2.1387749E-04   3.0175574E+05   -1.7814993E+00
   2.1486520E-04   2.9928939E+05   -1.7809323E+00
   2.1585747E-04   2.9684398E+05   -1.7803650E+00
   2.1685432E-04   2.9441932E+05   -1.7797974E+00
   2.1785578E-04   2.9201523E+05   -1.7792294E+00
   2.1886186E-04   2.8963152E+05   -1.7786612E+00
   2.1987259E-04   2.8726803E+05   -1.7780926E+00
   2.2088798E-04   2.8492457E+05   -1.7775237E+00
   2.2190807E-04   2.8260097E+05   -1.7769546E+00
   2.2293286E-04   2.8029705E+05   -1.7763852E+00
   2.2396239E-04   2.7801264E+05   -1.7758155E+00
   2.2499667E-04   2.7574758E+05   -1.7752455E+00
   2.2603573E-04   2.7350169E+05   -1.7746752E+00
   2.2707958E-04   2.7127480E+05   -1.7741047E+00
   2.2812826E-04   2.6906676E+05   -1.7735340E+00
   2.2918178E-04   2.6687739E+05   -1.7729630E+00
   2.3024017E-04   2.6470652E+05   -1.7723917E+00
   2.3130344E-04   2.6255401E+05   -1.7718202E+00
   2.3237162E-04   2.6041969E+05   -1.7712485E+00
   2.3344474E-04   2.5830340E+05   -1.7706766E+00
   2.3452281E-04   2.5620498E+05   -1.7701044E+00
   2.3560586E-04   2.5412428E+05   -1.7695321E+00
   2.3669392E-04   2.5206114E+05   -1.7689595E+00
   2.3778699E-04   2.5001542E+05   -1.7683867E+00
   2.3888512E-04   2.4798694E+05   -1.7678137E+00
   2.3998831E-04   2.4597558E+05   -1.7672406E+00
   2.4109661E-04   2.4398118E+05   -1.7666672E+00
   2.4221001E-04   2.4200358E+05   -1.7660937E+00
   2.4332857E-04   2.4004265E+05   -1.7655200E+00
   2.4445228E-04   2.3809824E+05   -1.7649462E+00
   2.4558119E-04   2.3617020E+05   -1.7643722E+00
   2.4671531E-04   2.3425839E+05   -1.7637980E+00
   2.4785467E-04   2.3236268E+05   -1.7632237E+00
   2.4899928E-04   2.3048291E+05   -1.7626493E+00
   2.5014919E-04   2.2861896E+05   -1.7620747E+00
   2.5130440E-04   2.2677069E+05   -1.7615000E+00
   2.5246495E-04   2.2493795E+05   -1.7609251E+00
   2.5363086E-04   2.2312061E+05   -1.7603502E+00
   2.5480216E-04   2.2131854E+05   -1.7597751E+00
   2.5597886E-04   2.1953161E+05   -1.7591999E+00
   2.5716100E-04   2.1775969E+05   -1.7586247E+00
   2.5834859E-04   2.1600264E+05   -1.7580493E+00
   2.5954168E-04   2.1426033E+05   -1.7574739E+00
   2.6074027E-04   2.1253264E+05   -1.7568984E+00
   2.6194439E-04   2.1081944E+05   -1.7563228E+00
   2.6315408E-04   2.0912061E+05   -1.7557471E+00
   2.6436935E-04   2.0743601E+05   -1.7551714E+00
   2.6559024E-04   2.0576554E+05   -1.7545956E+00
   2.6681676E-04   2.0410905E+05   -1.7540198E+00
   2.6804895E-04   2.0246644E+05   -1.7534439E+00
   2.6928683E-04   2.0083758E+05   -1.7528680E+00
   2.7053042E-04   1.9922235E+05   -1.7522921E+00
   2.7177976E-04   1.9762064E+05   -1.7517161E+00
   2.7303487E-04   1.9603233E+05   -1.7511401E+00
   2.7429577E-04   1.9445730E+05   -1.7505641E+00
   2.7556250E-04   1.9289543E+05   -1.7499881E+00
   2.7683507E-04   1.9134662E+05   -1.7494121E+00
   2.7811353E-04   1.8981074E+05   -1.7488361E+00
   2.7939788E-04   1.8828770E+05   -1.7482601E+00
   2.8068817E-04   1.8677737E+05   -1.7476842E+00
   2.8198442E-04   1.8527964E+05   -1.7471082E+00
   2.8328665E-04   1.8379442E+05   -1.7465323E+00
   2.8459490E-04   1.8232158E+05   -1.7459564E+00
   2.8590919E-04   1.8086103E+05   -1.7453806E+00
   2.8722955E-04   1.7941265E+05   -1.7448048E+00
   2.8855600E-04   1.7797635E+05   -1.7442291E+00
   2.8988859E-04   1.7655201E+05   -1.7436534E+00
   2.9122732E-04   1.7513953E+05   -1.7430778E+00
   2.9257224E-04   1.7373882E+05   -1.7425023E+00
   2.9392337E-04   1.7234976E+05   -1.7419268E+00
   2.9528074E-04   1.7097227E+05   -1.7413515E+00
   2.9664438E-04   1.6960623E+05   -1.7407762E+00
   2.9801431E-04   1.6825155E+05   -1.7402010E+00
   2.9939057E-04   1.6690814E+05   -1.7396260E+00
   3.0077319E-04   1.6557589E+05   -1.7390510E+00
   3.0216219E-04   1.6425471E+05   -1.7384761E+00
   3.0355761E-04   1.6294450E+05   -1.7379014E+00
   3.0495947E-04   1.6164518E+05   -1.7373268E+00
   3.0636780E-04   1.6035663E+05   -1.7367524E+00
   3.0778264E-04   1.5907878E+05   -1.7361780E+00
   3.0920401E-04   1.5781154E+05   -1.7356038E+00
   3.1063195E-04   1.5655480E+05   -1.7350298E+00
   3.1206648E-04   1.5530847E+05   -1.7344559E+00
   3.1350764E-04   1.5407248E+05   -1.7338822E+00
   3.1495545E-04   1.5284673E+05   -1.7333087E+00
   3.1640994E-04   1.5163113E+05   -1.7327353E+00
   3.1787116E-04   1.5042560E+05   -1.7321622E+00
   3.1933912E-04   1.4923004E+05   -1.7315892E+00
   3.2081386E-04   1.4804438E+05   -1.7310164E+00
   3.2229541E-04   1.4686853E+05   -1.7304438E+00
   3.2378381E-04   1.4570239E+05   -1.7298714E+00
   3.2527908E-04   1.4454590E+05   -1.7292992E+00
   3.2678125E-04   1.4339897E+05   -1.7287272E+00
   3.2829036E-04   1.4226151E+05   -1.7281555E+00
   3.2980644E-04   1.4113345E+05   -1.7275840E+00
   3.3132952E-04   1.4001470E+05   -1.7270127E+00
   3.3285963E-04   1.3890518E+05   -1.7264417E+00
   3.3439681E-04   1.3780482E+05   -1.7258709E+00
   3.3594109E-04   1.3671353E+05   -1.7253004E+00
   3.3749250E-04   1.3563125E+05   -1.7247301E+00
   3.3905108E-04   1.3455788E+05   -1.7241601E+00
   3.4061685E-04   1.3349336E+05   -1.7235904E+00
   3.4218986E-04   1.3243761E+05   -1.7230209E+00
   3.4377013E-04   1.3139055E+05   -1.7224517E+00
   3.4535769E-04   1.3035211E+05   -1.7218828E+00
   3.4695259E-04   1.2932222E+05   -1.7213142E+00
   3.4855485E-04   1.2830080E+05   -1.7207459E+00
   3.5016452E-04   1.2728778E+05   -1.7201779E+00
   3.5178161E-04   1.2628309E+05   -1.7196103E+00
   3.5340618E-04   1.2528666E+05   -1.7190429E+00
   3.5503824E-04   1.2429842E+05   -1.7184759E+00
   3.5667785E-04   1.2331829E+05   -1.7179092E+00
   3.5832502E-04   1.2234621E+05   -1.7173428E+00
   3.5997981E-04   1.2138211E+05   -1.7167767E+00
   3.6164223E-04   1.2042592E+05   -1.7162111E+00
   3.6331233E-04   1.1947758E+05   -1.7156457E+00
   3.6499015E-04   1.1853701E+05   -1.7150807E+00
   3.6667571E-04   1.1760415E+05   -1.7145161E+00
   3.6836906E-04   1.1667894E+05   -1.7139519E+00
   3.7007022E-04   1.1576131E+05   -1.7133880E+00
   3.7177925E-04   1.1485119E+05   -1.7128245E+00
   3.7349616E-04   1.1394852E+05   -1.7122614E+00
   3.7522101E-04   1.1305324E+05   -1.7116987E+00
   3.7695382E-04   1.1216529E+05   -1.7111363E+00
   3.7869463E-04   1.1128460E+05   -1.7105744E+00
   3.8044348E-04   1.1041111E+05   -1.7100129E+00
   3.8220041E-04   1.0954475E+05   -1.7094518E+00
   3.8396545E-04   1.0868548E+05   -1.7088911E+00
   3.8573864E-04   1.0783323E+05   -1.7083309E+00
   3.8752002E-04   1.0698793E+05   -1.7077710E+00
   3.8930963E-04   1.0614954E+05   -1.7072116E+00
   3.9110750E-04   1.0531798E+05   -1.7066527E+00
   3.9291368E-04   1.0449321E+05   -1.7060942E+00
   3.9472820E-04   1.0367516E+05   -1.7055361E+00
   3.9655109E-04   1.0286379E+05   -1.7049785E+00
   3.9838241E-04   1.0205902E+05   -1.7044214E+00
   4.0022218E-04   1.0126081E+05   -1.7038647E+00
   4.0207045E-04   1.0046911E+05   -1.7033085E+00
   4.0392725E-04   9.9683843E+04   -1.7027528E+00
   4.0579263E-04   9.8904971E+04   -1.7021975E+00
   4.0766662E-04   9.8132436E+04   -1.7016428E+00
   4.0954927E-04   9.7366183E+04   -1.7010885E+00
   4.1144061E-04   9.6606160E+04   -1.7005348E+00
   4.1334068E-04   9.5852314E+04   -1.6999815E+00
   4.1524953E-04   9.5104593E+04   -1.6994288E+00
   4.1716720E-04   9.4362945E+04   -1.6988765E+00
   4.1909372E-04   9.3627319E+04   -1.6983248E+00
   4.2102914E-04   9.2897663E+04   -1.6977736E+00
   4.2297350E-04   9.2173927E+04   -1.6972230E+00
   4.2492683E-04   9.1456062E+04   -1.6966728E+00
   4.2688919E-04   9.0744018E+04   -1.6961233E+00
   4.2886061E-04   9.0037746E+04   -1.6955742E+00
   4.3084113E-04   8.9337196E+04   -1.6950257E+00
   4.3283080E-04   8.8642321E+04   -1.6944778E+00
   4.3482966E-04   8.7953072E+04   -1.6939304E+00
   4.3683775E-04   8.7269403E+04   -1.6933836E+00
   4.3885511E-04   8.6591267E+04   -1.6928374E+00
   4.4088179E-04   8.5918615E+04   -1.6922917E+00
   4.4291783E-04   8.5251404E+04   -1.6917466E+00
   4.4496327E-04   8.4589586E+04   -1.6912021E+00
   4.4701816E-04   8.3933116E+04   -1.6906582E+00
   4.4908253E-04   8.3281949E+04   -1.6901149E+00
   4.5115644E-04   8.2636041E+04   -1.6895721E+00
   4.5323993E-04   8.1995347E+04   -1.6890300E+00
   4.5533304E-04   8.1359825E+04   -1.6884885E+00
   4.5743582E-04   8.0729429E+04   -1.6879476E+00
   4.5954830E-04   8.0104117E+04   -1.6874073E+00
   4.6167054E-04   7.9483846E+04   -1.6868677E+00
   4.6380259E-04   7.8868574E+04   -1.6863286E+00
   4.6594448E-04   7.8258259E+04   -1.6857902E+00
   4.6809626E-04   7.7652860E+04   -1.6852525E+00
   4.7025797E-04   7.7052335E+04   -1.6847153E+00
   4.7242967E-04   7.6456642E+04   -1.6841788E+00
   4.7461140E-04   7.5865743E+04   -1.6836430E+00
   4.7680321E-04   7.5279596E+04   -1.6831078E+00
   4.7900514E-04   7.4698162E+04   -1.6825733E+00
   4.8121723E-04   7.4121401E+04   -1.6820395E+00
   4.8343954E-04   7.3549274E+04   -1.6815063E+00
   4.8567212E-04   7.2981743E+04   -1.6809737E+00
   4.8791500E-04   7.2418768E+04   -1.6804419E+00
   4.9016825E-04   7.1860312E+04   -1.6799107E+00
   4.9243189E-04   7.1306337E+04   -1.6793803E+00
   4.9470600E-04   7.0756806E+04   -1.6788505E+00
   4.9699060E-04   7.0211680E+04   -1.6783214E+00
   4.9928575E-04   6.9670925E+04   -1.6777930E+00
   5.0159151E-04   6.9134502E+04   -1.6772653E+00
   5.0390791E-04   6.8602376E+04   -1.6767383E+00
   5.0623501E-04   6.8074511E+04   -1.6762120E+00
   5.0857286E-04   6.7550871E+04   -1.6756865E+00
   5.1092150E-04   6.7031421E+04   -1.6751616E+00
   5.1328099E-04   6.6516127E+04   -1.6746375E+00
   5.1565137E-04   6.6004953E+04   -1.6741141E+00
   5.1803270E-04   6.5497866E+04   -1.6735914E+00
   5.2042503E-04   6.4994830E+04   -1.6730695E+00
   5.2282841E-04   6.4495813E+04   -1.6725483E+00
   5.2524289E-04   6.4000781E+04   -1.6720278E+00
   5.2766851E-04   6.3509701E+04   -1.6715081E+00
   5.3010534E-04   6.3022539E+04   -1.6709892E+00
   5.3255342E-04   6.2539264E+04   -1.6704710E+00
   5.3501281E-04   6.2059842E+04   -1.6699535E+00
   5.3748356E-04   6.1584243E+04   -1.6694369E+00
   5.3996571E-04   6.1112434E+04   -1.6689209E+00
   5.4245933E-04   6.0644383E+04   -1.6684058E+00
   5.4496446E-04   6.0180060E+04   -1.6678914E+00
   5.4748117E-04   5.9719434E+04   -1.6673778E+00
   5.5000949E-04   5.9262473E+04   -1.6668650E+00
   5.5254949E-04   5.8809148E+04   -1.6663530E+00
   5.5510123E-04   5.8359428E+04   -1.6658417E+00
   5.5766474E-04   5.7913283E+04   -1.6653313E+00
   5.6024010E-04   5.7470684E+04   -1.6648216E+00
   5.6282734E-04   5.7031601E+04   -1.6643127E+00
   5.6542654E-04   5.6596006E+04   -1.6638047E+00
   5.6803774E-04   5.6163869E+04   -1.6632974E+00
   5.7066099E-04   5.5735162E+04   -1.6627910E+00
   5.7329637E-04   5.5309856E+04   -1.6622854E+00
   5.7594391E-04   5.4887923E+04   -1.6617805E+00
   5.7860368E-04   5.4469335E+04   -1.6612765E+00
   5.8127573E-04   5.4054066E+04   -1.6607734E+00
   5.8396012E-04   5.3642086E+04   -1.6602710E+00
   5.8665691E-04   5.3233370E+04   -1.6597695E+00
   5.8936616E-04   5.2827890E+04   -1.6592688E+00
   5.9208791E-04   5.2425619E+04   -1.6587690E+00
   5.9482223E-04   5.2026531E+04   -1.6582699E+00
   5.9756919E-04   5.1630599E+04   -1.6577718E+00
   6.0032882E-04   5.1237798E+04   -1.6572744E+00
   6.0310120E-04   5.0848102E+04   -1.6567780E+00
   6.0588639E-04   5.0461486E+04   -1.6562823E+00
   6.0868443E-04   5.0077923E+04   -1.6557875E+00
   6.1149540E-04   4.9697388E+04   -1.6552936E+00
   6.1431935E-04   4.9319858E+04   -1.6548006E+00
   6.1715634E-04   4.8945307E+04   -1.6543084E+00
   6.2000644E-04   4.8573710E+04   -1.6538170E+00
   6.2286969E-04   4.8205043E+04   -1.6533266E+00
