#        a       HoverH0(a)       dlogHdloga_of_a(a)
   1.0000000E-04   1.0710027E+06   -1.8621662E+00
   1.0046181E-04   1.0618540E+06   -1.8617057E+00
   1.0092575E-04   1.0527858E+06   -1.8612443E+00
   1.0139184E-04   1.0437972E+06   -1.8607819E+00
   1.0186008E-04   1.0348876E+06   -1.8603186E+00
   1.0233048E-04   1.0260562E+06   -1.8598543E+00
   1.0280305E-04   1.0173023E+06   -1.8593891E+00
   1.0327781E-04   1.0086253E+06   -1.8589230E+00
   1.0375475E-04   1.0000244E+06   -1.8584559E+00
   1.0423390E-04   9.9149907E+05   -1.8579878E+00
   1.0471527E-04   9.8304850E+05   -1.8575189E+00
   1.0519885E-04   9.7467207E+05   -1.8570490E+00
   1.0568467E-04   9.6636910E+05   -1.8565782E+00
   1.0617274E-04   9.5813894E+05   -1.8561065E+00
   1.0666305E-04   9.4998094E+05   -1.8556338E+00
   1.0715563E-04   9.4189446E+05   -1.8551602E+00
   1.0765049E-04   9.3387886E+05   -1.8546857E+00
   1.0814763E-04   9.2593349E+05   -1.8542103E+00
   1.0864707E-04   9.1805773E+05   -1.8537340E+00
   1.0914881E-04   9.1025096E+05   -1.8532567E+00
   1.0965287E-04   9.0251257E+05   -1.8527786E+00
   1.1015926E-04   8.9484193E+05   -1.8522995E+00
   1.1066799E-04   8.8723845E+05   -1.8518195E+00
   1.1117906E-04   8.7970152E+05   -1.8513387E+00
   1.1169250E-04   8.7223055E+05   -1.8508569E+00
   1.1220831E-04   8.6482495E+05   -1.8503742E+00
   1.1272650E-04   8.5748414E+05   -1.8498907E+00
   1.1324708E-04   8.5020753E+05   -1.8494062E+00
   1.1377007E-04   8.4299456E+05   -1.8489209E+00
   1.1429547E-04   8.3584465E+05   -1.8484347E+00
   1.1482330E-04   8.2875724E+05   -1.8479476E+00
   1.1535356E-04   8.2173177E+05   -1.8474596E+00
   1.1588628E-04   8.1476770E+05   -1.8469707E+00
   1.1642145E-04   8.0786446E+05   -1.8464810E+00
   1.1695910E-04   8.0102152E+05   -1.8459904E+00
   1.1749923E-04   7.9423834E+05   -1.8454989E+00
   1.1804185E-04   7.8751439E+05   -1.8450066E+00
   1.1858698E-04   7.8084913E+05   -1.8445133E+00
   1.1913463E-04   7.7424204E+05   -1.8440193E+00
   1.1968481E-04   7.6769261E+05   -1.8435244E+00
   1.2023752E-04   7.6120032E+05   -1.8430286E+00
   1.2079279E-04   7.5476467E+05   -1.8425320E+00
   1.2135063E-04   7.4838513E+05   -1.8420345E+00
   1.2191104E-04   7.4206122E+05   -1.8415362E+00
   1.2247403E-04   7.3579244E+05   -1.8410370E+00
   1.2303963E-04   7.2957830E+05   -1.8405370E+00
   1.2360784E-04   7.2341831E+05   -1.8400362E+00
   1.2417868E-04   7.1731198E+05   -1.8395345E+00
   1.2475215E-04   7.1125884E+05   -1.8390320E+00
   1.2532826E-04   7.0525841E+05   -1.8385287E+00
   1.2590704E-04   6.9931023E+05   -1.8380245E+00
   1.2648850E-04   6.9341383E+05   -1.8375196E+00
   1.2707263E-04   6.8756874E+05   -1.8370138E+00
   1.2765947E-04   6.8177452E+05   -1.8365072E+00
   1.2824901E-04   6.7603071E+05   -1.8359998E+00
   1.2884128E-04   6.7033685E+05   -1.8354916E+00
   1.2943628E-04   6.6469251E+05   -1.8349826E+00
   1.3003403E-04   6.5909724E+05   -1.8344728E+00
   1.3063454E-04   6.5355061E+05   -1.8339622E+00
   1.3123783E-04   6.4805218E+05   -1.8334508E+00
   1.3184390E-04   6.4260153E+05   -1.8329386E+00
   1.3245277E-04   6.3719822E+05   -1.8324257E+00
   1.3306445E-04   6.3184185E+05   -1.8319119E+00
   1.3367895E-04   6.2653198E+05   -1.8313974E+00
   1.3429630E-04   6.2126821E+05   -1.8308821E+00
   1.3491649E-04   6.1605013E+05   -1.8303661E+00
   1.3553955E-04   6.1087732E+05   -1.8298493E+00
   1.3616548E-04   6.0574940E+05   -1.8293317E+00
   1.3679431E-04   6.0066596E+05   -1.8288133E+00
   1.3742604E-04   5.9562660E+05   -1.8282942E+00
   1.3806069E-04   5.9063093E+05   -1.8277744E+00
   1.3869827E-04   5.8567856E+05   -1.8272538E+00
   1.3933879E-04   5.8076912E+05   -1.8267325E+00
   1.3998227E-04   5.7590221E+05   -1.8262104E+00
   1.4062872E-04   5.7107746E+05   -1.8256876E+00
   1.4127816E-04   5.6629449E+05   -1.8251641E+00
   1.4193060E-04   5.6155295E+05   -1.8246398E+00
   1.4258605E-04   5.5685244E+05   -1.8241148E+00
   1.4324453E-04   5.5219262E+05   -1.8235891E+00
   1.4390605E-04   5.4757312E+05   -1.8230627E+00
   1.4457062E-04   5.4299359E+05   -1.8225356E+00
   1.4523826E-04   5.3845366E+05   -1.8220078E+00
   1.4590899E-04   5.3395299E+05   -1.8214792E+00
   1.4658281E-04   5.2949123E+05   -1.8209500E+00
   1.4725974E-04   5.2506804E+05   -1.8204201E+00
   1.4793981E-04   5.2068307E+05   -1.8198895E+00
   1.4862301E-04   5.1633597E+05   -1.8193582E+00
   1.4930936E-04   5.1202643E+05   -1.8188262E+00
   1.4999889E-04   5.0775410E+05   -1.8182936E+00
   1.5069160E-04   5.0351866E+05   -1.8177603E+00
   1.5138751E-04   4.9931977E+05   -1.8172263E+00
   1.5208663E-04   4.9515712E+05   -1.8166917E+00
   1.5278899E-04   4.9103038E+05   -1.8161563E+00
   1.5349458E-04   4.8693923E+05   -1.8156204E+00
   1.5420343E-04   4.8288337E+05   -1.8150838E+00
   1.5491556E-04   4.7886247E+05   -1.8145465E+00
   1.5563098E-04   4.7487623E+05   -1.8140086E+00
   1.5634970E-04   4.7092434E+05   -1.8134701E+00
   1.5707174E-04   4.6700650E+05   -1.8129310E+00
   1.5779711E-04   4.6312240E+05   -1.8123912E+00
   1.5852584E-04   4.5927175E+05   -1.8118508E+00
   1.5925792E-04   4.5545425E+05   -1.8113098E+00
   1.5999339E-04   4.5166961E+05   -1.8107681E+00
   1.6073226E-04   4.4791753E+05   -1.8102259E+00
   1.6147454E-04   4.4419774E+05   -1.8096831E+00
   1.6222024E-04   4.4050993E+05   -1.8091396E+00
   1.6296939E-04   4.3685385E+05   -1.8085956E+00
   1.6372200E-04   4.3322919E+05   -1.8080510E+00
   1.6447809E-04   4.2963568E+05   -1.8075058E+00
   1.6523767E-04   4.2607305E+05   -1.8069600E+00
   1.6600075E-04   4.2254103E+05   -1.8064136E+00
   1.6676736E-04   4.1903934E+05   -1.8058667E+00
   1.6753751E-04   4.1556772E+05   -1.8053192E+00
   1.6831122E-04   4.1212590E+05   -1.8047712E+00
   1.6908849E-04   4.0871362E+05   -1.8042226E+00
   1.6986936E-04   4.0533062E+05   -1.8036735E+00
   1.7065384E-04   4.0197663E+05   -1.8031238E+00
   1.7144193E-04   3.9865141E+05   -1.8025735E+00
   1.7223367E-04   3.9535470E+05   -1.8020228E+00
   1.7302906E-04   3.9208625E+05   -1.8014715E+00
   1.7382813E-04   3.8884581E+05   -1.8009197E+00
   1.7463089E-04   3.8563312E+05   -1.8003673E+00
   1.7543735E-04   3.8244796E+05   -1.7998145E+00
   1.7624754E-04   3.7929007E+05   -1.7992611E+00
   1.7706147E-04   3.7615921E+05   -1.7987073E+00
   1.7787916E-04   3.7305515E+05   -1.7981529E+00
   1.7870062E-04   3.6997765E+05   -1.7975981E+00
   1.7952588E-04   3.6692648E+05   -1.7970427E+00
   1.8035495E-04   3.6390140E+05   -1.7964869E+00
   1.8118785E-04   3.6090219E+05   -1.7959306E+00
   1.8202459E-04   3.5792861E+05   -1.7953739E+00
   1.8286520E-04   3.5498044E+05   -1.7948166E+00
   1.8370969E-04   3.5205746E+05   -1.7942589E+00
   1.8455808E-04   3.4915945E+05   -1.7937008E+00
   1.8541039E-04   3.4628618E+05   -1.7931422E+00
   1.8626663E-04   3.4343744E+05   -1.7925832E+00
   1.8712683E-04   3.4061302E+05   -1.7920237E+00
   1.8799100E-04   3.3781269E+05   -1.7914638E+00
   1.8885917E-04   3.3503625E+05   -1.7909034E+00
   1.8973134E-04   3.3228349E+05   -1.7903427E+00
   1.9060754E-04   3.2955420E+05   -1.7897815E+00
   1.9148778E-04   3.2684817E+05   -1.7892199E+00
   1.9237209E-04   3.2416520E+05   -1.7886579E+00
   1.9326049E-04   3.2150509E+05   -1.7880955E+00
   1.9415299E-04   3.1886763E+05   -1.7875327E+00
   1.9504960E-04   3.1625263E+05   -1.7869695E+00
   1.9595036E-04   3.1365988E+05   -1.7864059E+00
   1.9685528E-04   3.1108921E+05   -1.7858420E+00
   1.9776438E-04   3.0854040E+05   -1.7852777E+00
   1.9867768E-04   3.0601327E+05   -1.7847130E+00
   1.9959519E-04   3.0350763E+05   -1.7841479E+00
   2.0051694E-04   3.0102329E+05   -1.7835825E+00
   2.0144295E-04   2.9856007E+05   -1.7830168E+00
   2.0237324E-04   2.9611777E+05   -1.7824507E+00
   2.0330782E-04   2.9369621E+05   -1.7818842E+00
   2.0424671E-04   2.9129522E+05   -1.7813174E+00
   2.0518995E-04   2.8891462E+05   -1.7807503E+00
   2.0613754E-04   2.8655421E+05   -1.7801829E+00
   2.0708950E-04   2.8421384E+05   -1.7796152E+00
   2.0804586E-04   2.8189331E+05   -1.7790471E+00
   2.0900664E-04   2.7959247E+05   -1.7784788E+00
   2.0997185E-04   2.7731113E+05   -1.7779101E+00
   2.1094152E-04   2.7504913E+05   -1.7773412E+00
   2.1191567E-04   2.7280629E+05   -1.7767719E+00
   2.1289432E-04   2.7058245E+05   -1.7762024E+00
   2.1387749E-04   2.6837745E+05   -1.7756326E+00
   2.1486520E-04   2.6619111E+05   -1.7750626E+00
   2.1585747E-04   2.6402328E+05   -1.7744923E+00
   2.1685432E-04   2.6187379E+05   -1.7739217E+00
   2.1785578E-04   2.5974248E+05   -1.7733509E+00
   2.1886186E-04   2.5762919E+05   -1.7727798E+00
   2.1987259E-04   2.5553378E+05   -1.7722085E+00
   2.2088798E-04   2.5345607E+05   -1.7716369E+00
   2.2190807E-04   2.5139592E+05   -1.7710651E+00
   2.2293286E-04   2.4935317E+05   -1.7704931E+00
   2.2396239E-04   2.4732767E+05   -1.7699209E+00
   2.2499667E-04   2.4531927E+05   -1.7693485E+00
   2.2603573E-04   2.4332783E+05   -1.7687758E+00
   2.2707958E-04   2.4135318E+05   -1.7682030E+00
   2.2812826E-04   2.3939519E+05   -1.7676300E+00
   2.2918178E-04   2.3745372E+05   -1.7670568E+00
   2.3024017E-04   2.3552861E+05   -1.7664834E+00
   2.3130344E-04   2.3361972E+05   -1.7659098E+00
   2.3237162E-04   2.3172692E+05   -1.7653361E+00
   2.3344474E-04   2.2985006E+05   -1.7647622E+00
   2.3452281E-04   2.2798901E+05   -1.7641881E+00
   2.3560586E-04   2.2614362E+05   -1.7636139E+00
   2.3669392E-04   2.2431377E+05   -1.7630396E+00
   2.3778699E-04   2.2249930E+05   -1.7624651E+00
   2.3888512E-04   2.2070010E+05   -1.7618904E+00
   2.3998831E-04   2.1891603E+05   -1.7613157E+00
   2.4109661E-04   2.1714696E+05   -1.7607408E+00
   2.4221001E-04   2.1539275E+05   -1.7601658E+00
   2.4332857E-04   2.1365328E+05   -1.7595908E+00
   2.4445228E-04   2.1192842E+05   -1.7590156E+00
   2.4558119E-04   2.1021804E+05   -1.7584403E+00
   2.4671531E-04   2.0852202E+05   -1.7578649E+00
   2.4785467E-04   2.0684023E+05   -1.7572894E+00
   2.4899928E-04   2.0517254E+05   -1.7567139E+00
   2.5014919E-04   2.0351885E+05   -1.7561383E+00
   2.5130440E-04   2.0187902E+05   -1.7555626E+00
   2.5246495E-04   2.0025293E+05   -1.7549869E+00
   2.5363086E-04   1.9864046E+05   -1.7544111E+00
   2.5480216E-04   1.9704151E+05   -1.7538353E+00
   2.5597886E-04   1.9545594E+05   -1.7532594E+00
   2.5716100E-04   1.9388364E+05   -1.7526835E+00
   2.5834859E-04   1.9232451E+05   -1.7521075E+00
   2.5954168E-04   1.9077842E+05   -1.7515316E+00
   2.6074027E-04   1.8924525E+05   -1.7509556E+00
   2.6194439E-04   1.8772491E+05   -1.7503796E+00
   2.6315408E-04   1.8621728E+05   -1.7498036E+00
   2.6436935E-04   1.8472224E+05   -1.7492276E+00
   2.6559024E-04   1.8323970E+05   -1.7486516E+00
   2.6681676E-04   1.8176953E+05   -1.7480756E+00
   2.6804895E-04   1.8031164E+05   -1.7474997E+00
   2.6928683E-04   1.7886592E+05   -1.7469238E+00
   2.7053042E-04   1.7743226E+05   -1.7463479E+00
   2.7177976E-04   1.7601055E+05   -1.7457720E+00
   2.7303487E-04   1.7460071E+05   -1.7451962E+00
   2.7429577E-04   1.7320261E+05   -1.7446204E+00
   2.7556250E-04   1.7181617E+05   -1.7440447E+00
   2.7683507E-04   1.7044127E+05   -1.7434691E+00
   2.7811353E-04   1.6907783E+05   -1.7428935E+00
   2.7939788E-04   1.6772573E+05   -1.7423180E+00
   2.8068817E-04   1.6638490E+05   -1.7417426E+00
   2.8198442E-04   1.6505521E+05   -1.7411673E+00
   2.8328665E-04   1.6373659E+05   -1.7405920E+00
   2.8459490E-04   1.6242893E+05   -1.7400169E+00
   2.8590919E-04   1.6113215E+05   -1.7394419E+00
   2.8722955E-04   1.5984614E+05   -1.7388669E+00
   2.8855600E-04   1.5857081E+05   -1.7382921E+00
   2.8988859E-04   1.5730608E+05   -1.7377175E+00
   2.9122732E-04   1.5605184E+05   -1.7371429E+00
   2.9257224E-04   1.5480802E+05   -1.7365685E+00
   2.9392337E-04   1.5357451E+05   -1.7359942E+00
   2.9528074E-04   1.5235124E+05   -1.7354201E+00
   2.9664438E-04   1.5113811E+05   -1.7348461E+00
   2.9801431E-04   1.4993504E+05   -1.7342723E+00
   2.9939057E-04   1.4874194E+05   -1.7336987E+00
   3.0077319E-04   1.4755872E+05   -1.7331252E+00
   3.0216219E-04   1.4638530E+05   -1.7325519E+00
   3.0355761E-04   1.4522160E+05   -1.7319788E+00
   3.0495947E-04   1.4406752E+05   -1.7314059E+00
   3.0636780E-04   1.4292300E+05   -1.7308331E+00
   3.0778264E-04   1.4178794E+05   -1.7302606E+00
   3.0920401E-04   1.4066227E+05   -1.7296883E+00
   3.1063195E-04   1.3954590E+05   -1.7291162E+00
   3.1206648E-04   1.3843876E+05   -1.7285443E+00
   3.1350764E-04   1.3734076E+05   -1.7279727E+00
   3.1495545E-04   1.3625183E+05   -1.7274012E+00
   3.1640994E-04   1.3517189E+05   -1.7268300E+00
   3.1787116E-04   1.3410086E+05   -1.7262591E+00
   3.1933912E-04   1.3303867E+05   -1.7256884E+00
   3.2081386E-04   1.3198524E+05   -1.7251180E+00
   3.2229541E-04   1.3094049E+05   -1.7245478E+00
   3.2378381E-04   1.2990436E+05   -1.7239779E+00
   3.2527908E-04   1.2887676E+05   -1.7234082E+00
   3.2678125E-04   1.2785763E+05   -1.7228389E+00
   3.2829036E-04   1.2684688E+05   -1.7222698E+00
   3.2980644E-04   1.2584446E+05   -1.7217010E+00
   3.3132952E-04   1.2485029E+05   -1.7211325E+00
   3.3285963E-04   1.2386430E+05   -1.7205643E+00
   3.3439681E-04   1.2288641E+05   -1.7199964E+00
   3.3594109E-04   1.2191656E+05   -1.7194289E+00
   3.3749250E-04   1.2095469E+05   -1.7188616E+00
   3.3905108E-04   1.2000071E+05   -1.7182947E+00
   3.4061685E-04   1.1905457E+05   -1.7177281E+00
   3.4218986E-04   1.1811620E+05   -1.7171618E+00
   3.4377013E-04   1.1718553E+05   -1.7165959E+00
   3.4535769E-04   1.1626250E+05   -1.7160303E+00
   3.4695259E-04   1.1534704E+05   -1.7154651E+00
   3.4855485E-04   1.1443908E+05   -1.7149003E+00
   3.5016452E-04   1.1353857E+05   -1.7143358E+00
   3.5178161E-04   1.1264543E+05   -1.7137717E+00
   3.5340618E-04   1.1175961E+05   -1.7132079E+00
   3.5503824E-04   1.1088105E+05   -1.7126445E+00
   3.5667785E-04   1.1000968E+05   -1.7120816E+00
   3.5832502E-04   1.0914543E+05   -1.7115190E+00
   3.5997981E-04   1.0828826E+05   -1.7109568E+00
   3.6164223E-04   1.0743810E+05   -1.7103950E+00
   3.6331233E-04   1.0659489E+05   -1.7098336E+00
   3.6499015E-04   1.0575857E+05   -1.7092727E+00
   3.6667571E-04   1.0492908E+05   -1.7087121E+00
   3.6836906E-04   1.0410637E+05   -1.7081520E+00
   3.7007022E-04   1.0329037E+05   -1.7075924E+00
   3.7177925E-04   1.0248104E+05   -1.7070331E+00
   3.7349616E-04   1.0167831E+05   -1.7064743E+00
   3.7522101E-04   1.0088212E+05   -1.7059160E+00
   3.7695382E-04   1.0009243E+05   -1.7053581E+00
   3.7869463E-04   9.9309171E+04   -1.7048006E+00
   3.8044348E-04   9.8532297E+04   -1.7042436E+00
   3.8220041E-04   9.7761751E+04   -1.7036871E+00
   3.8396545E-04   9.6997480E+04   -1.7031311E+00
   3.8573864E-04   9.6239430E+04   -1.7025755E+00
   3.8752002E-04   9.5487548E+04   -1.7020204E+00
   3.8930963E-04   9.4741783E+04   -1.7014659E+00
   3.9110750E-04   9.4002082E+04   -1.7009118E+00
   3.9291368E-04   9.3268395E+04   -1.7003582E+00
   3.9472820E-04   9.2540670E+04   -1.6998051E+00
   3.9655109E-04   9.1818856E+04   -1.6992525E+00
   3.9838241E-04   9.1102905E+04   -1.6987005E+00
   4.0022218E-04   9.0392766E+04   -1.6981489E+00
   4.0207045E-04   8.9688391E+04   -1.6975979E+00
   4.0392725E-04   8.8989730E+04   -1.6970474E+00
   4.0579263E-04   8.8296735E+04   -1.6964975E+00
   4.0766662E-04   8.7609359E+04   -1.6959481E+00
   4.0954927E-04   8.6927554E+04   -1.6953993E+00
   4.1144061E-04   8.6251273E+04   -1.6948509E+00
   4.1334068E-04   8.5580470E+04   -1.6943032E+00
   4.1524953E-04   8.4915097E+04   -1.6937560E+00
   4.1716720E-04   8.4255110E+04   -1.6932094E+00
   4.1909372E-04   8.3600464E+04   -1.6926633E+00
   4.2102914E-04   8.2951112E+04   -1.6921179E+00
   4.2297350E-04   8.2307010E+04   -1.6915730E+00
   4.2492683E-04   8.1668115E+04   -1.6910287E+00
   4.2688919E-04   8.1034383E+04   -1.6904850E+00
   4.2886061E-04   8.0405769E+04   -1.6899418E+00
   4.3084113E-04   7.9782232E+04   -1.6893993E+00
   4.3283080E-04   7.9163727E+04   -1.6888574E+00
   4.3482966E-04   7.8550214E+04   -1.6883161E+00
   4.3683775E-04   7.7941649E+04   -1.6877754E+00
   4.3885511E-04   7.7337992E+04   -1.6872353E+00
   4.4088179E-04   7.6739201E+04   -1.6866959E+00
   4.4291783E-04   7.6145235E+04   -1.6861571E+00
   4.4496327E-04   7.5556054E+04   -1.6856189E+00
   4.4701816E-04   7.4971618E+04   -1.6850813E+00
   4.4908253E-04   7.4391886E+04   -1.6845444E+00
   4.5115644E-04   7.3816820E+04   -1.6840082E+00
   4.5323993E-04   7.3246380E+04   -1.6834725E+00
   4.5533304E-04   7.2680528E+04   -1.6829376E+00
   4.5743582E-04   7.2119225E+04   -1.6824033E+00
   4.5954830E-04   7.1562433E+04   -1.6818697E+00
   4.6167054E-04   7.1010114E+04   -1.6813367E+00
   4.6380259E-04   7.0462230E+04   -1.6808044E+00
   4.6594448E-04   6.9918745E+04   -1.6802728E+00
   4.6809626E-04   6.9379622E+04   -1.6797419E+00
   4.7025797E-04   6.8844825E+04   -1.6792116E+00
   4.7242967E-04   6.8314316E+04   -1.6786821E+00
   4.7461140E-04   6.7788061E+04   -1.6781532E+00
   4.7680321E-04   6.7266023E+04   -1.6776251E+00
   4.7900514E-04   6.6748168E+04   -1.6770976E+00
   4.8121723E-04   6.6234461E+04   -1.6765708E+00
   4.8343954E-04   6.5724866E+04   -1.6760448E+00
   4.8567212E-04   6.5219351E+04   -1.6755195E+00
   4.8791500E-04   6.4717880E+04   -1.6749949E+00
   4.9016825E-04   6.4220420E+04   -1.6744710E+00
   4.9243189E-04   6.3726937E+04   -1.6739479E+00
   4.9470600E-04   6.3237399E+04   -1.6734254E+00
   4.9699060E-04   6.2751772E+04   -1.6729037E+00
   4.9928575E-04   6.2270025E+04   -1.6723828E+00
   5.0159151E-04   6.1792123E+04   -1.6718626E+00
   5.0390791E-04   6.1318037E+04   -1.6713432E+00
   5.0623501E-04   6.0847733E+04   -1.6708244E+00
   5.0857286E-04   6.0381180E+04   -1.6703065E+00
   5.1092150E-04   5.9918348E+04   -1.6697893E+00
   5.1328099E-04   5.9459205E+04   -1.6692729E+00
   5.1565137E-04   5.9003721E+04   -1.6687572E+00
   5.1803270E-04   5.8551865E+04   -1.6682424E+00
   5.2042503E-04   5.8103607E+04   -1.6677282E+00
   5.2282841E-04   5.7658917E+04   -1.6672149E+00
   5.2524289E-04   5.7217766E+04   -1.6667024E+00
   5.2766851E-04   5.6780124E+04   -1.6661906E+00
   5.3010534E-04   5.6345962E+04   -1.6656796E+00
   5.3255342E-04   5.5915252E+04   -1.6651694E+00
   5.3501281E-04   5.5487964E+04   -1.6646600E+00
   5.3748356E-04   5.5064070E+04   -1.6641514E+00
   5.3996571E-04   5.4643543E+04   -1.6636437E+00
   5.4245933E-04   5.4226354E+04   -1.6631367E+00
   5.4496446E-04   5.3812476E+04   -1.6626305E+00
   5.4748117E-04   5.3401882E+04   -1.6621251E+00
   5.5000949E-04   5.2994543E+04   -1.6616206E+00
   5.5254949E-04   5.2590434E+04   -1.6611169E+00
   5.5510123E-04   5.2189527E+04   -1.6606140E+00
   5.5766474E-04   5.1791796E+04   -1.6601119E+00
   5.6024010E-04   5.1397215E+04   -1.6596107E+00
   5.6282734E-04   5.1005758E+04   -1.6591103E+00
   5.6542654E-04   5.0617399E+04   -1.6586107E+00
   5.6803774E-04   5.0232113E+04   -1.6581120E+00
   5.7066099E-04   4.9849874E+04   -1.6576141E+00
   5.7329637E-04   4.9470656E+04   -1.6571170E+00
   5.7594391E-04   4.9094436E+04   -1.6566208E+00
   5.7860368E-04   4.8721188E+04   -1.6561255E+00
   5.8127573E-04   4.8350889E+04   -1.6556310E+00
   5.8396012E-04   4.7983513E+04   -1.6551374E+00
   5.8665691E-04   4.7619036E+04   -1.6546446E+00
   5.8936616E-04   4.7257435E+04   -1.6541527E+00
   5.9208791E-04   4.6898686E+04   -1.6536617E+00
   5.9482223E-04   4.6542766E+04   -1.6531715E+00
   5.9756919E-04   4.6189651E+04   -1.6526822E+00
   6.0032882E-04   4.5839319E+04   -1.6521938E+00
   6.0310120E-04   4.5491746E+04   -1.6517063E+00
   6.0588639E-04   4.5146909E+04   -1.6512196E+00
   6.0868443E-04   4.4804787E+04   -1.6507338E+00
   6.1149540E-04   4.4465357E+04   -1.6502489E+00
   6.1431935E-04   4.4128597E+04   -1.6497650E+00
   6.1715634E-04   4.3794485E+04   -1.6492818E+00
   6.2000644E-04   4.3462999E+04   -1.6487996E+00
   6.2286969E-04   4.3134118E+04   -1.6483183E+00
