#        a       HoverH0(a)       dlogHdloga_of_a(a)
   1.0000000E-04   1.0724208E+06   -1.8410891E+00
   1.0046181E-04   1.0633634E+06   -1.8405892E+00
   1.0092575E-04   1.0543849E+06   -1.8400885E+00
   1.0139184E-04   1.0454847E+06   -1.8395869E+00
   1.0186008E-04   1.0366620E+06   -1.8390845E+00
   1.0233048E-04   1.0279161E+06   -1.8385813E+00
   1.0280305E-04   1.0192463E+06   -1.8380772E+00
   1.0327781E-04   1.0106521E+06   -1.8375724E+00
   1.0375475E-04   1.0021326E+06   -1.8370667E+00
   1.0423390E-04   9.9368729E+05   -1.8365602E+00
   1.0471527E-04   9.8531543E+05   -1.8360529E+00
   1.0519885E-04   9.7701639E+05   -1.8355448E+00
   1.0568467E-04   9.6878952E+05   -1.8350358E+00
   1.0617274E-04   9.6063417E+05   -1.8345261E+00
   1.0666305E-04   9.5254972E+05   -1.8340156E+00
   1.0715563E-04   9.4453553E+05   -1.8335043E+00
   1.0765049E-04   9.3659098E+05   -1.8329922E+00
   1.0814763E-04   9.2871544E+05   -1.8324794E+00
   1.0864707E-04   9.2090830E+05   -1.8319657E+00
   1.0914881E-04   9.1316895E+05   -1.8314513E+00
   1.0965287E-04   9.0549680E+05   -1.8309361E+00
   1.1015926E-04   8.9789123E+05   -1.8304201E+00
   1.1066799E-04   8.9035167E+05   -1.8299034E+00
   1.1117906E-04   8.8287751E+05   -1.8293859E+00
   1.1169250E-04   8.7546819E+05   -1.8288676E+00
   1.1220831E-04   8.6812313E+05   -1.8283486E+00
   1.1272650E-04   8.6084174E+05   -1.8278289E+00
   1.1324708E-04   8.5362348E+05   -1.8273084E+00
   1.1377007E-04   8.4646777E+05   -1.8267871E+00
   1.1429547E-04   8.3937407E+05   -1.8262651E+00
   1.1482330E-04   8.3234182E+05   -1.8257424E+00
   1.1535356E-04   8.2537047E+05   -1.8252190E+00
   1.1588628E-04   8.1845949E+05   -1.8246948E+00
   1.1642145E-04   8.1160834E+05   -1.8241699E+00
   1.1695910E-04   8.0481648E+05   -1.8236443E+00
   1.1749923E-04   7.9808339E+05   -1.8231180E+00
   1.1804185E-04   7.9140855E+05   -1.8225909E+00
   1.1858698E-04   7.8479145E+05   -1.8220632E+00
   1.1913463E-04   7.7823156E+05   -1.8215347E+00
   1.1968481E-04   7.7172839E+05   -1.8210056E+00
   1.2023752E-04   7.6528143E+05   -1.8204757E+00
   1.2079279E-04   7.5889018E+05   -1.8199452E+00
   1.2135063E-04   7.5255415E+05   -1.8194140E+00
   1.2191104E-04   7.4627284E+05   -1.8188821E+00
   1.2247403E-04   7.4004578E+05   -1.8183496E+00
   1.2303963E-04   7.3387248E+05   -1.8178163E+00
   1.2360784E-04   7.2775247E+05   -1.8172824E+00
   1.2417868E-04   7.2168526E+05   -1.8167478E+00
   1.2475215E-04   7.1567041E+05   -1.8162126E+00
   1.2532826E-04   7.0970743E+05   -1.8156767E+00
   1.2590704E-04   7.0379588E+05   -1.8151402E+00
   1.2648850E-04   6.9793529E+05   -1.8146030E+00
   1.2707263E-04   6.9212522E+05   -1.8140652E+00
   1.2765947E-04   6.8636522E+05   -1.8135268E+00
   1.2824901E-04   6.8065484E+05   -1.8129877E+00
   1.2884128E-04   6.7499366E+05   -1.8124480E+00
   1.2943628E-04   6.6938122E+05   -1.8119077E+00
   1.3003403E-04   6.6381710E+05   -1.8113667E+00
   1.3063454E-04   6.5830087E+05   -1.8108252E+00
   1.3123783E-04   6.5283212E+05   -1.8102830E+00
   1.3184390E-04   6.4741041E+05   -1.8097402E+00
   1.3245277E-04   6.4203534E+05   -1.8091969E+00
   1.3306445E-04   6.3670648E+05   -1.8086529E+00
   1.3367895E-04   6.3142344E+05   -1.8081084E+00
   1.3429630E-04   6.2618581E+05   -1.8075632E+00
   1.3491649E-04   6.2099318E+05   -1.8070175E+00
   1.3553955E-04   6.1584516E+05   -1.8064713E+00
   1.3616548E-04   6.1074136E+05   -1.8059244E+00
   1.3679431E-04   6.0568138E+05   -1.8053770E+00
   1.3742604E-04   6.0066484E+05   -1.8048290E+00
   1.3806069E-04   5.9569135E+05   -1.8042805E+00
   1.3869827E-04   5.9076054E+05   -1.8037314E+00
   1.3933879E-04   5.8587203E+05   -1.8031818E+00
   1.3998227E-04   5.8102544E+05   -1.8026316E+00
   1.4062872E-04   5.7622040E+05   -1.8020809E+00
   1.4127816E-04   5.7145655E+05   -1.8015297E+00
   1.4193060E-04   5.6673353E+05   -1.8009779E+00
   1.4258605E-04   5.6205097E+05   -1.8004257E+00
   1.4324453E-04   5.5740852E+05   -1.7998729E+00
   1.4390605E-04   5.5280582E+05   -1.7993196E+00
   1.4457062E-04   5.4824253E+05   -1.7987658E+00
   1.4523826E-04   5.4371829E+05   -1.7982115E+00
   1.4590899E-04   5.3923277E+05   -1.7976567E+00
   1.4658281E-04   5.3478562E+05   -1.7971015E+00
   1.4725974E-04   5.3037651E+05   -1.7965457E+00
   1.4793981E-04   5.2600509E+05   -1.7959895E+00
   1.4862301E-04   5.2167104E+05   -1.7954328E+00
   1.4930936E-04   5.1737403E+05   -1.7948756E+00
   1.4999889E-04   5.1311373E+05   -1.7943180E+00
   1.5069160E-04   5.0888982E+05   -1.7937599E+00
   1.5138751E-04   5.0470197E+05   -1.7932014E+00
   1.5208663E-04   5.0054988E+05   -1.7926424E+00
   1.5278899E-04   4.9643323E+05   -1.7920830E+00
   1.5349458E-04   4.9235171E+05   -1.7915231E+00
   1.5420343E-04   4.8830500E+05   -1.7909628E+00
   1.5491556E-04   4.8429280E+05   -1.7904021E+00
   1.5563098E-04   4.8031481E+05   -1.7898410E+00
   1.5634970E-04   4.7637073E+05   -1.7892794E+00
   1.5707174E-04   4.7246026E+05   -1.7887175E+00
   1.5779711E-04   4.6858310E+05   -1.7881552E+00
   1.5852584E-04   4.6473896E+05   -1.7875924E+00
   1.5925792E-04   4.6092756E+05   -1.7870293E+00
   1.5999339E-04   4.5714860E+05   -1.7864658E+00
   1.6073226E-04   4.5340180E+05   -1.7859019E+00
   1.6147454E-04   4.4968687E+05   -1.7853376E+00
   1.6222024E-04   4.4600355E+05   -1.7847730E+00
   1.6296939E-04   4.4235154E+05   -1.7842080E+00
   1.6372200E-04   4.3873059E+05   -1.7836426E+00
   1.6447809E-04   4.3514040E+05   -1.7830769E+00
   1.6523767E-04   4.3158072E+05   -1.7825109E+00
   1.6600075E-04   4.2805128E+05   -1.7819445E+00
   1.6676736E-04   4.2455181E+05   -1.7813777E+00
   1.6753751E-04   4.2108205E+05   -1.7808107E+00
   1.6831122E-04   4.1764173E+05   -1.7802433E+00
   1.6908849E-04   4.1423061E+05   -1.7796756E+00
   1.6986936E-04   4.1084842E+05   -1.7791076E+00
   1.7065384E-04   4.0749492E+05   -1.7785393E+00
   1.7144193E-04   4.0416985E+05   -1.7779707E+00
   1.7223367E-04   4.0087295E+05   -1.7774018E+00
   1.7302906E-04   3.9760400E+05   -1.7768326E+00
   1.7382813E-04   3.9436274E+05   -1.7762631E+00
   1.7463089E-04   3.9114892E+05   -1.7756934E+00
   1.7543735E-04   3.8796232E+05   -1.7751234E+00
   1.7624754E-04   3.8480269E+05   -1.7745531E+00
   1.7706147E-04   3.8166979E+05   -1.7739826E+00
   1.7787916E-04   3.7856339E+05   -1.7734118E+00
   1.7870062E-04   3.7548327E+05   -1.7728407E+00
   1.7952588E-04   3.7242918E+05   -1.7722695E+00
   1.8035495E-04   3.6940091E+05   -1.7716980E+00
   1.8118785E-04   3.6639823E+05   -1.7711262E+00
   1.8202459E-04   3.6342091E+05   -1.7705542E+00
   1.8286520E-04   3.6046874E+05   -1.7699821E+00
   1.8370969E-04   3.5754149E+05   -1.7694097E+00
   1.8455808E-04   3.5463895E+05   -1.7688371E+00
   1.8541039E-04   3.5176090E+05   -1.7682643E+00
   1.8626663E-04   3.4890712E+05   -1.7676913E+00
   1.8712683E-04   3.4607741E+05   -1.7671181E+00
   1.8799100E-04   3.4327156E+05   -1.7665448E+00
   1.8885917E-04   3.4048936E+05   -1.7659712E+00
   1.8973134E-04   3.3773060E+05   -1.7653975E+00
   1.9060754E-04   3.3499507E+05   -1.7648237E+00
   1.9148778E-04   3.3228259E+05   -1.7642496E+00
   1.9237209E-04   3.2959293E+05   -1.7636755E+00
   1.9326049E-04   3.2692592E+05   -1.7631011E+00
   1.9415299E-04   3.2428134E+05   -1.7625267E+00
   1.9504960E-04   3.2165901E+05   -1.7619521E+00
   1.9595036E-04   3.1905872E+05   -1.7613774E+00
   1.9685528E-04   3.1648030E+05   -1.7608025E+00
   1.9776438E-04   3.1392355E+05   -1.7602276E+00
   1.9867768E-04   3.1138827E+05   -1.7596525E+00
   1.9959519E-04   3.0887429E+05   -1.7590774E+00
   2.0051694E-04   3.0638142E+05   -1.7585021E+00
   2.0144295E-04   3.0390947E+05   -1.7579268E+00
   2.0237324E-04   3.0145827E+05   -1.7573513E+00
   2.0330782E-04   2.9902763E+05   -1.7567758E+00
   2.0424671E-04   2.9661737E+05   -1.7562002E+00
   2.0518995E-04   2.9422732E+05   -1.7556246E+00
   2.0613754E-04   2.9185730E+05   -1.7550489E+00
   2.0708950E-04   2.8950715E+05   -1.7544731E+00
   2.0804586E-04   2.8717668E+05   -1.7538973E+00
   2.0900664E-04   2.8486572E+05   -1.7533214E+00
   2.0997185E-04   2.8257411E+05   -1.7527456E+00
   2.1094152E-04   2.8030168E+05   -1.7521696E+00
   2.1191567E-04   2.7804826E+05   -1.7515937E+00
   2.1289432E-04   2.7581369E+05   -1.7510177E+00
   2.1387749E-04   2.7359781E+05   -1.7504418E+00
   2.1486520E-04   2.7140044E+05   -1.7498658E+00
   2.1585747E-04   2.6922144E+05   -1.7492898E+00
   2.1685432E-04   2.6706064E+05   -1.7487139E+00
   2.1785578E-04   2.6491789E+05   -1.7481379E+00
   2.1886186E-04   2.6279303E+05   -1.7475620E+00
   2.1987259E-04   2.6068590E+05   -1.7469861E+00
   2.2088798E-04   2.5859636E+05   -1.7464102E+00
   2.2190807E-04   2.5652424E+05   -1.7458343E+00
   2.2293286E-04   2.5446940E+05   -1.7452585E+00
   2.2396239E-04   2.5243170E+05   -1.7446828E+00
   2.2499667E-04   2.5041097E+05   -1.7441071E+00
   2.2603573E-04   2.4840708E+05   -1.7435315E+00
   2.2707958E-04   2.4641988E+05   -1.7429559E+00
   2.2812826E-04   2.4444922E+05   -1.7423804E+00
   2.2918178E-04   2.4249497E+05   -1.7418050E+00
   2.3024017E-04   2.4055697E+05   -1.7412297E+00
   2.3130344E-04   2.3863510E+05   -1.7406545E+00
   2.3237162E-04   2.3672921E+05   -1.7400794E+00
   2.3344474E-04   2.3483916E+05   -1.7395044E+00
   2.3452281E-04   2.3296482E+05   -1.7389294E+00
   2.3560586E-04   2.3110606E+05   -1.7383547E+00
   2.3669392E-04   2.2926273E+05   -1.7377800E+00
   2.3778699E-04   2.2743470E+05   -1.7372054E+00
   2.3888512E-04   2.2562185E+05   -1.7366310E+00
   2.3998831E-04   2.2382404E+05   -1.7360568E+00
   2.4109661E-04   2.2204114E+05   -1.7354827E+00
   2.4221001E-04   2.2027303E+05   -1.7349087E+00
   2.4332857E-04   2.1851958E+05   -1.7343349E+00
   2.4445228E-04   2.1678065E+05   -1.7337612E+00
   2.4558119E-04   2.1505613E+05   -1.7331878E+00
   2.4671531E-04   2.1334590E+05   -1.7326145E+00
   2.4785467E-04   2.1164982E+05   -1.7320414E+00
   2.4899928E-04   2.0996779E+05   -1.7314685E+00
   2.5014919E-04   2.0829967E+05   -1.7308957E+00
   2.5130440E-04   2.0664534E+05   -1.7303232E+00
   2.5246495E-04   2.0500470E+05   -1.7297509E+00
   2.5363086E-04   2.0337762E+05   -1.7291788E+00
   2.5480216E-04   2.0176398E+05   -1.7286069E+00
   2.5597886E-04   2.0016368E+05   -1.7280353E+00
   2.5716100E-04   1.9857659E+05   -1.7274638E+00
   2.5834859E-04   1.9700260E+05   -1.7268927E+00
   2.5954168E-04   1.9544160E+05   -1.7263217E+00
   2.6074027E-04   1.9389349E+05   -1.7257510E+00
   2.6194439E-04   1.9235814E+05   -1.7251806E+00
   2.6315408E-04   1.9083544E+05   -1.7246104E+00
   2.6436935E-04   1.8932531E+05   -1.7240405E+00
   2.6559024E-04   1.8782761E+05   -1.7234708E+00
   2.6681676E-04   1.8634225E+05   -1.7229015E+00
   2.6804895E-04   1.8486912E+05   -1.7223324E+00
   2.6928683E-04   1.8340812E+05   -1.7217636E+00
   2.7053042E-04   1.8195914E+05   -1.7211951E+00
   2.7177976E-04   1.8052208E+05   -1.7206269E+00
   2.7303487E-04   1.7909684E+05   -1.7200590E+00
   2.7429577E-04   1.7768332E+05   -1.7194914E+00
   2.7556250E-04   1.7628141E+05   -1.7189242E+00
   2.7683507E-04   1.7489102E+05   -1.7183572E+00
   2.7811353E-04   1.7351205E+05   -1.7177906E+00
   2.7939788E-04   1.7214441E+05   -1.7172244E+00
   2.8068817E-04   1.7078799E+05   -1.7166585E+00
   2.8198442E-04   1.6944270E+05   -1.7160929E+00
   2.8328665E-04   1.6810844E+05   -1.7155277E+00
   2.8459490E-04   1.6678512E+05   -1.7149628E+00
   2.8590919E-04   1.6547265E+05   -1.7143983E+00
   2.8722955E-04   1.6417094E+05   -1.7138342E+00
   2.8855600E-04   1.6287989E+05   -1.7132704E+00
   2.8988859E-04   1.6159941E+05   -1.7127070E+00
   2.9122732E-04   1.6032942E+05   -1.7121440E+00
   2.9257224E-04   1.5906981E+05   -1.7115814E+00
   2.9392337E-04   1.5782052E+05   -1.7110192E+00
   2.9528074E-04   1.5658144E+05   -1.7104574E+00
   2.9664438E-04   1.5535249E+05   -1.7098961E+00
   2.9801431E-04   1.5413358E+05   -1.7093351E+00
   2.9939057E-04   1.5292463E+05   -1.7087745E+00
   3.0077319E-04   1.5172556E+05   -1.7082144E+00
   3.0216219E-04   1.5053628E+05   -1.7076547E+00
   3.0355761E-04   1.4935670E+05   -1.7070955E+00
   3.0495947E-04   1.4818675E+05   -1.7065366E+00
   3.0636780E-04   1.4702634E+05   -1.7059783E+00
   3.0778264E-04   1.4587540E+05   -1.7054203E+00
   3.0920401E-04   1.4473383E+05   -1.7048629E+00
   3.1063195E-04   1.4360157E+05   -1.7043059E+00
   3.1206648E-04   1.4247853E+05   -1.7037494E+00
   3.1350764E-04   1.4136463E+05   -1.7031933E+00
   3.1495545E-04   1.4025981E+05   -1.7026377E+00
   3.1640994E-04   1.3916397E+05   -1.7020826E+00
   3.1787116E-04   1.3807705E+05   -1.7015280E+00
   3.1933912E-04   1.3699897E+05   -1.7009739E+00
   3.2081386E-04   1.3592965E+05   -1.7004203E+00
   3.2229541E-04   1.3486902E+05   -1.6998672E+00
   3.2378381E-04   1.3381701E+05   -1.6993146E+00
   3.2527908E-04   1.3277355E+05   -1.6987625E+00
   3.2678125E-04   1.3173855E+05   -1.6982110E+00
   3.2829036E-04   1.3071196E+05   -1.6976600E+00
   3.2980644E-04   1.2969369E+05   -1.6971095E+00
   3.3132952E-04   1.2868368E+05   -1.6965595E+00
   3.3285963E-04   1.2768186E+05   -1.6960101E+00
   3.3439681E-04   1.2668816E+05   -1.6954612E+00
   3.3594109E-04   1.2570252E+05   -1.6949129E+00
   3.3749250E-04   1.2472485E+05   -1.6943651E+00
   3.3905108E-04   1.2375511E+05   -1.6938179E+00
   3.4061685E-04   1.2279321E+05   -1.6932712E+00
   3.4218986E-04   1.2183909E+05   -1.6927252E+00
   3.4377013E-04   1.2089269E+05   -1.6921797E+00
   3.4535769E-04   1.1995395E+05   -1.6916347E+00
   3.4695259E-04   1.1902279E+05   -1.6910904E+00
   3.4855485E-04   1.1809916E+05   -1.6905467E+00
   3.5016452E-04   1.1718299E+05   -1.6900035E+00
   3.5178161E-04   1.1627421E+05   -1.6894610E+00
   3.5340618E-04   1.1537277E+05   -1.6889190E+00
   3.5503824E-04   1.1447861E+05   -1.6883777E+00
   3.5667785E-04   1.1359166E+05   -1.6878370E+00
   3.5832502E-04   1.1271186E+05   -1.6872969E+00
   3.5997981E-04   1.1183916E+05   -1.6867574E+00
   3.6164223E-04   1.1097348E+05   -1.6862186E+00
   3.6331233E-04   1.1011478E+05   -1.6856803E+00
   3.6499015E-04   1.0926300E+05   -1.6851428E+00
   3.6667571E-04   1.0841807E+05   -1.6846058E+00
   3.6836906E-04   1.0757995E+05   -1.6840695E+00
   3.7007022E-04   1.0674856E+05   -1.6835339E+00
   3.7177925E-04   1.0592387E+05   -1.6829989E+00
   3.7349616E-04   1.0510580E+05   -1.6824646E+00
   3.7522101E-04   1.0429431E+05   -1.6819309E+00
   3.7695382E-04   1.0348933E+05   -1.6813979E+00
   3.7869463E-04   1.0269082E+05   -1.6808656E+00
   3.8044348E-04   1.0189873E+05   -1.6803339E+00
   3.8220041E-04   1.0111299E+05   -1.6798030E+00
   3.8396545E-04   1.0033355E+05   -1.6792727E+00
   3.8573864E-04   9.9560368E+04   -1.6787431E+00
   3.8752002E-04   9.8793383E+04   -1.6782142E+00
   3.8930963E-04   9.8032545E+04   -1.6776860E+00
   3.9110750E-04   9.7277803E+04   -1.6771585E+00
   3.9291368E-04   9.6529107E+04   -1.6766318E+00
   3.9472820E-04   9.5786405E+04   -1.6761057E+00
   3.9655109E-04   9.5049647E+04   -1.6755803E+00
   3.9838241E-04   9.4318785E+04   -1.6750557E+00
   4.0022218E-04   9.3593768E+04   -1.6745318E+00
   4.0207045E-04   9.2874549E+04   -1.6740086E+00
   4.0392725E-04   9.2161079E+04   -1.6734861E+00
   4.0579263E-04   9.1453309E+04   -1.6729644E+00
   4.0766662E-04   9.0751193E+04   -1.6724434E+00
   4.0954927E-04   9.0054684E+04   -1.6719232E+00
   4.1144061E-04   8.9363734E+04   -1.6714037E+00
   4.1334068E-04   8.8678297E+04   -1.6708850E+00
   4.1524953E-04   8.7998329E+04   -1.6703670E+00
   4.1716720E-04   8.7323782E+04   -1.6698498E+00
   4.1909372E-04   8.6654612E+04   -1.6693333E+00
   4.2102914E-04   8.5990775E+04   -1.6688176E+00
   4.2297350E-04   8.5332225E+04   -1.6683027E+00
   4.2492683E-04   8.4678920E+04   -1.6677885E+00
   4.2688919E-04   8.4030815E+04   -1.6672752E+00
   4.2886061E-04   8.3387869E+04   -1.6667626E+00
   4.3084113E-04   8.2750036E+04   -1.6662508E+00
   4.3283080E-04   8.2117276E+04   -1.6657398E+00
   4.3482966E-04   8.1489547E+04   -1.6652295E+00
   4.3683775E-04   8.0866805E+04   -1.6647201E+00
   4.3885511E-04   8.0249011E+04   -1.6642115E+00
   4.4088179E-04   7.9636123E+04   -1.6637037E+00
   4.4291783E-04   7.9028101E+04   -1.6631966E+00
   4.4496327E-04   7.8424904E+04   -1.6626904E+00
   4.4701816E-04   7.7826492E+04   -1.6621850E+00
   4.4908253E-04   7.7232826E+04   -1.6616804E+00
   4.5115644E-04   7.6643867E+04   -1.6611767E+00
   4.5323993E-04   7.6059575E+04   -1.6606737E+00
   4.5533304E-04   7.5479913E+04   -1.6601716E+00
   4.5743582E-04   7.4904841E+04   -1.6596704E+00
   4.5954830E-04   7.4334322E+04   -1.6591699E+00
   4.6167054E-04   7.3768319E+04   -1.6586703E+00
   4.6380259E-04   7.3206794E+04   -1.6581715E+00
   4.6594448E-04   7.2649710E+04   -1.6576736E+00
   4.6809626E-04   7.2097030E+04   -1.6571765E+00
   4.7025797E-04   7.1548719E+04   -1.6566803E+00
   4.7242967E-04   7.1004739E+04   -1.6561849E+00
   4.7461140E-04   7.0465057E+04   -1.6556904E+00
   4.7680321E-04   6.9929635E+04   -1.6551967E+00
   4.7900514E-04   6.9398440E+04   -1.6547039E+00
   4.8121723E-04   6.8871435E+04   -1.6542119E+00
   4.8343954E-04   6.8348588E+04   -1.6537209E+00
   4.8567212E-04   6.7829863E+04   -1.6532307E+00
   4.8791500E-04   6.7315227E+04   -1.6527413E+00
   4.9016825E-04   6.6804647E+04   -1.6522529E+00
   4.9243189E-04   6.6298087E+04   -1.6517653E+00
   4.9470600E-04   6.5795517E+04   -1.6512786E+00
   4.9699060E-04   6.5296903E+04   -1.6507928E+00
   4.9928575E-04   6.4802212E+04   -1.6503078E+00
   5.0159151E-04   6.4311412E+04   -1.6498238E+00
   5.0390791E-04   6.3824472E+04   -1.6493407E+00
   5.0623501E-04   6.3341360E+04   -1.6488584E+00
   5.0857286E-04   6.2862044E+04   -1.6483770E+00
   5.1092150E-04   6.2386493E+04   -1.6478966E+00
   5.1328099E-04   6.1914677E+04   -1.6474170E+00
   5.1565137E-04   6.1446565E+04   -1.6469384E+00
   5.1803270E-04   6.0982126E+04   -1.6464606E+00
   5.2042503E-04   6.0521331E+04   -1.6459838E+00
   5.2282841E-04   6.0064150E+04   -1.6455079E+00
   5.2524289E-04   5.9610553E+04   -1.6450329E+00
   5.2766851E-04   5.9160510E+04   -1.6445588E+00
   5.3010534E-04   5.8713994E+04   -1.6440856E+00
   5.3255342E-04   5.8270974E+04   -1.6436134E+00
   5.3501281E-04   5.7831423E+04   -1.6431421E+00
   5.3748356E-04   5.7395312E+04   -1.6426717E+00
   5.3996571E-04   5.6962613E+04   -1.6422022E+00
   5.4245933E-04   5.6533298E+04   -1.6417337E+00
   5.4496446E-04   5.6107340E+04   -1.6412661E+00
   5.4748117E-04   5.5684712E+04   -1.6407994E+00
   5.5000949E-04   5.5265385E+04   -1.6403337E+00
   5.5254949E-04   5.4849334E+04   -1.6398689E+00
   5.5510123E-04   5.4436531E+04   -1.6394050E+00
   5.5766474E-04   5.4026951E+04   -1.6389421E+00
   5.6024010E-04   5.3620566E+04   -1.6384802E+00
   5.6282734E-04   5.3217352E+04   -1.6380192E+00
   5.6542654E-04   5.2817281E+04   -1.6375591E+00
   5.6803774E-04   5.2420329E+04   -1.6371000E+00
   5.7066099E-04   5.2026471E+04   -1.6366418E+00
   5.7329637E-04   5.1635680E+04   -1.6361846E+00
   5.7594391E-04   5.1247933E+04   -1.6357284E+00
   5.7860368E-04   5.0863204E+04   -1.6352731E+00
   5.8127573E-04   5.0481469E+04   -1.6348188E+00
   5.8396012E-04   5.0102704E+04   -1.6343654E+00
   5.8665691E-04   4.9726885E+04   -1.6339130E+00
   5.8936616E-04   4.9353987E+04   -1.6334616E+00
   5.9208791E-04   4.8983988E+04   -1.6330111E+00
   5.9482223E-04   4.8616863E+04   -1.6325616E+00
   5.9756919E-04   4.8252590E+04   -1.6321131E+00
   6.0032882E-04   4.7891144E+04   -1.6316655E+00
   6.0310120E-04   4.7532504E+04   -1.6312190E+00
   6.0588639E-04   4.7176647E+04   -1.6307734E+00
   6.0868443E-04   4.6823550E+04   -1.6303287E+00
   6.1149540E-04   4.6473191E+04   -1.6298851E+00
   6.1431935E-04   4.6125548E+04   -1.6294424E+00
   6.1715634E-04   4.5780598E+04   -1.6290007E+00
   6.2000644E-04   4.5438321E+04   -1.6285600E+00
   6.2286969E-04   4.5098694E+04   -1.6281203E+00
