#        a       HoverH0(a)       dlogHdloga_of_a(a)
   1.0000000E-04   1.0625058E+06   -1.8814135E+00
   1.0046181E-04   1.0533362E+06   -1.8809962E+00
   1.0092575E-04   1.0442478E+06   -1.8805778E+00
   1.0139184E-04   1.0352397E+06   -1.8801585E+00
   1.0186008E-04   1.0263114E+06   -1.8797382E+00
   1.0233048E-04   1.0174621E+06   -1.8793168E+00
   1.0280305E-04   1.0086910E+06   -1.8788945E+00
   1.0327781E-04   9.9999745E+05   -1.8784711E+00
   1.0375475E-04   9.9138078E+05   -1.8780467E+00
   1.0423390E-04   9.8284028E+05   -1.8776214E+00
   1.0471527E-04   9.7437527E+05   -1.8771950E+00
   1.0519885E-04   9.6598506E+05   -1.8767677E+00
   1.0568467E-04   9.5766899E+05   -1.8763393E+00
   1.0617274E-04   9.4942639E+05   -1.8759099E+00
   1.0666305E-04   9.4125659E+05   -1.8754796E+00
   1.0715563E-04   9.3315895E+05   -1.8750482E+00
   1.0765049E-04   9.2513282E+05   -1.8746159E+00
   1.0814763E-04   9.1717755E+05   -1.8741825E+00
   1.0864707E-04   9.0929250E+05   -1.8737482E+00
   1.0914881E-04   9.0147705E+05   -1.8733128E+00
   1.0965287E-04   8.9373057E+05   -1.8728765E+00
   1.1015926E-04   8.8605243E+05   -1.8724392E+00
   1.1066799E-04   8.7844203E+05   -1.8720009E+00
   1.1117906E-04   8.7089876E+05   -1.8715616E+00
   1.1169250E-04   8.6342201E+05   -1.8711213E+00
   1.1220831E-04   8.5601119E+05   -1.8706801E+00
   1.1272650E-04   8.4866570E+05   -1.8702379E+00
   1.1324708E-04   8.4138497E+05   -1.8697946E+00
   1.1377007E-04   8.3416840E+05   -1.8693504E+00
   1.1429547E-04   8.2701542E+05   -1.8689053E+00
   1.1482330E-04   8.1992547E+05   -1.8684591E+00
   1.1535356E-04   8.1289796E+05   -1.8680120E+00
   1.1588628E-04   8.0593235E+05   -1.8675639E+00
   1.1642145E-04   7.9902808E+05   -1.8671148E+00
   1.1695910E-04   7.9218460E+05   -1.8666647E+00
   1.1749923E-04   7.8540136E+05   -1.8662137E+00
   1.1804185E-04   7.7867783E+05   -1.8657617E+00
   1.1858698E-04   7.7201346E+05   -1.8653088E+00
   1.1913463E-04   7.6540772E+05   -1.8648549E+00
   1.1968481E-04   7.5886010E+05   -1.8644000E+00
   1.2023752E-04   7.5237007E+05   -1.8639442E+00
   1.2079279E-04   7.4593711E+05   -1.8634874E+00
   1.2135063E-04   7.3956071E+05   -1.8630296E+00
   1.2191104E-04   7.3324037E+05   -1.8625709E+00
   1.2247403E-04   7.2697558E+05   -1.8621113E+00
   1.2303963E-04   7.2076584E+05   -1.8616507E+00
   1.2360784E-04   7.1461067E+05   -1.8611891E+00
   1.2417868E-04   7.0850957E+05   -1.8607266E+00
   1.2475215E-04   7.0246205E+05   -1.8602632E+00
   1.2532826E-04   6.9646764E+05   -1.8597988E+00
   1.2590704E-04   6.9052586E+05   -1.8593334E+00
   1.2648850E-04   6.8463625E+05   -1.8588672E+00
   1.2707263E-04   6.7879832E+05   -1.8584000E+00
   1.2765947E-04   6.7301163E+05   -1.8579318E+00
   1.2824901E-04   6.6727571E+05   -1.8574628E+00
   1.2884128E-04   6.6159011E+05   -1.8569928E+00
   1.2943628E-04   6.5595437E+05   -1.8565218E+00
   1.3003403E-04   6.5036806E+05   -1.8560500E+00
   1.3063454E-04   6.4483072E+05   -1.8555772E+00
   1.3123783E-04   6.3934192E+05   -1.8551035E+00
   1.3184390E-04   6.3390123E+05   -1.8546289E+00
   1.3245277E-04   6.2850821E+05   -1.8541533E+00
   1.3306445E-04   6.2316244E+05   -1.8536769E+00
   1.3367895E-04   6.1786350E+05   -1.8531995E+00
   1.3429630E-04   6.1261096E+05   -1.8527212E+00
   1.3491649E-04   6.0740442E+05   -1.8522421E+00
   1.3553955E-04   6.0224346E+05   -1.8517620E+00
   1.3616548E-04   5.9712767E+05   -1.8512810E+00
   1.3679431E-04   5.9205665E+05   -1.8507991E+00
   1.3742604E-04   5.8703000E+05   -1.8503163E+00
   1.3806069E-04   5.8204733E+05   -1.8498327E+00
   1.3869827E-04   5.7710823E+05   -1.8493481E+00
   1.3933879E-04   5.7221232E+05   -1.8488627E+00
   1.3998227E-04   5.6735922E+05   -1.8483763E+00
   1.4062872E-04   5.6254854E+05   -1.8478891E+00
   1.4127816E-04   5.5777990E+05   -1.8474010E+00
   1.4193060E-04   5.5305294E+05   -1.8469120E+00
   1.4258605E-04   5.4836726E+05   -1.8464222E+00
   1.4324453E-04   5.4372252E+05   -1.8459315E+00
   1.4390605E-04   5.3911833E+05   -1.8454399E+00
   1.4457062E-04   5.3455435E+05   -1.8449474E+00
   1.4523826E-04   5.3003021E+05   -1.8444541E+00
   1.4590899E-04   5.2554555E+05   -1.8439599E+00
   1.4658281E-04   5.2110002E+05   -1.8434649E+00
   1.4725974E-04   5.1669328E+05   -1.8429690E+00
   1.4793981E-04   5.1232498E+05   -1.8424723E+00
   1.4862301E-04   5.0799477E+05   -1.8419747E+00
   1.4930936E-04   5.0370231E+05   -1.8414762E+00
   1.4999889E-04   4.9944728E+05   -1.8409770E+00
   1.5069160E-04   4.9522933E+05   -1.8404769E+00
   1.5138751E-04   4.9104813E+05   -1.8399759E+00
   1.5208663E-04   4.8690336E+05   -1.8394741E+00
   1.5278899E-04   4.8279469E+05   -1.8389715E+00
   1.5349458E-04   4.7872180E+05   -1.8384681E+00
   1.5420343E-04   4.7468437E+05   -1.8379639E+00
   1.5491556E-04   4.7068209E+05   -1.8374588E+00
   1.5563098E-04   4.6671464E+05   -1.8369529E+00
   1.5634970E-04   4.6278171E+05   -1.8364462E+00
   1.5707174E-04   4.5888299E+05   -1.8359387E+00
   1.5779711E-04   4.5501819E+05   -1.8354304E+00
   1.5852584E-04   4.5118699E+05   -1.8349213E+00
   1.5925792E-04   4.4738910E+05   -1.8344114E+00
   1.5999339E-04   4.4362423E+05   -1.8339007E+00
   1.6073226E-04   4.3989207E+05   -1.8333892E+00
   1.6147454E-04   4.3619233E+05   -1.8328769E+00
   1.6222024E-04   4.3252474E+05   -1.8323638E+00
   1.6296939E-04   4.2888900E+05   -1.8318500E+00
   1.6372200E-04   4.2528483E+05   -1.8313354E+00
   1.6447809E-04   4.2171195E+05   -1.8308200E+00
   1.6523767E-04   4.1817007E+05   -1.8303038E+00
   1.6600075E-04   4.1465893E+05   -1.8297869E+00
   1.6676736E-04   4.1117826E+05   -1.8292692E+00
   1.6753751E-04   4.0772777E+05   -1.8287508E+00
   1.6831122E-04   4.0430720E+05   -1.8282316E+00
   1.6908849E-04   4.0091629E+05   -1.8277116E+00
   1.6986936E-04   3.9755477E+05   -1.8271909E+00
   1.7065384E-04   3.9422239E+05   -1.8266695E+00
   1.7144193E-04   3.9091887E+05   -1.8261473E+00
   1.7223367E-04   3.8764398E+05   -1.8256244E+00
   1.7302906E-04   3.8439744E+05   -1.8251008E+00
   1.7382813E-04   3.8117902E+05   -1.8245764E+00
   1.7463089E-04   3.7798845E+05   -1.8240514E+00
   1.7543735E-04   3.7482550E+05   -1.8235256E+00
   1.7624754E-04   3.7168992E+05   -1.8229991E+00
   1.7706147E-04   3.6858146E+05   -1.8224718E+00
   1.7787916E-04   3.6549989E+05   -1.8219439E+00
   1.7870062E-04   3.6244496E+05   -1.8214153E+00
   1.7952588E-04   3.5941645E+05   -1.8208860E+00
   1.8035495E-04   3.5641410E+05   -1.8203560E+00
   1.8118785E-04   3.5343771E+05   -1.8198253E+00
   1.8202459E-04   3.5048702E+05   -1.8192939E+00
   1.8286520E-04   3.4756182E+05   -1.8187618E+00
   1.8370969E-04   3.4466188E+05   -1.8182291E+00
   1.8455808E-04   3.4178698E+05   -1.8176957E+00
   1.8541039E-04   3.3893689E+05   -1.8171616E+00
   1.8626663E-04   3.3611139E+05   -1.8166268E+00
   1.8712683E-04   3.3331027E+05   -1.8160914E+00
   1.8799100E-04   3.3053331E+05   -1.8155554E+00
   1.8885917E-04   3.2778029E+05   -1.8150187E+00
   1.8973134E-04   3.2505101E+05   -1.8144814E+00
   1.9060754E-04   3.2234526E+05   -1.8139434E+00
   1.9148778E-04   3.1966282E+05   -1.8134048E+00
   1.9237209E-04   3.1700348E+05   -1.8128655E+00
   1.9326049E-04   3.1436706E+05   -1.8123257E+00
   1.9415299E-04   3.1175333E+05   -1.8117852E+00
   1.9504960E-04   3.0916211E+05   -1.8112441E+00
   1.9595036E-04   3.0659319E+05   -1.8107023E+00
   1.9685528E-04   3.0404638E+05   -1.8101600E+00
   1.9776438E-04   3.0152147E+05   -1.8096171E+00
   1.9867768E-04   2.9901828E+05   -1.8090736E+00
   1.9959519E-04   2.9653662E+05   -1.8085294E+00
   2.0051694E-04   2.9407629E+05   -1.8079847E+00
   2.0144295E-04   2.9163710E+05   -1.8074395E+00
   2.0237324E-04   2.8921888E+05   -1.8068936E+00
   2.0330782E-04   2.8682142E+05   -1.8063472E+00
   2.0424671E-04   2.8444456E+05   -1.8058001E+00
   2.0518995E-04   2.8208810E+05   -1.8052526E+00
   2.0613754E-04   2.7975188E+05   -1.8047045E+00
   2.0708950E-04   2.7743570E+05   -1.8041558E+00
   2.0804586E-04   2.7513939E+05   -1.8036065E+00
   2.0900664E-04   2.7286279E+05   -1.8030568E+00
   2.0997185E-04   2.7060570E+05   -1.8025065E+00
   2.1094152E-04   2.6836797E+05   -1.8019556E+00
   2.1191567E-04   2.6614942E+05   -1.8014043E+00
   2.1289432E-04   2.6394987E+05   -1.8008524E+00
   2.1387749E-04   2.6176917E+05   -1.8002999E+00
   2.1486520E-04   2.5960715E+05   -1.7997470E+00
   2.1585747E-04   2.5746365E+05   -1.7991936E+00
   2.1685432E-04   2.5533849E+05   -1.7986397E+00
   2.1785578E-04   2.5323152E+05   -1.7980852E+00
   2.1886186E-04   2.5114257E+05   -1.7975303E+00
   2.1987259E-04   2.4907150E+05   -1.7969749E+00
   2.2088798E-04   2.4701814E+05   -1.7964190E+00
   2.2190807E-04   2.4498233E+05   -1.7958626E+00
   2.2293286E-04   2.4296393E+05   -1.7953058E+00
   2.2396239E-04   2.4096277E+05   -1.7947485E+00
   2.2499667E-04   2.3897871E+05   -1.7941907E+00
   2.2603573E-04   2.3701160E+05   -1.7936325E+00
   2.2707958E-04   2.3506128E+05   -1.7930738E+00
   2.2812826E-04   2.3312761E+05   -1.7925147E+00
   2.2918178E-04   2.3121045E+05   -1.7919552E+00
   2.3024017E-04   2.2930964E+05   -1.7913952E+00
   2.3130344E-04   2.2742505E+05   -1.7908348E+00
   2.3237162E-04   2.2555652E+05   -1.7902739E+00
   2.3344474E-04   2.2370393E+05   -1.7897127E+00
   2.3452281E-04   2.2186713E+05   -1.7891510E+00
   2.3560586E-04   2.2004598E+05   -1.7885890E+00
   2.3669392E-04   2.1824034E+05   -1.7880265E+00
   2.3778699E-04   2.1645008E+05   -1.7874636E+00
   2.3888512E-04   2.1467506E+05   -1.7869004E+00
   2.3998831E-04   2.1291515E+05   -1.7863367E+00
   2.4109661E-04   2.1117022E+05   -1.7857727E+00
   2.4221001E-04   2.0944013E+05   -1.7852083E+00
   2.4332857E-04   2.0772476E+05   -1.7846436E+00
   2.4445228E-04   2.0602397E+05   -1.7840785E+00
   2.4558119E-04   2.0433764E+05   -1.7835130E+00
   2.4671531E-04   2.0266565E+05   -1.7829472E+00
   2.4785467E-04   2.0100785E+05   -1.7823810E+00
   2.4899928E-04   1.9936414E+05   -1.7818145E+00
   2.5014919E-04   1.9773439E+05   -1.7812477E+00
   2.5130440E-04   1.9611847E+05   -1.7806805E+00
   2.5246495E-04   1.9451626E+05   -1.7801130E+00
   2.5363086E-04   1.9292765E+05   -1.7795452E+00
   2.5480216E-04   1.9135252E+05   -1.7789771E+00
   2.5597886E-04   1.8979074E+05   -1.7784087E+00
   2.5716100E-04   1.8824220E+05   -1.7778400E+00
   2.5834859E-04   1.8670678E+05   -1.7772710E+00
   2.5954168E-04   1.8518438E+05   -1.7767017E+00
   2.6074027E-04   1.8367487E+05   -1.7761321E+00
   2.6194439E-04   1.8217814E+05   -1.7755623E+00
   2.6315408E-04   1.8069408E+05   -1.7749922E+00
   2.6436935E-04   1.7922259E+05   -1.7744218E+00
   2.6559024E-04   1.7776354E+05   -1.7738512E+00
   2.6681676E-04   1.7631684E+05   -1.7732803E+00
   2.6804895E-04   1.7488237E+05   -1.7727091E+00
   2.6928683E-04   1.7346003E+05   -1.7721378E+00
   2.7053042E-04   1.7204970E+05   -1.7715662E+00
   2.7177976E-04   1.7065130E+05   -1.7709943E+00
   2.7303487E-04   1.6926471E+05   -1.7704223E+00
   2.7429577E-04   1.6788982E+05   -1.7698500E+00
   2.7556250E-04   1.6652654E+05   -1.7692775E+00
   2.7683507E-04   1.6517477E+05   -1.7687048E+00
   2.7811353E-04   1.6383440E+05   -1.7681320E+00
   2.7939788E-04   1.6250534E+05   -1.7675589E+00
   2.8068817E-04   1.6118749E+05   -1.7669856E+00
   2.8198442E-04   1.5988075E+05   -1.7664122E+00
   2.8328665E-04   1.5858502E+05   -1.7658386E+00
   2.8459490E-04   1.5730020E+05   -1.7652648E+00
   2.8590919E-04   1.5602621E+05   -1.7646908E+00
   2.8722955E-04   1.5476295E+05   -1.7641167E+00
   2.8855600E-04   1.5351032E+05   -1.7635425E+00
   2.8988859E-04   1.5226823E+05   -1.7629681E+00
   2.9122732E-04   1.5103659E+05   -1.7623936E+00
   2.9257224E-04   1.4981531E+05   -1.7618189E+00
   2.9392337E-04   1.4860430E+05   -1.7612441E+00
   2.9528074E-04   1.4740346E+05   -1.7606692E+00
   2.9664438E-04   1.4621272E+05   -1.7600942E+00
   2.9801431E-04   1.4503198E+05   -1.7595191E+00
   2.9939057E-04   1.4386116E+05   -1.7589438E+00
   3.0077319E-04   1.4270017E+05   -1.7583685E+00
   3.0216219E-04   1.4154893E+05   -1.7577931E+00
   3.0355761E-04   1.4040734E+05   -1.7572176E+00
   3.0495947E-04   1.3927533E+05   -1.7566420E+00
   3.0636780E-04   1.3815281E+05   -1.7560664E+00
   3.0778264E-04   1.3703970E+05   -1.7554906E+00
   3.0920401E-04   1.3593593E+05   -1.7549149E+00
   3.1063195E-04   1.3484140E+05   -1.7543390E+00
   3.1206648E-04   1.3375603E+05   -1.7537632E+00
   3.1350764E-04   1.3267976E+05   -1.7531873E+00
   3.1495545E-04   1.3161250E+05   -1.7526113E+00
   3.1640994E-04   1.3055416E+05   -1.7520353E+00
   3.1787116E-04   1.2950468E+05   -1.7514593E+00
   3.1933912E-04   1.2846398E+05   -1.7508833E+00
   3.2081386E-04   1.2743198E+05   -1.7503073E+00
   3.2229541E-04   1.2640861E+05   -1.7497313E+00
   3.2378381E-04   1.2539379E+05   -1.7491553E+00
   3.2527908E-04   1.2438744E+05   -1.7485792E+00
   3.2678125E-04   1.2338950E+05   -1.7480032E+00
   3.2829036E-04   1.2239989E+05   -1.7474273E+00
   3.2980644E-04   1.2141854E+05   -1.7468513E+00
   3.3132952E-04   1.2044537E+05   -1.7462754E+00
   3.3285963E-04   1.1948033E+05   -1.7456995E+00
   3.3439681E-04   1.1852333E+05   -1.7451237E+00
   3.3594109E-04   1.1757430E+05   -1.7445479E+00
   3.3749250E-04   1.1663319E+05   -1.7439721E+00
   3.3905108E-04   1.1569991E+05   -1.7433965E+00
   3.4061685E-04   1.1477441E+05   -1.7428209E+00
   3.4218986E-04   1.1385661E+05   -1.7422454E+00
   3.4377013E-04   1.1294646E+05   -1.7416699E+00
   3.4535769E-04   1.1204387E+05   -1.7410946E+00
   3.4695259E-04   1.1114879E+05   -1.7405193E+00
   3.4855485E-04   1.1026116E+05   -1.7399442E+00
   3.5016452E-04   1.0938090E+05   -1.7393691E+00
   3.5178161E-04   1.0850796E+05   -1.7387942E+00
   3.5340618E-04   1.0764227E+05   -1.7382193E+00
   3.5503824E-04   1.0678376E+05   -1.7376446E+00
   3.5667785E-04   1.0593239E+05   -1.7370701E+00
   3.5832502E-04   1.0508808E+05   -1.7364956E+00
   3.5997981E-04   1.0425078E+05   -1.7359213E+00
   3.6164223E-04   1.0342042E+05   -1.7353472E+00
   3.6331233E-04   1.0259695E+05   -1.7347732E+00
   3.6499015E-04   1.0178030E+05   -1.7341994E+00
   3.6667571E-04   1.0097043E+05   -1.7336257E+00
   3.6836906E-04   1.0016726E+05   -1.7330522E+00
   3.7007022E-04   9.9370737E+04   -1.7324789E+00
   3.7177925E-04   9.8580812E+04   -1.7319058E+00
   3.7349616E-04   9.7797425E+04   -1.7313329E+00
   3.7522101E-04   9.7020519E+04   -1.7307601E+00
   3.7695382E-04   9.6250039E+04   -1.7301876E+00
   3.7869463E-04   9.5485930E+04   -1.7296153E+00
   3.8044348E-04   9.4728137E+04   -1.7290431E+00
   3.8220041E-04   9.3976605E+04   -1.7284712E+00
   3.8396545E-04   9.3231281E+04   -1.7278996E+00
   3.8573864E-04   9.2492112E+04   -1.7273281E+00
   3.8752002E-04   9.1759045E+04   -1.7267569E+00
   3.8930963E-04   9.1032027E+04   -1.7261860E+00
   3.9110750E-04   9.0311007E+04   -1.7256153E+00
   3.9291368E-04   8.9595934E+04   -1.7250448E+00
   3.9472820E-04   8.8886755E+04   -1.7244746E+00
   3.9655109E-04   8.8183422E+04   -1.7239047E+00
   3.9838241E-04   8.7485884E+04   -1.7233351E+00
   4.0022218E-04   8.6794091E+04   -1.7227657E+00
   4.0207045E-04   8.6107994E+04   -1.7221966E+00
   4.0392725E-04   8.5427545E+04   -1.7216278E+00
   4.0579263E-04   8.4752695E+04   -1.7210593E+00
   4.0766662E-04   8.4083397E+04   -1.7204911E+00
   4.0954927E-04   8.3419602E+04   -1.7199233E+00
   4.1144061E-04   8.2761264E+04   -1.7193557E+00
   4.1334068E-04   8.2108336E+04   -1.7187884E+00
   4.1524953E-04   8.1460772E+04   -1.7182215E+00
   4.1716720E-04   8.0818526E+04   -1.7176549E+00
   4.1909372E-04   8.0181553E+04   -1.7170886E+00
   4.2102914E-04   7.9549807E+04   -1.7165227E+00
   4.2297350E-04   7.8923245E+04   -1.7159572E+00
   4.2492683E-04   7.8301822E+04   -1.7153919E+00
   4.2688919E-04   7.7685495E+04   -1.7148271E+00
   4.2886061E-04   7.7074219E+04   -1.7142626E+00
   4.3084113E-04   7.6467951E+04   -1.7136985E+00
   4.3283080E-04   7.5866650E+04   -1.7131347E+00
   4.3482966E-04   7.5270273E+04   -1.7125714E+00
   4.3683775E-04   7.4678777E+04   -1.7120084E+00
   4.3885511E-04   7.4092121E+04   -1.7114458E+00
   4.4088179E-04   7.3510265E+04   -1.7108836E+00
   4.4291783E-04   7.2933167E+04   -1.7103219E+00
   4.4496327E-04   7.2360786E+04   -1.7097605E+00
   4.4701816E-04   7.1793084E+04   -1.7091995E+00
   4.4908253E-04   7.1230019E+04   -1.7086390E+00
   4.5115644E-04   7.0671552E+04   -1.7080789E+00
   4.5323993E-04   7.0117645E+04   -1.7075192E+00
   4.5533304E-04   6.9568259E+04   -1.7069600E+00
   4.5743582E-04   6.9023356E+04   -1.7064012E+00
   4.5954830E-04   6.8482896E+04   -1.7058428E+00
   4.6167054E-04   6.7946843E+04   -1.7052850E+00
   4.6380259E-04   6.7415160E+04   -1.7047275E+00
   4.6594448E-04   6.6887808E+04   -1.7041705E+00
   4.6809626E-04   6.6364752E+04   -1.7036140E+00
   4.7025797E-04   6.5845955E+04   -1.7030580E+00
   4.7242967E-04   6.5331380E+04   -1.7025025E+00
   4.7461140E-04   6.4820993E+04   -1.7019474E+00
   4.7680321E-04   6.4314758E+04   -1.7013928E+00
   4.7900514E-04   6.3812639E+04   -1.7008388E+00
   4.8121723E-04   6.3314602E+04   -1.7002852E+00
   4.8343954E-04   6.2820612E+04   -1.6997321E+00
   4.8567212E-04   6.2330635E+04   -1.6991795E+00
   4.8791500E-04   6.1844637E+04   -1.6986275E+00
   4.9016825E-04   6.1362584E+04   -1.6980760E+00
   4.9243189E-04   6.0884444E+04   -1.6975250E+00
   4.9470600E-04   6.0410182E+04   -1.6969745E+00
   4.9699060E-04   5.9939767E+04   -1.6964246E+00
   4.9928575E-04   5.9473165E+04   -1.6958752E+00
   5.0159151E-04   5.9010345E+04   -1.6953264E+00
   5.0390791E-04   5.8551274E+04   -1.6947781E+00
   5.0623501E-04   5.8095922E+04   -1.6942304E+00
   5.0857286E-04   5.7644256E+04   -1.6936832E+00
   5.1092150E-04   5.7196246E+04   -1.6931366E+00
   5.1328099E-04   5.6751861E+04   -1.6925905E+00
   5.1565137E-04   5.6311070E+04   -1.6920451E+00
   5.1803270E-04   5.5873843E+04   -1.6915002E+00
   5.2042503E-04   5.5440149E+04   -1.6909559E+00
   5.2282841E-04   5.5009961E+04   -1.6904122E+00
   5.2524289E-04   5.4583246E+04   -1.6898691E+00
   5.2766851E-04   5.4159977E+04   -1.6893266E+00
   5.3010534E-04   5.3740125E+04   -1.6887847E+00
   5.3255342E-04   5.3323661E+04   -1.6882434E+00
   5.3501281E-04   5.2910555E+04   -1.6877028E+00
   5.3748356E-04   5.2500781E+04   -1.6871627E+00
   5.3996571E-04   5.2094310E+04   -1.6866233E+00
   5.4245933E-04   5.1691115E+04   -1.6860845E+00
   5.4496446E-04   5.1291167E+04   -1.6855463E+00
   5.4748117E-04   5.0894440E+04   -1.6850088E+00
   5.5000949E-04   5.0500907E+04   -1.6844719E+00
   5.5254949E-04   5.0110540E+04   -1.6839357E+00
   5.5510123E-04   4.9723314E+04   -1.6834001E+00
   5.5766474E-04   4.9339201E+04   -1.6828651E+00
   5.6024010E-04   4.8958177E+04   -1.6823309E+00
   5.6282734E-04   4.8580214E+04   -1.6817973E+00
   5.6542654E-04   4.8205288E+04   -1.6812643E+00
   5.6803774E-04   4.7833372E+04   -1.6807321E+00
   5.7066099E-04   4.7464443E+04   -1.6802005E+00
   5.7329637E-04   4.7098474E+04   -1.6796696E+00
   5.7594391E-04   4.6735441E+04   -1.6791393E+00
   5.7860368E-04   4.6375320E+04   -1.6786098E+00
   5.8127573E-04   4.6018086E+04   -1.6780810E+00
   5.8396012E-04   4.5663715E+04   -1.6775528E+00
   5.8665691E-04   4.5312183E+04   -1.6770254E+00
   5.8936616E-04   4.4963466E+04   -1.6764987E+00
   5.9208791E-04   4.4617541E+04   -1.6759727E+00
   5.9482223E-04   4.4274385E+04   -1.6754474E+00
   5.9756919E-04   4.3933974E+04   -1.6749228E+00
   6.0032882E-04   4.3596286E+04   -1.6743990E+00
   6.0310120E-04   4.3261298E+04   -1.6738758E+00
   6.0588639E-04   4.2928987E+04   -1.6733534E+00
   6.0868443E-04   4.2599331E+04   -1.6728318E+00
   6.1149540E-04   4.2272308E+04   -1.6723109E+00
   6.1431935E-04   4.1947897E+04   -1.6717907E+00
   6.1715634E-04   4.1626074E+04   -1.6712713E+00
   6.2000644E-04   4.1306820E+04   -1.6707526E+00
   6.2286969E-04   4.0990112E+04   -1.6702347E+00
