#        a       HoverH0(a)       dlogHdloga_of_a(a)
   1.0000000E-04   1.1899101E+06   -1.8826931E+00
   1.0046181E-04   1.1796340E+06   -1.8822789E+00
   1.0092575E-04   1.1694489E+06   -1.8818637E+00
   1.0139184E-04   1.1593540E+06   -1.8814475E+00
   1.0186008E-04   1.1493484E+06   -1.8810302E+00
   1.0233048E-04   1.1394314E+06   -1.8806120E+00
   1.0280305E-04   1.1296021E+06   -1.8801927E+00
   1.0327781E-04   1.1198598E+06   -1.8797725E+00
   1.0375475E-04   1.1102036E+06   -1.8793512E+00
   1.0423390E-04   1.1006329E+06   -1.8789289E+00
   1.0471527E-04   1.0911468E+06   -1.8785057E+00
   1.0519885E-04   1.0817445E+06   -1.8780814E+00
   1.0568467E-04   1.0724254E+06   -1.8776561E+00
   1.0617274E-04   1.0631886E+06   -1.8772298E+00
   1.0666305E-04   1.0540335E+06   -1.8768025E+00
   1.0715563E-04   1.0449592E+06   -1.8763743E+00
   1.0765049E-04   1.0359652E+06   -1.8759450E+00
   1.0814763E-04   1.0270506E+06   -1.8755147E+00
   1.0864707E-04   1.0182147E+06   -1.8750834E+00
   1.0914881E-04   1.0094568E+06   -1.8746511E+00
   1.0965287E-04   1.0007763E+06   -1.8742179E+00
   1.1015926E-04   9.9217234E+05   -1.8737836E+00
   1.1066799E-04   9.8364437E+05   -1.8733484E+00
   1.1117906E-04   9.7519165E+05   -1.8729121E+00
   1.1169250E-04   9.6681352E+05   -1.8724749E+00
   1.1220831E-04   9.5850929E+05   -1.8720367E+00
   1.1272650E-04   9.5027832E+05   -1.8715975E+00
   1.1324708E-04   9.4211993E+05   -1.8711573E+00
   1.1377007E-04   9.3403349E+05   -1.8707161E+00
   1.1429547E-04   9.2601834E+05   -1.8702739E+00
   1.1482330E-04   9.1807384E+05   -1.8698308E+00
   1.1535356E-04   9.1019936E+05   -1.8693867E+00
   1.1588628E-04   9.0239426E+05   -1.8689416E+00
   1.1642145E-04   8.9465794E+05   -1.8684955E+00
   1.1695910E-04   8.8698976E+05   -1.8680485E+00
   1.1749923E-04   8.7938912E+05   -1.8676004E+00
   1.1804185E-04   8.7185541E+05   -1.8671514E+00
   1.1858698E-04   8.6438803E+05   -1.8667015E+00
   1.1913463E-04   8.5698639E+05   -1.8662505E+00
   1.1968481E-04   8.4964990E+05   -1.8657986E+00
   1.2023752E-04   8.4237797E+05   -1.8653458E+00
   1.2079279E-04   8.3517002E+05   -1.8648919E+00
   1.2135063E-04   8.2802548E+05   -1.8644371E+00
   1.2191104E-04   8.2094378E+05   -1.8639814E+00
   1.2247403E-04   8.1392436E+05   -1.8635247E+00
   1.2303963E-04   8.0696666E+05   -1.8630670E+00
   1.2360784E-04   8.0007012E+05   -1.8626084E+00
   1.2417868E-04   7.9323420E+05   -1.8621488E+00
   1.2475215E-04   7.8645836E+05   -1.8616883E+00
   1.2532826E-04   7.7974205E+05   -1.8612268E+00
   1.2590704E-04   7.7308474E+05   -1.8607643E+00
   1.2648850E-04   7.6648591E+05   -1.8603010E+00
   1.2707263E-04   7.5994502E+05   -1.8598367E+00
   1.2765947E-04   7.5346157E+05   -1.8593714E+00
   1.2824901E-04   7.4703503E+05   -1.8589052E+00
   1.2884128E-04   7.4066490E+05   -1.8584381E+00
   1.2943628E-04   7.3435068E+05   -1.8579700E+00
   1.3003403E-04   7.2809185E+05   -1.8575010E+00
   1.3063454E-04   7.2188793E+05   -1.8570311E+00
   1.3123783E-04   7.1573842E+05   -1.8565602E+00
   1.3184390E-04   7.0964284E+05   -1.8560884E+00
   1.3245277E-04   7.0360070E+05   -1.8556157E+00
   1.3306445E-04   6.9761153E+05   -1.8551421E+00
   1.3367895E-04   6.9167485E+05   -1.8546676E+00
   1.3429630E-04   6.8579019E+05   -1.8541921E+00
   1.3491649E-04   6.7995709E+05   -1.8537157E+00
   1.3553955E-04   6.7417508E+05   -1.8532384E+00
   1.3616548E-04   6.6844371E+05   -1.8527602E+00
   1.3679431E-04   6.6276253E+05   -1.8522811E+00
   1.3742604E-04   6.5713109E+05   -1.8518011E+00
   1.3806069E-04   6.5154894E+05   -1.8513202E+00
   1.3869827E-04   6.4601564E+05   -1.8508384E+00
   1.3933879E-04   6.4053075E+05   -1.8503557E+00
   1.3998227E-04   6.3509385E+05   -1.8498721E+00
   1.4062872E-04   6.2970450E+05   -1.8493876E+00
   1.4127816E-04   6.2436227E+05   -1.8489022E+00
   1.4193060E-04   6.1906676E+05   -1.8484160E+00
   1.4258605E-04   6.1381754E+05   -1.8479288E+00
   1.4324453E-04   6.0861419E+05   -1.8474408E+00
   1.4390605E-04   6.0345631E+05   -1.8469519E+00
   1.4457062E-04   5.9834349E+05   -1.8464621E+00
   1.4523826E-04   5.9327533E+05   -1.8459715E+00
   1.4590899E-04   5.8825143E+05   -1.8454799E+00
   1.4658281E-04   5.8327140E+05   -1.8449876E+00
   1.4725974E-04   5.7833483E+05   -1.8444943E+00
   1.4793981E-04   5.7344136E+05   -1.8440002E+00
   1.4862301E-04   5.6859058E+05   -1.8435052E+00
   1.4930936E-04   5.6378213E+05   -1.8430094E+00
   1.4999889E-04   5.5901561E+05   -1.8425127E+00
   1.5069160E-04   5.5429067E+05   -1.8420152E+00
   1.5138751E-04   5.4960692E+05   -1.8415169E+00
   1.5208663E-04   5.4496400E+05   -1.8410177E+00
   1.5278899E-04   5.4036154E+05   -1.8405176E+00
   1.5349458E-04   5.3579920E+05   -1.8400167E+00
   1.5420343E-04   5.3127660E+05   -1.8395150E+00
   1.5491556E-04   5.2679339E+05   -1.8390125E+00
   1.5563098E-04   5.2234923E+05   -1.8385091E+00
   1.5634970E-04   5.1794376E+05   -1.8380049E+00
   1.5707174E-04   5.1357664E+05   -1.8374999E+00
   1.5779711E-04   5.0924753E+05   -1.8369941E+00
   1.5852584E-04   5.0495609E+05   -1.8364875E+00
   1.5925792E-04   5.0070198E+05   -1.8359800E+00
   1.5999339E-04   4.9648487E+05   -1.8354718E+00
   1.6073226E-04   4.9230443E+05   -1.8349628E+00
   1.6147454E-04   4.8816034E+05   -1.8344529E+00
   1.6222024E-04   4.8405227E+05   -1.8339423E+00
   1.6296939E-04   4.7997991E+05   -1.8334308E+00
   1.6372200E-04   4.7594292E+05   -1.8329186E+00
   1.6447809E-04   4.7194101E+05   -1.8324056E+00
   1.6523767E-04   4.6797385E+05   -1.8318918E+00
   1.6600075E-04   4.6404114E+05   -1.8313773E+00
   1.6676736E-04   4.6014257E+05   -1.8308620E+00
   1.6753751E-04   4.5627784E+05   -1.8303459E+00
   1.6831122E-04   4.5244664E+05   -1.8298290E+00
   1.6908849E-04   4.4864868E+05   -1.8293114E+00
   1.6986936E-04   4.4488367E+05   -1.8287930E+00
   1.7065384E-04   4.4115130E+05   -1.8282739E+00
   1.7144193E-04   4.3745129E+05   -1.8277540E+00
   1.7223367E-04   4.3378336E+05   -1.8272333E+00
   1.7302906E-04   4.3014722E+05   -1.8267120E+00
   1.7382813E-04   4.2654258E+05   -1.8261899E+00
   1.7463089E-04   4.2296916E+05   -1.8256670E+00
   1.7543735E-04   4.1942670E+05   -1.8251434E+00
   1.7624754E-04   4.1591490E+05   -1.8246191E+00
   1.7706147E-04   4.1243351E+05   -1.8240941E+00
   1.7787916E-04   4.0898225E+05   -1.8235684E+00
   1.7870062E-04   4.0556085E+05   -1.8230419E+00
   1.7952588E-04   4.0216905E+05   -1.8225148E+00
   1.8035495E-04   3.9880658E+05   -1.8219869E+00
   1.8118785E-04   3.9547319E+05   -1.8214583E+00
   1.8202459E-04   3.9216862E+05   -1.8209291E+00
   1.8286520E-04   3.8889261E+05   -1.8203991E+00
   1.8370969E-04   3.8564490E+05   -1.8198685E+00
   1.8455808E-04   3.8242526E+05   -1.8193371E+00
   1.8541039E-04   3.7923343E+05   -1.8188051E+00
   1.8626663E-04   3.7606915E+05   -1.8182724E+00
   1.8712683E-04   3.7293220E+05   -1.8177391E+00
   1.8799100E-04   3.6982232E+05   -1.8172051E+00
   1.8885917E-04   3.6673928E+05   -1.8166704E+00
   1.8973134E-04   3.6368284E+05   -1.8161350E+00
   1.9060754E-04   3.6065275E+05   -1.8155990E+00
   1.9148778E-04   3.5764880E+05   -1.8150624E+00
   1.9237209E-04   3.5467075E+05   -1.8145251E+00
   1.9326049E-04   3.5171836E+05   -1.8139872E+00
   1.9415299E-04   3.4879142E+05   -1.8134486E+00
   1.9504960E-04   3.4588969E+05   -1.8129094E+00
   1.9595036E-04   3.4301296E+05   -1.8123696E+00
   1.9685528E-04   3.4016100E+05   -1.8118291E+00
   1.9776438E-04   3.3733359E+05   -1.8112881E+00
   1.9867768E-04   3.3453052E+05   -1.8107464E+00
   1.9959519E-04   3.3175157E+05   -1.8102041E+00
   2.0051694E-04   3.2899652E+05   -1.8096613E+00
   2.0144295E-04   3.2626517E+05   -1.8091178E+00
   2.0237324E-04   3.2355731E+05   -1.8085737E+00
   2.0330782E-04   3.2087272E+05   -1.8080291E+00
   2.0424671E-04   3.1821121E+05   -1.8074838E+00
   2.0518995E-04   3.1557257E+05   -1.8069380E+00
   2.0613754E-04   3.1295660E+05   -1.8063916E+00
   2.0708950E-04   3.1036309E+05   -1.8058446E+00
   2.0804586E-04   3.0779185E+05   -1.8052971E+00
   2.0900664E-04   3.0524269E+05   -1.8047490E+00
   2.0997185E-04   3.0271540E+05   -1.8042004E+00
   2.1094152E-04   3.0020979E+05   -1.8036512E+00
   2.1191567E-04   2.9772568E+05   -1.8031015E+00
   2.1289432E-04   2.9526288E+05   -1.8025512E+00
   2.1387749E-04   2.9282118E+05   -1.8020004E+00
   2.1486520E-04   2.9040042E+05   -1.8014491E+00
   2.1585747E-04   2.8800040E+05   -1.8008972E+00
   2.1685432E-04   2.8562094E+05   -1.8003449E+00
   2.1785578E-04   2.8326186E+05   -1.7997920E+00
   2.1886186E-04   2.8092298E+05   -1.7992386E+00
   2.1987259E-04   2.7860413E+05   -1.7986847E+00
   2.2088798E-04   2.7630512E+05   -1.7981303E+00
   2.2190807E-04   2.7402579E+05   -1.7975754E+00
   2.2293286E-04   2.7176595E+05   -1.7970200E+00
   2.2396239E-04   2.6952544E+05   -1.7964642E+00
   2.2499667E-04   2.6730408E+05   -1.7959079E+00
   2.2603573E-04   2.6510171E+05   -1.7953511E+00
   2.2707958E-04   2.6291817E+05   -1.7947938E+00
   2.2812826E-04   2.6075327E+05   -1.7942361E+00
   2.2918178E-04   2.5860687E+05   -1.7936779E+00
   2.3024017E-04   2.5647880E+05   -1.7931192E+00
   2.3130344E-04   2.5436889E+05   -1.7925602E+00
   2.3237162E-04   2.5227699E+05   -1.7920006E+00
   2.3344474E-04   2.5020294E+05   -1.7914407E+00
   2.3452281E-04   2.4814658E+05   -1.7908803E+00
   2.3560586E-04   2.4610776E+05   -1.7903195E+00
   2.3669392E-04   2.4408632E+05   -1.7897583E+00
   2.3778699E-04   2.4208211E+05   -1.7891967E+00
   2.3888512E-04   2.4009497E+05   -1.7886346E+00
   2.3998831E-04   2.3812477E+05   -1.7880722E+00
   2.4109661E-04   2.3617134E+05   -1.7875094E+00
   2.4221001E-04   2.3423455E+05   -1.7869461E+00
   2.4332857E-04   2.3231425E+05   -1.7863825E+00
   2.4445228E-04   2.3041028E+05   -1.7858185E+00
   2.4558119E-04   2.2852251E+05   -1.7852542E+00
   2.4671531E-04   2.2665080E+05   -1.7846895E+00
   2.4785467E-04   2.2479501E+05   -1.7841244E+00
   2.4899928E-04   2.2295499E+05   -1.7835589E+00
   2.5014919E-04   2.2113061E+05   -1.7829931E+00
   2.5130440E-04   2.1932173E+05   -1.7824270E+00
   2.5246495E-04   2.1752821E+05   -1.7818605E+00
   2.5363086E-04   2.1574992E+05   -1.7812937E+00
   2.5480216E-04   2.1398673E+05   -1.7807266E+00
   2.5597886E-04   2.1223851E+05   -1.7801591E+00
   2.5716100E-04   2.1050511E+05   -1.7795913E+00
   2.5834859E-04   2.0878642E+05   -1.7790232E+00
   2.5954168E-04   2.0708231E+05   -1.7784549E+00
   2.6074027E-04   2.0539264E+05   -1.7778862E+00
   2.6194439E-04   2.0371729E+05   -1.7773172E+00
   2.6315408E-04   2.0205614E+05   -1.7767479E+00
   2.6436935E-04   2.0040906E+05   -1.7761784E+00
   2.6559024E-04   1.9877593E+05   -1.7756085E+00
   2.6681676E-04   1.9715662E+05   -1.7750384E+00
   2.6804895E-04   1.9555102E+05   -1.7744681E+00
   2.6928683E-04   1.9395900E+05   -1.7738975E+00
   2.7053042E-04   1.9238045E+05   -1.7733266E+00
   2.7177976E-04   1.9081525E+05   -1.7727555E+00
   2.7303487E-04   1.8926328E+05   -1.7721841E+00
   2.7429577E-04   1.8772443E+05   -1.7716125E+00
   2.7556250E-04   1.8619858E+05   -1.7710407E+00
   2.7683507E-04   1.8468563E+05   -1.7704687E+00
   2.7811353E-04   1.8318544E+05   -1.7698964E+00
   2.7939788E-04   1.8169792E+05   -1.7693240E+00
   2.8068817E-04   1.8022296E+05   -1.7687513E+00
   2.8198442E-04   1.7876044E+05   -1.7681784E+00
   2.8328665E-04   1.7731026E+05   -1.7676054E+00
   2.8459490E-04   1.7587231E+05   -1.7670321E+00
   2.8590919E-04   1.7444648E+05   -1.7664587E+00
   2.8722955E-04   1.7303267E+05   -1.7658851E+00
   2.8855600E-04   1.7163076E+05   -1.7653113E+00
   2.8988859E-04   1.7024067E+05   -1.7647374E+00
   2.9122732E-04   1.6886228E+05   -1.7641633E+00
   2.9257224E-04   1.6749550E+05   -1.7635891E+00
   2.9392337E-04   1.6614021E+05   -1.7630147E+00
   2.9528074E-04   1.6479633E+05   -1.7624401E+00
   2.9664438E-04   1.6346376E+05   -1.7618655E+00
   2.9801431E-04   1.6214239E+05   -1.7612907E+00
   2.9939057E-04   1.6083212E+05   -1.7607158E+00
   3.0077319E-04   1.5953287E+05   -1.7601408E+00
   3.0216219E-04   1.5824453E+05   -1.7595657E+00
   3.0355761E-04   1.5696701E+05   -1.7589904E+00
   3.0495947E-04   1.5570022E+05   -1.7584151E+00
   3.0636780E-04   1.5444406E+05   -1.7578397E+00
   3.0778264E-04   1.5319844E+05   -1.7572642E+00
   3.0920401E-04   1.5196327E+05   -1.7566886E+00
   3.1063195E-04   1.5073846E+05   -1.7561130E+00
   3.1206648E-04   1.4952392E+05   -1.7555373E+00
   3.1350764E-04   1.4831956E+05   -1.7549615E+00
   3.1495545E-04   1.4712528E+05   -1.7543857E+00
   3.1640994E-04   1.4594102E+05   -1.7538098E+00
   3.1787116E-04   1.4476666E+05   -1.7532339E+00
   3.1933912E-04   1.4360214E+05   -1.7526580E+00
   3.2081386E-04   1.4244737E+05   -1.7520820E+00
   3.2229541E-04   1.4130225E+05   -1.7515060E+00
   3.2378381E-04   1.4016672E+05   -1.7509300E+00
   3.2527908E-04   1.3904067E+05   -1.7503540E+00
   3.2678125E-04   1.3792404E+05   -1.7497779E+00
   3.2829036E-04   1.3681675E+05   -1.7492019E+00
   3.2980644E-04   1.3571870E+05   -1.7486259E+00
   3.3132952E-04   1.3462982E+05   -1.7480499E+00
   3.3285963E-04   1.3355003E+05   -1.7474739E+00
   3.3439681E-04   1.3247925E+05   -1.7468979E+00
   3.3594109E-04   1.3141741E+05   -1.7463220E+00
   3.3749250E-04   1.3036442E+05   -1.7457461E+00
   3.3905108E-04   1.2932021E+05   -1.7451703E+00
   3.4061685E-04   1.2828471E+05   -1.7445945E+00
   3.4218986E-04   1.2725784E+05   -1.7440187E+00
   3.4377013E-04   1.2623952E+05   -1.7434431E+00
   3.4535769E-04   1.2522968E+05   -1.7428675E+00
   3.4695259E-04   1.2422825E+05   -1.7422919E+00
   3.4855485E-04   1.2323516E+05   -1.7417165E+00
   3.5016452E-04   1.2225033E+05   -1.7411411E+00
   3.5178161E-04   1.2127369E+05   -1.7405658E+00
   3.5340618E-04   1.2030517E+05   -1.7399907E+00
   3.5503824E-04   1.1934470E+05   -1.7394156E+00
   3.5667785E-04   1.1839221E+05   -1.7388407E+00
   3.5832502E-04   1.1744764E+05   -1.7382658E+00
   3.5997981E-04   1.1651091E+05   -1.7376911E+00
   3.6164223E-04   1.1558196E+05   -1.7371165E+00
   3.6331233E-04   1.1466072E+05   -1.7365421E+00
   3.6499015E-04   1.1374712E+05   -1.7359678E+00
   3.6667571E-04   1.1284110E+05   -1.7353936E+00
   3.6836906E-04   1.1194259E+05   -1.7348196E+00
   3.7007022E-04   1.1105153E+05   -1.7342458E+00
   3.7177925E-04   1.1016786E+05   -1.7336721E+00
   3.7349616E-04   1.0929150E+05   -1.7330986E+00
   3.7522101E-04   1.0842241E+05   -1.7325253E+00
   3.7695382E-04   1.0756051E+05   -1.7319521E+00
   3.7869463E-04   1.0670574E+05   -1.7313792E+00
   3.8044348E-04   1.0585804E+05   -1.7308064E+00
   3.8220041E-04   1.0501736E+05   -1.7302338E+00
   3.8396545E-04   1.0418362E+05   -1.7296615E+00
   3.8573864E-04   1.0335678E+05   -1.7290894E+00
   3.8752002E-04   1.0253677E+05   -1.7285174E+00
   3.8930963E-04   1.0172354E+05   -1.7279457E+00
   3.9110750E-04   1.0091702E+05   -1.7273743E+00
   3.9291368E-04   1.0011715E+05   -1.7268031E+00
   3.9472820E-04   9.9323893E+04   -1.7262321E+00
   3.9655109E-04   9.8537176E+04   -1.7256614E+00
   3.9838241E-04   9.7756948E+04   -1.7250909E+00
   4.0022218E-04   9.6983152E+04   -1.7245207E+00
   4.0207045E-04   9.6215735E+04   -1.7239507E+00
   4.0392725E-04   9.5454640E+04   -1.7233811E+00
   4.0579263E-04   9.4699815E+04   -1.7228117E+00
   4.0766662E-04   9.3951205E+04   -1.7222425E+00
   4.0954927E-04   9.3208756E+04   -1.7216737E+00
   4.1144061E-04   9.2472418E+04   -1.7211052E+00
   4.1334068E-04   9.1742136E+04   -1.7205370E+00
   4.1524953E-04   9.1017860E+04   -1.7199691E+00
   4.1716720E-04   9.0299538E+04   -1.7194015E+00
   4.1909372E-04   8.9587120E+04   -1.7188342E+00
   4.2102914E-04   8.8880554E+04   -1.7182672E+00
   4.2297350E-04   8.8179791E+04   -1.7177006E+00
   4.2492683E-04   8.7484782E+04   -1.7171343E+00
   4.2688919E-04   8.6795477E+04   -1.7165684E+00
   4.2886061E-04   8.6111827E+04   -1.7160028E+00
   4.3084113E-04   8.5433785E+04   -1.7154375E+00
   4.3283080E-04   8.4761303E+04   -1.7148726E+00
   4.3482966E-04   8.4094333E+04   -1.7143081E+00
   4.3683775E-04   8.3432827E+04   -1.7137439E+00
   4.3885511E-04   8.2776741E+04   -1.7131802E+00
   4.4088179E-04   8.2126027E+04   -1.7126168E+00
   4.4291783E-04   8.1480639E+04   -1.7120538E+00
   4.4496327E-04   8.0840533E+04   -1.7114911E+00
   4.4701816E-04   8.0205664E+04   -1.7109289E+00
   4.4908253E-04   7.9575986E+04   -1.7103671E+00
   4.5115644E-04   7.8951456E+04   -1.7098057E+00
   4.5323993E-04   7.8332031E+04   -1.7092447E+00
   4.5533304E-04   7.7717666E+04   -1.7086841E+00
   4.5743582E-04   7.7108318E+04   -1.7081240E+00
   4.5954830E-04   7.6503946E+04   -1.7075643E+00
   4.6167054E-04   7.5904506E+04   -1.7070050E+00
   4.6380259E-04   7.5309957E+04   -1.7064462E+00
   4.6594448E-04   7.4720257E+04   -1.7058878E+00
   4.6809626E-04   7.4135366E+04   -1.7053298E+00
   4.7025797E-04   7.3555242E+04   -1.7047724E+00
   4.7242967E-04   7.2979844E+04   -1.7042153E+00
   4.7461140E-04   7.2409134E+04   -1.7036588E+00
   4.7680321E-04   7.1843071E+04   -1.7031027E+00
   4.7900514E-04   7.1281615E+04   -1.7025471E+00
   4.8121723E-04   7.0724729E+04   -1.7019920E+00
   4.8343954E-04   7.0172373E+04   -1.7014374E+00
   4.8567212E-04   6.9624508E+04   -1.7008833E+00
   4.8791500E-04   6.9081097E+04   -1.7003297E+00
   4.9016825E-04   6.8542102E+04   -1.6997766E+00
   4.9243189E-04   6.8007485E+04   -1.6992240E+00
   4.9470600E-04   6.7477211E+04   -1.6986719E+00
   4.9699060E-04   6.6951241E+04   -1.6981203E+00
   4.9928575E-04   6.6429540E+04   -1.6975693E+00
   5.0159151E-04   6.5912071E+04   -1.6970187E+00
   5.0390791E-04   6.5398799E+04   -1.6964688E+00
   5.0623501E-04   6.4889688E+04   -1.6959193E+00
   5.0857286E-04   6.4384703E+04   -1.6953704E+00
   5.1092150E-04   6.3883810E+04   -1.6948221E+00
   5.1328099E-04   6.3386974E+04   -1.6942743E+00
   5.1565137E-04   6.2894160E+04   -1.6937271E+00
   5.1803270E-04   6.2405335E+04   -1.6931804E+00
   5.2042503E-04   6.1920466E+04   -1.6926344E+00
   5.2282841E-04   6.1439518E+04   -1.6920889E+00
   5.2524289E-04   6.0962458E+04   -1.6915439E+00
   5.2766851E-04   6.0489255E+04   -1.6909996E+00
   5.3010534E-04   6.0019875E+04   -1.6904558E+00
   5.3255342E-04   5.9554287E+04   -1.6899127E+00
   5.3501281E-04   5.9092458E+04   -1.6893701E+00
   5.3748356E-04   5.8634357E+04   -1.6888282E+00
   5.3996571E-04   5.8179953E+04   -1.6882868E+00
   5.4245933E-04   5.7729214E+04   -1.6877461E+00
   5.4496446E-04   5.7282109E+04   -1.6872060E+00
   5.4748117E-04   5.6838609E+04   -1.6866665E+00
   5.5000949E-04   5.6398683E+04   -1.6861277E+00
   5.5254949E-04   5.5962300E+04   -1.6855894E+00
   5.5510123E-04   5.5529432E+04   -1.6850519E+00
   5.5766474E-04   5.5100048E+04   -1.6845149E+00
   5.6024010E-04   5.4674120E+04   -1.6839786E+00
   5.6282734E-04   5.4251618E+04   -1.6834430E+00
   5.6542654E-04   5.3832514E+04   -1.6829080E+00
   5.6803774E-04   5.3416779E+04   -1.6823736E+00
   5.7066099E-04   5.3004385E+04   -1.6818400E+00
   5.7329637E-04   5.2595304E+04   -1.6813070E+00
   5.7594391E-04   5.2189508E+04   -1.6807746E+00
   5.7860368E-04   5.1786970E+04   -1.6802430E+00
   5.8127573E-04   5.1387663E+04   -1.6797120E+00
   5.8396012E-04   5.0991560E+04   -1.6791818E+00
   5.8665691E-04   5.0598633E+04   -1.6786522E+00
   5.8936616E-04   5.0208856E+04   -1.6781233E+00
   5.9208791E-04   4.9822204E+04   -1.6775951E+00
   5.9482223E-04   4.9438649E+04   -1.6770676E+00
   5.9756919E-04   4.9058166E+04   -1.6765408E+00
   6.0032882E-04   4.8680729E+04   -1.6760147E+00
   6.0310120E-04   4.8306313E+04   -1.6754894E+00
   6.0588639E-04   4.7934893E+04   -1.6749647E+00
   6.0868443E-04   4.7566443E+04   -1.6744408E+00
   6.1149540E-04   4.7200940E+04   -1.6739176E+00
   6.1431935E-04   4.6838358E+04   -1.6733951E+00
   6.1715634E-04   4.6478673E+04   -1.6728734E+00
   6.2000644E-04   4.6121861E+04   -1.6723524E+00
   6.2286969E-04   4.5767898E+04   -1.6718322E+00
