#        a       HoverH0(a)       dlogHdloga_of_a(a)
   1.0000000E-04   1.1216492E+06   -1.8785572E+00
   1.0046181E-04   1.1119838E+06   -1.8781331E+00
   1.0092575E-04   1.1024039E+06   -1.8777079E+00
   1.0139184E-04   1.0929087E+06   -1.8772817E+00
   1.0186008E-04   1.0834974E+06   -1.8768546E+00
   1.0233048E-04   1.0741692E+06   -1.8764264E+00
   1.0280305E-04   1.0649235E+06   -1.8759973E+00
   1.0327781E-04   1.0557594E+06   -1.8755671E+00
   1.0375475E-04   1.0466763E+06   -1.8751360E+00
   1.0423390E-04   1.0376734E+06   -1.8747038E+00
   1.0471527E-04   1.0287499E+06   -1.8742707E+00
   1.0519885E-04   1.0199053E+06   -1.8738365E+00
   1.0568467E-04   1.0111387E+06   -1.8734014E+00
   1.0617274E-04   1.0024495E+06   -1.8729653E+00
   1.0666305E-04   9.9383690E+05   -1.8725282E+00
   1.0715563E-04   9.8530033E+05   -1.8720901E+00
   1.0765049E-04   9.7683905E+05   -1.8716510E+00
   1.0814763E-04   9.6845240E+05   -1.8712109E+00
   1.0864707E-04   9.6013970E+05   -1.8707699E+00
   1.0914881E-04   9.5190029E+05   -1.8703278E+00
   1.0965287E-04   9.4373351E+05   -1.8698848E+00
   1.1015926E-04   9.3563871E+05   -1.8694408E+00
   1.1066799E-04   9.2761523E+05   -1.8689958E+00
   1.1117906E-04   9.1966245E+05   -1.8685499E+00
   1.1169250E-04   9.1177973E+05   -1.8681029E+00
   1.1220831E-04   9.0396644E+05   -1.8676550E+00
   1.1272650E-04   8.9622195E+05   -1.8672062E+00
   1.1324708E-04   8.8854565E+05   -1.8667563E+00
   1.1377007E-04   8.8093693E+05   -1.8663055E+00
   1.1429547E-04   8.7339518E+05   -1.8658537E+00
   1.1482330E-04   8.6591980E+05   -1.8654010E+00
   1.1535356E-04   8.5851019E+05   -1.8649472E+00
   1.1588628E-04   8.5116577E+05   -1.8644926E+00
   1.1642145E-04   8.4388595E+05   -1.8640369E+00
   1.1695910E-04   8.3667015E+05   -1.8635803E+00
   1.1749923E-04   8.2951779E+05   -1.8631228E+00
   1.1804185E-04   8.2242832E+05   -1.8626643E+00
   1.1858698E-04   8.1540116E+05   -1.8622048E+00
   1.1913463E-04   8.0843575E+05   -1.8617444E+00
   1.1968481E-04   8.0153154E+05   -1.8612830E+00
   1.2023752E-04   7.9468800E+05   -1.8608207E+00
   1.2079279E-04   7.8790456E+05   -1.8603575E+00
   1.2135063E-04   7.8118070E+05   -1.8598933E+00
   1.2191104E-04   7.7451587E+05   -1.8594281E+00
   1.2247403E-04   7.6790955E+05   -1.8589621E+00
   1.2303963E-04   7.6136122E+05   -1.8584950E+00
   1.2360784E-04   7.5487036E+05   -1.8580271E+00
   1.2417868E-04   7.4843645E+05   -1.8575582E+00
   1.2475215E-04   7.4205898E+05   -1.8570884E+00
   1.2532826E-04   7.3573744E+05   -1.8566177E+00
   1.2590704E-04   7.2947135E+05   -1.8561460E+00
   1.2648850E-04   7.2326019E+05   -1.8556734E+00
   1.2707263E-04   7.1710348E+05   -1.8551999E+00
   1.2765947E-04   7.1100073E+05   -1.8547254E+00
   1.2824901E-04   7.0495147E+05   -1.8542501E+00
   1.2884128E-04   6.9895520E+05   -1.8537738E+00
   1.2943628E-04   6.9301146E+05   -1.8532967E+00
   1.3003403E-04   6.8711977E+05   -1.8528186E+00
   1.3063454E-04   6.8127968E+05   -1.8523396E+00
   1.3123783E-04   6.7549071E+05   -1.8518597E+00
   1.3184390E-04   6.6975242E+05   -1.8513789E+00
   1.3245277E-04   6.6406435E+05   -1.8508972E+00
   1.3306445E-04   6.5842604E+05   -1.8504146E+00
   1.3367895E-04   6.5283706E+05   -1.8499311E+00
   1.3429630E-04   6.4729697E+05   -1.8494467E+00
   1.3491649E-04   6.4180532E+05   -1.8489615E+00
   1.3553955E-04   6.3636169E+05   -1.8484753E+00
   1.3616548E-04   6.3096565E+05   -1.8479883E+00
   1.3679431E-04   6.2561677E+05   -1.8475004E+00
   1.3742604E-04   6.2031462E+05   -1.8470116E+00
   1.3806069E-04   6.1505880E+05   -1.8465219E+00
   1.3869827E-04   6.0984889E+05   -1.8460313E+00
   1.3933879E-04   6.0468448E+05   -1.8455399E+00
   1.3998227E-04   5.9956516E+05   -1.8450477E+00
   1.4062872E-04   5.9449053E+05   -1.8445545E+00
   1.4127816E-04   5.8946019E+05   -1.8440605E+00
   1.4193060E-04   5.8447374E+05   -1.8435656E+00
   1.4258605E-04   5.7953080E+05   -1.8430699E+00
   1.4324453E-04   5.7463098E+05   -1.8425734E+00
   1.4390605E-04   5.6977389E+05   -1.8420760E+00
   1.4457062E-04   5.6495915E+05   -1.8415777E+00
   1.4523826E-04   5.6018639E+05   -1.8410786E+00
   1.4590899E-04   5.5545522E+05   -1.8405787E+00
   1.4658281E-04   5.5076528E+05   -1.8400779E+00
   1.4725974E-04   5.4611620E+05   -1.8395763E+00
   1.4793981E-04   5.4150762E+05   -1.8390738E+00
   1.4862301E-04   5.3693917E+05   -1.8385706E+00
   1.4930936E-04   5.3241050E+05   -1.8380665E+00
   1.4999889E-04   5.2792125E+05   -1.8375616E+00
   1.5069160E-04   5.2347107E+05   -1.8370559E+00
   1.5138751E-04   5.1905962E+05   -1.8365494E+00
   1.5208663E-04   5.1468654E+05   -1.8360420E+00
   1.5278899E-04   5.1035150E+05   -1.8355339E+00
   1.5349458E-04   5.0605417E+05   -1.8350249E+00
   1.5420343E-04   5.0179419E+05   -1.8345152E+00
   1.5491556E-04   4.9757125E+05   -1.8340046E+00
   1.5563098E-04   4.9338500E+05   -1.8334933E+00
   1.5634970E-04   4.8923513E+05   -1.8329812E+00
   1.5707174E-04   4.8512131E+05   -1.8324683E+00
   1.5779711E-04   4.8104322E+05   -1.8319546E+00
   1.5852584E-04   4.7700054E+05   -1.8314402E+00
   1.5925792E-04   4.7299295E+05   -1.8309249E+00
   1.5999339E-04   4.6902015E+05   -1.8304089E+00
   1.6073226E-04   4.6508183E+05   -1.8298922E+00
   1.6147454E-04   4.6117767E+05   -1.8293746E+00
   1.6222024E-04   4.5730738E+05   -1.8288563E+00
   1.6296939E-04   4.5347066E+05   -1.8283373E+00
   1.6372200E-04   4.4966720E+05   -1.8278175E+00
   1.6447809E-04   4.4589671E+05   -1.8272970E+00
   1.6523767E-04   4.4215889E+05   -1.8267757E+00
   1.6600075E-04   4.3845347E+05   -1.8262537E+00
   1.6676736E-04   4.3478014E+05   -1.8257309E+00
   1.6753751E-04   4.3113862E+05   -1.8252074E+00
   1.6831122E-04   4.2752864E+05   -1.8246832E+00
   1.6908849E-04   4.2394991E+05   -1.8241583E+00
   1.6986936E-04   4.2040215E+05   -1.8236327E+00
   1.7065384E-04   4.1688509E+05   -1.8231063E+00
   1.7144193E-04   4.1339846E+05   -1.8225792E+00
   1.7223367E-04   4.0994199E+05   -1.8220514E+00
   1.7302906E-04   4.0651540E+05   -1.8215230E+00
   1.7382813E-04   4.0311844E+05   -1.8209938E+00
   1.7463089E-04   3.9975084E+05   -1.8204639E+00
   1.7543735E-04   3.9641234E+05   -1.8199334E+00
   1.7624754E-04   3.9310269E+05   -1.8194021E+00
   1.7706147E-04   3.8982162E+05   -1.8188702E+00
   1.7787916E-04   3.8656889E+05   -1.8183376E+00
   1.7870062E-04   3.8334423E+05   -1.8178043E+00
   1.7952588E-04   3.8014741E+05   -1.8172704E+00
   1.8035495E-04   3.7697818E+05   -1.8167358E+00
   1.8118785E-04   3.7383629E+05   -1.8162005E+00
   1.8202459E-04   3.7072150E+05   -1.8156646E+00
   1.8286520E-04   3.6763358E+05   -1.8151280E+00
   1.8370969E-04   3.6457227E+05   -1.8145908E+00
   1.8455808E-04   3.6153736E+05   -1.8140530E+00
   1.8541039E-04   3.5852859E+05   -1.8135145E+00
   1.8626663E-04   3.5554575E+05   -1.8129754E+00
   1.8712683E-04   3.5258860E+05   -1.8124356E+00
   1.8799100E-04   3.4965692E+05   -1.8118953E+00
   1.8885917E-04   3.4675047E+05   -1.8113543E+00
   1.8973134E-04   3.4386904E+05   -1.8108127E+00
   1.9060754E-04   3.4101241E+05   -1.8102705E+00
   1.9148778E-04   3.3818036E+05   -1.8097277E+00
   1.9237209E-04   3.3537266E+05   -1.8091843E+00
   1.9326049E-04   3.3258911E+05   -1.8086403E+00
   1.9415299E-04   3.2982948E+05   -1.8080957E+00
   1.9504960E-04   3.2709358E+05   -1.8075506E+00
   1.9595036E-04   3.2438118E+05   -1.8070048E+00
   1.9685528E-04   3.2169209E+05   -1.8064585E+00
   1.9776438E-04   3.1902610E+05   -1.8059116E+00
   1.9867768E-04   3.1638299E+05   -1.8053642E+00
   1.9959519E-04   3.1376257E+05   -1.8048162E+00
   2.0051694E-04   3.1116465E+05   -1.8042676E+00
   2.0144295E-04   3.0858901E+05   -1.8037185E+00
   2.0237324E-04   3.0603547E+05   -1.8031688E+00
   2.0330782E-04   3.0350383E+05   -1.8026186E+00
   2.0424671E-04   3.0099389E+05   -1.8020679E+00
   2.0518995E-04   2.9850547E+05   -1.8015166E+00
   2.0613754E-04   2.9603838E+05   -1.8009648E+00
   2.0708950E-04   2.9359242E+05   -1.8004125E+00
   2.0804586E-04   2.9116741E+05   -1.7998597E+00
   2.0900664E-04   2.8876317E+05   -1.7993064E+00
   2.0997185E-04   2.8637951E+05   -1.7987526E+00
   2.1094152E-04   2.8401625E+05   -1.7981982E+00
   2.1191567E-04   2.8167321E+05   -1.7976434E+00
   2.1289432E-04   2.7935022E+05   -1.7970881E+00
   2.1387749E-04   2.7704709E+05   -1.7965323E+00
   2.1486520E-04   2.7476366E+05   -1.7959761E+00
   2.1585747E-04   2.7249975E+05   -1.7954193E+00
   2.1685432E-04   2.7025518E+05   -1.7948621E+00
   2.1785578E-04   2.6802979E+05   -1.7943044E+00
   2.1886186E-04   2.6582340E+05   -1.7937463E+00
   2.1987259E-04   2.6363586E+05   -1.7931877E+00
   2.2088798E-04   2.6146700E+05   -1.7926287E+00
   2.2190807E-04   2.5931664E+05   -1.7920693E+00
   2.2293286E-04   2.5718463E+05   -1.7915094E+00
   2.2396239E-04   2.5507081E+05   -1.7909490E+00
   2.2499667E-04   2.5297502E+05   -1.7903883E+00
   2.2603573E-04   2.5089709E+05   -1.7898271E+00
   2.2707958E-04   2.4883688E+05   -1.7892656E+00
   2.2812826E-04   2.4679422E+05   -1.7887036E+00
   2.2918178E-04   2.4476897E+05   -1.7881412E+00
   2.3024017E-04   2.4276096E+05   -1.7875784E+00
   2.3130344E-04   2.4077005E+05   -1.7870152E+00
   2.3237162E-04   2.3879609E+05   -1.7864517E+00
   2.3344474E-04   2.3683892E+05   -1.7858878E+00
   2.3452281E-04   2.3489841E+05   -1.7853234E+00
   2.3560586E-04   2.3297441E+05   -1.7847588E+00
   2.3669392E-04   2.3106676E+05   -1.7841937E+00
   2.3778699E-04   2.2917533E+05   -1.7836283E+00
   2.3888512E-04   2.2729998E+05   -1.7830626E+00
   2.3998831E-04   2.2544056E+05   -1.7824965E+00
   2.4109661E-04   2.2359693E+05   -1.7819301E+00
   2.4221001E-04   2.2176896E+05   -1.7813633E+00
   2.4332857E-04   2.1995651E+05   -1.7807962E+00
   2.4445228E-04   2.1815944E+05   -1.7802288E+00
   2.4558119E-04   2.1637762E+05   -1.7796611E+00
   2.4671531E-04   2.1461092E+05   -1.7790930E+00
   2.4785467E-04   2.1285920E+05   -1.7785247E+00
   2.4899928E-04   2.1112232E+05   -1.7779560E+00
   2.5014919E-04   2.0940017E+05   -1.7773871E+00
   2.5130440E-04   2.0769261E+05   -1.7768179E+00
   2.5246495E-04   2.0599952E+05   -1.7762484E+00
   2.5363086E-04   2.0432077E+05   -1.7756786E+00
   2.5480216E-04   2.0265622E+05   -1.7751085E+00
   2.5597886E-04   2.0100577E+05   -1.7745382E+00
   2.5716100E-04   1.9936928E+05   -1.7739676E+00
   2.5834859E-04   1.9774663E+05   -1.7733968E+00
   2.5954168E-04   1.9613771E+05   -1.7728257E+00
   2.6074027E-04   1.9454239E+05   -1.7722544E+00
   2.6194439E-04   1.9296055E+05   -1.7716828E+00
   2.6315408E-04   1.9139208E+05   -1.7711111E+00
   2.6436935E-04   1.8983686E+05   -1.7705390E+00
   2.6559024E-04   1.8829478E+05   -1.7699668E+00
   2.6681676E-04   1.8676571E+05   -1.7693944E+00
   2.6804895E-04   1.8524955E+05   -1.7688218E+00
   2.6928683E-04   1.8374618E+05   -1.7682489E+00
   2.7053042E-04   1.8225549E+05   -1.7676759E+00
   2.7177976E-04   1.8077738E+05   -1.7671027E+00
   2.7303487E-04   1.7931172E+05   -1.7665293E+00
   2.7429577E-04   1.7785842E+05   -1.7659557E+00
   2.7556250E-04   1.7641736E+05   -1.7653820E+00
   2.7683507E-04   1.7498844E+05   -1.7648080E+00
   2.7811353E-04   1.7357156E+05   -1.7642340E+00
   2.7939788E-04   1.7216660E+05   -1.7636598E+00
   2.8068817E-04   1.7077346E+05   -1.7630854E+00
   2.8198442E-04   1.6939205E+05   -1.7625109E+00
   2.8328665E-04   1.6802226E+05   -1.7619363E+00
   2.8459490E-04   1.6666398E+05   -1.7613615E+00
   2.8590919E-04   1.6531713E+05   -1.7607866E+00
   2.8722955E-04   1.6398159E+05   -1.7602116E+00
   2.8855600E-04   1.6265727E+05   -1.7596365E+00
   2.8988859E-04   1.6134408E+05   -1.7590613E+00
   2.9122732E-04   1.6004191E+05   -1.7584860E+00
   2.9257224E-04   1.5875067E+05   -1.7579106E+00
   2.9392337E-04   1.5747026E+05   -1.7573352E+00
   2.9528074E-04   1.5620060E+05   -1.7567596E+00
   2.9664438E-04   1.5494159E+05   -1.7561840E+00
   2.9801431E-04   1.5369313E+05   -1.7556083E+00
   2.9939057E-04   1.5245513E+05   -1.7550325E+00
   3.0077319E-04   1.5122751E+05   -1.7544567E+00
   3.0216219E-04   1.5001018E+05   -1.7538809E+00
   3.0355761E-04   1.4880303E+05   -1.7533050E+00
   3.0495947E-04   1.4760599E+05   -1.7527290E+00
   3.0636780E-04   1.4641897E+05   -1.7521531E+00
   3.0778264E-04   1.4524188E+05   -1.7515771E+00
   3.0920401E-04   1.4407464E+05   -1.7510011E+00
   3.1063195E-04   1.4291716E+05   -1.7504250E+00
   3.1206648E-04   1.4176935E+05   -1.7498490E+00
   3.1350764E-04   1.4063113E+05   -1.7492730E+00
   3.1495545E-04   1.3950242E+05   -1.7486970E+00
   3.1640994E-04   1.3838314E+05   -1.7481210E+00
   3.1787116E-04   1.3727320E+05   -1.7475450E+00
   3.1933912E-04   1.3617253E+05   -1.7469691E+00
   3.2081386E-04   1.3508104E+05   -1.7463931E+00
   3.2229541E-04   1.3399865E+05   -1.7458173E+00
   3.2378381E-04   1.3292529E+05   -1.7452414E+00
   3.2527908E-04   1.3186088E+05   -1.7446656E+00
   3.2678125E-04   1.3080534E+05   -1.7440899E+00
   3.2829036E-04   1.2975859E+05   -1.7435142E+00
   3.2980644E-04   1.2872056E+05   -1.7429386E+00
   3.3132952E-04   1.2769118E+05   -1.7423631E+00
   3.3285963E-04   1.2667036E+05   -1.7417876E+00
   3.3439681E-04   1.2565803E+05   -1.7412123E+00
   3.3594109E-04   1.2465413E+05   -1.7406370E+00
   3.3749250E-04   1.2365857E+05   -1.7400618E+00
   3.3905108E-04   1.2267129E+05   -1.7394867E+00
   3.4061685E-04   1.2169221E+05   -1.7389118E+00
   3.4218986E-04   1.2072127E+05   -1.7383369E+00
   3.4377013E-04   1.1975840E+05   -1.7377622E+00
   3.4535769E-04   1.1880351E+05   -1.7371876E+00
   3.4695259E-04   1.1785655E+05   -1.7366132E+00
   3.4855485E-04   1.1691745E+05   -1.7360389E+00
   3.5016452E-04   1.1598614E+05   -1.7354647E+00
   3.5178161E-04   1.1506256E+05   -1.7348907E+00
   3.5340618E-04   1.1414663E+05   -1.7343168E+00
   3.5503824E-04   1.1323828E+05   -1.7337431E+00
   3.5667785E-04   1.1233747E+05   -1.7331696E+00
   3.5832502E-04   1.1144411E+05   -1.7325963E+00
   3.5997981E-04   1.1055816E+05   -1.7320231E+00
   3.6164223E-04   1.0967953E+05   -1.7314502E+00
   3.6331233E-04   1.0880817E+05   -1.7308774E+00
   3.6499015E-04   1.0794402E+05   -1.7303048E+00
   3.6667571E-04   1.0708702E+05   -1.7297325E+00
   3.6836906E-04   1.0623710E+05   -1.7291603E+00
   3.7007022E-04   1.0539421E+05   -1.7285884E+00
   3.7177925E-04   1.0455827E+05   -1.7280167E+00
   3.7349616E-04   1.0372924E+05   -1.7274452E+00
   3.7522101E-04   1.0290706E+05   -1.7268739E+00
   3.7695382E-04   1.0209166E+05   -1.7263029E+00
   3.7869463E-04   1.0128299E+05   -1.7257322E+00
   3.8044348E-04   1.0048098E+05   -1.7251617E+00
   3.8220041E-04   9.9685593E+04   -1.7245915E+00
   3.8396545E-04   9.8896759E+04   -1.7240215E+00
   3.8573864E-04   9.8114425E+04   -1.7234518E+00
   3.8752002E-04   9.7338535E+04   -1.7228824E+00
   3.8930963E-04   9.6569034E+04   -1.7223132E+00
   3.9110750E-04   9.5805867E+04   -1.7217444E+00
   3.9291368E-04   9.5048980E+04   -1.7211758E+00
   3.9472820E-04   9.4298320E+04   -1.7206076E+00
   3.9655109E-04   9.3553834E+04   -1.7200397E+00
   3.9838241E-04   9.2815467E+04   -1.7194720E+00
   4.0022218E-04   9.2083169E+04   -1.7189047E+00
   4.0207045E-04   9.1356888E+04   -1.7183377E+00
   4.0392725E-04   9.0636572E+04   -1.7177711E+00
   4.0579263E-04   8.9922170E+04   -1.7172048E+00
   4.0766662E-04   8.9213631E+04   -1.7166388E+00
   4.0954927E-04   8.8510906E+04   -1.7160731E+00
   4.1144061E-04   8.7813945E+04   -1.7155079E+00
   4.1334068E-04   8.7122699E+04   -1.7149429E+00
   4.1524953E-04   8.6437120E+04   -1.7143784E+00
   4.1716720E-04   8.5757158E+04   -1.7138142E+00
   4.1909372E-04   8.5082766E+04   -1.7132504E+00
   4.2102914E-04   8.4413896E+04   -1.7126870E+00
   4.2297350E-04   8.3750503E+04   -1.7121239E+00
   4.2492683E-04   8.3092538E+04   -1.7115613E+00
   4.2688919E-04   8.2439956E+04   -1.7109990E+00
   4.2886061E-04   8.1792712E+04   -1.7104371E+00
   4.3084113E-04   8.1150758E+04   -1.7098757E+00
   4.3283080E-04   8.0514052E+04   -1.7093147E+00
   4.3482966E-04   7.9882547E+04   -1.7087541E+00
   4.3683775E-04   7.9256200E+04   -1.7081939E+00
   4.3885511E-04   7.8634967E+04   -1.7076341E+00
   4.4088179E-04   7.8018805E+04   -1.7070748E+00
   4.4291783E-04   7.7407670E+04   -1.7065159E+00
   4.4496327E-04   7.6801520E+04   -1.7059575E+00
   4.4701816E-04   7.6200312E+04   -1.7053995E+00
   4.4908253E-04   7.5604005E+04   -1.7048420E+00
   4.5115644E-04   7.5012557E+04   -1.7042849E+00
   4.5323993E-04   7.4425927E+04   -1.7037283E+00
   4.5533304E-04   7.3844074E+04   -1.7031722E+00
   4.5743582E-04   7.3266957E+04   -1.7026166E+00
   4.5954830E-04   7.2694537E+04   -1.7020614E+00
   4.6167054E-04   7.2126773E+04   -1.7015068E+00
   4.6380259E-04   7.1563627E+04   -1.7009526E+00
   4.6594448E-04   7.1005059E+04   -1.7003989E+00
   4.6809626E-04   7.0451030E+04   -1.6998458E+00
   4.7025797E-04   6.9901502E+04   -1.6992931E+00
   4.7242967E-04   6.9356437E+04   -1.6987410E+00
   4.7461140E-04   6.8815797E+04   -1.6981894E+00
   4.7680321E-04   6.8279544E+04   -1.6976383E+00
   4.7900514E-04   6.7747643E+04   -1.6970877E+00
   4.8121723E-04   6.7220056E+04   -1.6965377E+00
   4.8343954E-04   6.6696746E+04   -1.6959882E+00
   4.8567212E-04   6.6177678E+04   -1.6954392E+00
   4.8791500E-04   6.5662815E+04   -1.6948909E+00
   4.9016825E-04   6.5152122E+04   -1.6943430E+00
   4.9243189E-04   6.4645565E+04   -1.6937957E+00
   4.9470600E-04   6.4143107E+04   -1.6932490E+00
   4.9699060E-04   6.3644715E+04   -1.6927029E+00
   4.9928575E-04   6.3150355E+04   -1.6921573E+00
   5.0159151E-04   6.2659992E+04   -1.6916123E+00
   5.0390791E-04   6.2173592E+04   -1.6910680E+00
   5.0623501E-04   6.1691123E+04   -1.6905241E+00
   5.0857286E-04   6.1212551E+04   -1.6899809E+00
   5.1092150E-04   6.0737844E+04   -1.6894383E+00
   5.1328099E-04   6.0266968E+04   -1.6888963E+00
   5.1565137E-04   5.9799893E+04   -1.6883549E+00
   5.1803270E-04   5.9336585E+04   -1.6878141E+00
   5.2042503E-04   5.8877014E+04   -1.6872739E+00
   5.2282841E-04   5.8421147E+04   -1.6867344E+00
   5.2524289E-04   5.7968953E+04   -1.6861955E+00
   5.2766851E-04   5.7520403E+04   -1.6856572E+00
   5.3010534E-04   5.7075465E+04   -1.6851195E+00
   5.3255342E-04   5.6634109E+04   -1.6845825E+00
   5.3501281E-04   5.6196304E+04   -1.6840462E+00
   5.3748356E-04   5.5762022E+04   -1.6835105E+00
   5.3996571E-04   5.5331232E+04   -1.6829754E+00
   5.4245933E-04   5.4903906E+04   -1.6824410E+00
   5.4496446E-04   5.4480014E+04   -1.6819073E+00
   5.4748117E-04   5.4059528E+04   -1.6813742E+00
   5.5000949E-04   5.3642419E+04   -1.6808418E+00
   5.5254949E-04   5.3228658E+04   -1.6803101E+00
   5.5510123E-04   5.2818219E+04   -1.6797791E+00
   5.5766474E-04   5.2411072E+04   -1.6792487E+00
   5.6024010E-04   5.2007191E+04   -1.6787191E+00
   5.6282734E-04   5.1606548E+04   -1.6781901E+00
   5.6542654E-04   5.1209116E+04   -1.6776618E+00
   5.6803774E-04   5.0814868E+04   -1.6771343E+00
   5.7066099E-04   5.0423778E+04   -1.6766074E+00
   5.7329637E-04   5.0035819E+04   -1.6760813E+00
   5.7594391E-04   4.9650966E+04   -1.6755558E+00
   5.7860368E-04   4.9269192E+04   -1.6750311E+00
   5.8127573E-04   4.8890472E+04   -1.6745071E+00
   5.8396012E-04   4.8514779E+04   -1.6739839E+00
   5.8665691E-04   4.8142090E+04   -1.6734613E+00
   5.8936616E-04   4.7772379E+04   -1.6729395E+00
   5.9208791E-04   4.7405620E+04   -1.6724185E+00
   5.9482223E-04   4.7041791E+04   -1.6718982E+00
   5.9756919E-04   4.6680865E+04   -1.6713786E+00
   6.0032882E-04   4.6322820E+04   -1.6708598E+00
   6.0310120E-04   4.5967630E+04   -1.6703417E+00
   6.0588639E-04   4.5615273E+04   -1.6698244E+00
   6.0868443E-04   4.5265724E+04   -1.6693079E+00
   6.1149540E-04   4.4918961E+04   -1.6687921E+00
   6.1431935E-04   4.4574960E+04   -1.6682771E+00
   6.1715634E-04   4.4233699E+04   -1.6677629E+00
   6.2000644E-04   4.3895154E+04   -1.6672494E+00
   6.2286969E-04   4.3559303E+04   -1.6667368E+00
