#        a       HoverH0(a)       dlogHdloga_of_a(a)
   1.0000000E-04   1.1882731E+06   -1.8594805E+00
   1.0046181E-04   1.1781373E+06   -1.8590145E+00
   1.0092575E-04   1.1680905E+06   -1.8585476E+00
   1.0139184E-04   1.1581319E+06   -1.8580798E+00
   1.0186008E-04   1.1482606E+06   -1.8576110E+00
   1.0233048E-04   1.1384759E+06   -1.8571413E+00
   1.0280305E-04   1.1287771E+06   -1.8566707E+00
   1.0327781E-04   1.1191633E+06   -1.8561991E+00
   1.0375475E-04   1.1096338E+06   -1.8557267E+00
   1.0423390E-04   1.1001878E+06   -1.8552532E+00
   1.0471527E-04   1.0908247E+06   -1.8547789E+00
   1.0519885E-04   1.0815435E+06   -1.8543037E+00
   1.0568467E-04   1.0723437E+06   -1.8538275E+00
   1.0617274E-04   1.0632245E+06   -1.8533505E+00
   1.0666305E-04   1.0541852E+06   -1.8528725E+00
   1.0715563E-04   1.0452250E+06   -1.8523936E+00
   1.0765049E-04   1.0363433E+06   -1.8519138E+00
   1.0814763E-04   1.0275393E+06   -1.8514331E+00
   1.0864707E-04   1.0188123E+06   -1.8509515E+00
   1.0914881E-04   1.0101618E+06   -1.8504691E+00
   1.0965287E-04   1.0015869E+06   -1.8499857E+00
   1.1015926E-04   9.9308696E+05   -1.8495014E+00
   1.1066799E-04   9.8466139E+05   -1.8490162E+00
   1.1117906E-04   9.7630950E+05   -1.8485302E+00
   1.1169250E-04   9.6803061E+05   -1.8480433E+00
   1.1220831E-04   9.5982408E+05   -1.8475555E+00
   1.1272650E-04   9.5168927E+05   -1.8470668E+00
   1.1324708E-04   9.4362552E+05   -1.8465772E+00
   1.1377007E-04   9.3563222E+05   -1.8460868E+00
   1.1429547E-04   9.2770872E+05   -1.8455955E+00
   1.1482330E-04   9.1985441E+05   -1.8451033E+00
   1.1535356E-04   9.1206867E+05   -1.8446103E+00
   1.1588628E-04   9.0435088E+05   -1.8441164E+00
   1.1642145E-04   8.9670044E+05   -1.8436216E+00
   1.1695910E-04   8.8911675E+05   -1.8431260E+00
   1.1749923E-04   8.8159921E+05   -1.8426295E+00
   1.1804185E-04   8.7414723E+05   -1.8421322E+00
   1.1858698E-04   8.6676023E+05   -1.8416341E+00
   1.1913463E-04   8.5943763E+05   -1.8411351E+00
   1.1968481E-04   8.5217885E+05   -1.8406352E+00
   1.2023752E-04   8.4498333E+05   -1.8401346E+00
   1.2079279E-04   8.3785050E+05   -1.8396331E+00
   1.2135063E-04   8.3077980E+05   -1.8391307E+00
   1.2191104E-04   8.2377068E+05   -1.8386276E+00
   1.2247403E-04   8.1682259E+05   -1.8381236E+00
   1.2303963E-04   8.0993499E+05   -1.8376188E+00
   1.2360784E-04   8.0310733E+05   -1.8371132E+00
   1.2417868E-04   7.9633908E+05   -1.8366067E+00
   1.2475215E-04   7.8962972E+05   -1.8360995E+00
   1.2532826E-04   7.8297872E+05   -1.8355915E+00
   1.2590704E-04   7.7638556E+05   -1.8350826E+00
   1.2648850E-04   7.6984972E+05   -1.8345730E+00
   1.2707263E-04   7.6337070E+05   -1.8340625E+00
   1.2765947E-04   7.5694798E+05   -1.8335513E+00
   1.2824901E-04   7.5058108E+05   -1.8330393E+00
   1.2884128E-04   7.4426948E+05   -1.8325265E+00
   1.2943628E-04   7.3801271E+05   -1.8320129E+00
   1.3003403E-04   7.3181027E+05   -1.8314985E+00
   1.3063454E-04   7.2566167E+05   -1.8309834E+00
   1.3123783E-04   7.1956644E+05   -1.8304675E+00
   1.3184390E-04   7.1352411E+05   -1.8299508E+00
   1.3245277E-04   7.0753420E+05   -1.8294334E+00
   1.3306445E-04   7.0159625E+05   -1.8289152E+00
   1.3367895E-04   6.9570979E+05   -1.8283963E+00
   1.3429630E-04   6.8987437E+05   -1.8278766E+00
   1.3491649E-04   6.8408954E+05   -1.8273561E+00
   1.3553955E-04   6.7835485E+05   -1.8268349E+00
   1.3616548E-04   6.7266984E+05   -1.8263130E+00
   1.3679431E-04   6.6703409E+05   -1.8257904E+00
   1.3742604E-04   6.6144714E+05   -1.8252670E+00
   1.3806069E-04   6.5590857E+05   -1.8247429E+00
   1.3869827E-04   6.5041796E+05   -1.8242180E+00
   1.3933879E-04   6.4497486E+05   -1.8236925E+00
   1.3998227E-04   6.3957886E+05   -1.8231662E+00
   1.4062872E-04   6.3422955E+05   -1.8226392E+00
   1.4127816E-04   6.2892651E+05   -1.8221115E+00
   1.4193060E-04   6.2366932E+05   -1.8215831E+00
   1.4258605E-04   6.1845759E+05   -1.8210540E+00
   1.4324453E-04   6.1329090E+05   -1.8205243E+00
   1.4390605E-04   6.0816886E+05   -1.8199938E+00
   1.4457062E-04   6.0309108E+05   -1.8194626E+00
   1.4523826E-04   5.9805716E+05   -1.8189308E+00
   1.4590899E-04   5.9306671E+05   -1.8183983E+00
   1.4658281E-04   5.8811934E+05   -1.8178651E+00
   1.4725974E-04   5.8321468E+05   -1.8173313E+00
   1.4793981E-04   5.7835235E+05   -1.8167967E+00
   1.4862301E-04   5.7353196E+05   -1.8162616E+00
   1.4930936E-04   5.6875316E+05   -1.8157257E+00
   1.4999889E-04   5.6401557E+05   -1.8151893E+00
   1.5069160E-04   5.5931882E+05   -1.8146521E+00
   1.5138751E-04   5.5466256E+05   -1.8141144E+00
   1.5208663E-04   5.5004642E+05   -1.8135760E+00
   1.5278899E-04   5.4547006E+05   -1.8130370E+00
   1.5349458E-04   5.4093311E+05   -1.8124973E+00
   1.5420343E-04   5.3643524E+05   -1.8119570E+00
   1.5491556E-04   5.3197609E+05   -1.8114161E+00
   1.5563098E-04   5.2755533E+05   -1.8108746E+00
   1.5634970E-04   5.2317261E+05   -1.8103325E+00
   1.5707174E-04   5.1882759E+05   -1.8097898E+00
   1.5779711E-04   5.1451995E+05   -1.8092465E+00
   1.5852584E-04   5.1024935E+05   -1.8087026E+00
   1.5925792E-04   5.0601546E+05   -1.8081580E+00
   1.5999339E-04   5.0181797E+05   -1.8076130E+00
   1.6073226E-04   4.9765654E+05   -1.8070673E+00
   1.6147454E-04   4.9353087E+05   -1.8065211E+00
   1.6222024E-04   4.8944063E+05   -1.8059743E+00
   1.6296939E-04   4.8538551E+05   -1.8054269E+00
   1.6372200E-04   4.8136521E+05   -1.8048789E+00
   1.6447809E-04   4.7737941E+05   -1.8043305E+00
   1.6523767E-04   4.7342781E+05   -1.8037814E+00
   1.6600075E-04   4.6951011E+05   -1.8032318E+00
   1.6676736E-04   4.6562601E+05   -1.8026817E+00
   1.6753751E-04   4.6177521E+05   -1.8021311E+00
   1.6831122E-04   4.5795742E+05   -1.8015799E+00
   1.6908849E-04   4.5417235E+05   -1.8010282E+00
   1.6986936E-04   4.5041971E+05   -1.8004759E+00
   1.7065384E-04   4.4669921E+05   -1.7999232E+00
   1.7144193E-04   4.4301057E+05   -1.7993699E+00
   1.7223367E-04   4.3935351E+05   -1.7988162E+00
   1.7302906E-04   4.3572776E+05   -1.7982619E+00
   1.7382813E-04   4.3213303E+05   -1.7977072E+00
   1.7463089E-04   4.2856905E+05   -1.7971519E+00
   1.7543735E-04   4.2503555E+05   -1.7965962E+00
   1.7624754E-04   4.2153227E+05   -1.7960400E+00
   1.7706147E-04   4.1805893E+05   -1.7954834E+00
   1.7787916E-04   4.1461528E+05   -1.7949262E+00
   1.7870062E-04   4.1120104E+05   -1.7943686E+00
   1.7952588E-04   4.0781598E+05   -1.7938106E+00
   1.8035495E-04   4.0445981E+05   -1.7932521E+00
   1.8118785E-04   4.0113230E+05   -1.7926931E+00
   1.8202459E-04   3.9783319E+05   -1.7921337E+00
   1.8286520E-04   3.9456224E+05   -1.7915739E+00
   1.8370969E-04   3.9131918E+05   -1.7910136E+00
   1.8455808E-04   3.8810379E+05   -1.7904530E+00
   1.8541039E-04   3.8491580E+05   -1.7898919E+00
   1.8626663E-04   3.8175500E+05   -1.7893303E+00
   1.8712683E-04   3.7862113E+05   -1.7887684E+00
   1.8799100E-04   3.7551395E+05   -1.7882061E+00
   1.8885917E-04   3.7243324E+05   -1.7876434E+00
   1.8973134E-04   3.6937877E+05   -1.7870803E+00
   1.9060754E-04   3.6635029E+05   -1.7865168E+00
   1.9148778E-04   3.6334759E+05   -1.7859529E+00
   1.9237209E-04   3.6037044E+05   -1.7853887E+00
   1.9326049E-04   3.5741861E+05   -1.7848241E+00
   1.9415299E-04   3.5449188E+05   -1.7842591E+00
   1.9504960E-04   3.5159003E+05   -1.7836937E+00
   1.9595036E-04   3.4871285E+05   -1.7831281E+00
   1.9685528E-04   3.4586011E+05   -1.7825620E+00
   1.9776438E-04   3.4303160E+05   -1.7819956E+00
   1.9867768E-04   3.4022712E+05   -1.7814289E+00
   1.9959519E-04   3.3744644E+05   -1.7808619E+00
   2.0051694E-04   3.3468937E+05   -1.7802945E+00
   2.0144295E-04   3.3195569E+05   -1.7797269E+00
   2.0237324E-04   3.2924520E+05   -1.7791589E+00
   2.0330782E-04   3.2655769E+05   -1.7785906E+00
   2.0424671E-04   3.2389297E+05   -1.7780220E+00
   2.0518995E-04   3.2125084E+05   -1.7774531E+00
   2.0613754E-04   3.1863109E+05   -1.7768839E+00
   2.0708950E-04   3.1603354E+05   -1.7763145E+00
   2.0804586E-04   3.1345799E+05   -1.7757447E+00
   2.0900664E-04   3.1090424E+05   -1.7751747E+00
   2.0997185E-04   3.0837211E+05   -1.7746045E+00
   2.1094152E-04   3.0586141E+05   -1.7740339E+00
   2.1191567E-04   3.0337194E+05   -1.7734632E+00
   2.1289432E-04   3.0090353E+05   -1.7728921E+00
   2.1387749E-04   2.9845599E+05   -1.7723209E+00
   2.1486520E-04   2.9602913E+05   -1.7717494E+00
   2.1585747E-04   2.9362278E+05   -1.7711776E+00
   2.1685432E-04   2.9123676E+05   -1.7706057E+00
   2.1785578E-04   2.8887089E+05   -1.7700335E+00
   2.1886186E-04   2.8652500E+05   -1.7694611E+00
   2.1987259E-04   2.8419890E+05   -1.7688885E+00
   2.2088798E-04   2.8189244E+05   -1.7683157E+00
   2.2190807E-04   2.7960543E+05   -1.7677427E+00
   2.2293286E-04   2.7733771E+05   -1.7671696E+00
   2.2396239E-04   2.7508910E+05   -1.7665962E+00
   2.2499667E-04   2.7285945E+05   -1.7660227E+00
   2.2603573E-04   2.7064859E+05   -1.7654490E+00
   2.2707958E-04   2.6845634E+05   -1.7648751E+00
   2.2812826E-04   2.6628256E+05   -1.7643011E+00
   2.2918178E-04   2.6412708E+05   -1.7637269E+00
   2.3024017E-04   2.6198974E+05   -1.7631526E+00
   2.3130344E-04   2.5987039E+05   -1.7625781E+00
   2.3237162E-04   2.5776886E+05   -1.7620036E+00
   2.3344474E-04   2.5568500E+05   -1.7614288E+00
   2.3452281E-04   2.5361866E+05   -1.7608540E+00
   2.3560586E-04   2.5156969E+05   -1.7602790E+00
   2.3669392E-04   2.4953793E+05   -1.7597040E+00
   2.3778699E-04   2.4752324E+05   -1.7591288E+00
   2.3888512E-04   2.4552546E+05   -1.7585535E+00
   2.3998831E-04   2.4354446E+05   -1.7579782E+00
   2.4109661E-04   2.4158007E+05   -1.7574027E+00
   2.4221001E-04   2.3963217E+05   -1.7568272E+00
   2.4332857E-04   2.3770060E+05   -1.7562516E+00
   2.4445228E-04   2.3578523E+05   -1.7556760E+00
   2.4558119E-04   2.3388591E+05   -1.7551002E+00
   2.4671531E-04   2.3200251E+05   -1.7545245E+00
   2.4785467E-04   2.3013489E+05   -1.7539486E+00
   2.4899928E-04   2.2828290E+05   -1.7533728E+00
   2.5014919E-04   2.2644642E+05   -1.7527969E+00
   2.5130440E-04   2.2462531E+05   -1.7522209E+00
   2.5246495E-04   2.2281944E+05   -1.7516450E+00
   2.5363086E-04   2.2102867E+05   -1.7510690E+00
   2.5480216E-04   2.1925287E+05   -1.7504930E+00
   2.5597886E-04   2.1749192E+05   -1.7499170E+00
   2.5716100E-04   2.1574569E+05   -1.7493410E+00
   2.5834859E-04   2.1401404E+05   -1.7487650E+00
   2.5954168E-04   2.1229686E+05   -1.7481891E+00
   2.6074027E-04   2.1059401E+05   -1.7476131E+00
   2.6194439E-04   2.0890537E+05   -1.7470372E+00
   2.6315408E-04   2.0723083E+05   -1.7464613E+00
   2.6436935E-04   2.0557025E+05   -1.7458854E+00
   2.6559024E-04   2.0392353E+05   -1.7453096E+00
   2.6681676E-04   2.0229053E+05   -1.7447338E+00
   2.6804895E-04   2.0067113E+05   -1.7441581E+00
   2.6928683E-04   1.9906523E+05   -1.7435825E+00
   2.7053042E-04   1.9747271E+05   -1.7430069E+00
   2.7177976E-04   1.9589345E+05   -1.7424314E+00
   2.7303487E-04   1.9432733E+05   -1.7418560E+00
   2.7429577E-04   1.9277424E+05   -1.7412806E+00
   2.7556250E-04   1.9123407E+05   -1.7407054E+00
   2.7683507E-04   1.8970671E+05   -1.7401302E+00
   2.7811353E-04   1.8819205E+05   -1.7395552E+00
   2.7939788E-04   1.8668997E+05   -1.7389802E+00
   2.8068817E-04   1.8520038E+05   -1.7384054E+00
   2.8198442E-04   1.8372315E+05   -1.7378307E+00
   2.8328665E-04   1.8225819E+05   -1.7372561E+00
   2.8459490E-04   1.8080540E+05   -1.7366817E+00
   2.8590919E-04   1.7936465E+05   -1.7361074E+00
   2.8722955E-04   1.7793586E+05   -1.7355332E+00
   2.8855600E-04   1.7651892E+05   -1.7349592E+00
   2.8988859E-04   1.7511372E+05   -1.7343854E+00
   2.9122732E-04   1.7372017E+05   -1.7338117E+00
   2.9257224E-04   1.7233816E+05   -1.7332382E+00
   2.9392337E-04   1.7096760E+05   -1.7326649E+00
   2.9528074E-04   1.6960839E+05   -1.7320917E+00
   2.9664438E-04   1.6826043E+05   -1.7315188E+00
   2.9801431E-04   1.6692362E+05   -1.7309460E+00
   2.9939057E-04   1.6559787E+05   -1.7303735E+00
   3.0077319E-04   1.6428308E+05   -1.7298011E+00
   3.0216219E-04   1.6297916E+05   -1.7292290E+00
   3.0355761E-04   1.6168602E+05   -1.7286570E+00
   3.0495947E-04   1.6040356E+05   -1.7280854E+00
   3.0636780E-04   1.5913169E+05   -1.7275139E+00
   3.0778264E-04   1.5787032E+05   -1.7269426E+00
   3.0920401E-04   1.5661936E+05   -1.7263717E+00
   3.1063195E-04   1.5537872E+05   -1.7258009E+00
   3.1206648E-04   1.5414831E+05   -1.7252304E+00
   3.1350764E-04   1.5292805E+05   -1.7246602E+00
   3.1495545E-04   1.5171785E+05   -1.7240902E+00
   3.1640994E-04   1.5051762E+05   -1.7235205E+00
   3.1787116E-04   1.4932728E+05   -1.7229511E+00
   3.1933912E-04   1.4814674E+05   -1.7223820E+00
   3.2081386E-04   1.4697592E+05   -1.7218132E+00
   3.2229541E-04   1.4581473E+05   -1.7212446E+00
   3.2378381E-04   1.4466310E+05   -1.7206764E+00
   3.2527908E-04   1.4352093E+05   -1.7201084E+00
   3.2678125E-04   1.4238816E+05   -1.7195408E+00
   3.2829036E-04   1.4126470E+05   -1.7189735E+00
   3.2980644E-04   1.4015047E+05   -1.7184065E+00
   3.3132952E-04   1.3904539E+05   -1.7178399E+00
   3.3285963E-04   1.3794938E+05   -1.7172735E+00
   3.3439681E-04   1.3686237E+05   -1.7167076E+00
   3.3594109E-04   1.3578428E+05   -1.7161419E+00
   3.3749250E-04   1.3471503E+05   -1.7155766E+00
   3.3905108E-04   1.3365455E+05   -1.7150117E+00
   3.4061685E-04   1.3260276E+05   -1.7144472E+00
   3.4218986E-04   1.3155960E+05   -1.7138830E+00
   3.4377013E-04   1.3052497E+05   -1.7133192E+00
   3.4535769E-04   1.2949882E+05   -1.7127557E+00
   3.4695259E-04   1.2848107E+05   -1.7121927E+00
   3.4855485E-04   1.2747166E+05   -1.7116300E+00
   3.5016452E-04   1.2647049E+05   -1.7110678E+00
   3.5178161E-04   1.2547752E+05   -1.7105059E+00
   3.5340618E-04   1.2449267E+05   -1.7099444E+00
   3.5503824E-04   1.2351586E+05   -1.7093834E+00
   3.5667785E-04   1.2254704E+05   -1.7088228E+00
   3.5832502E-04   1.2158613E+05   -1.7082626E+00
   3.5997981E-04   1.2063306E+05   -1.7077028E+00
   3.6164223E-04   1.1968777E+05   -1.7071435E+00
   3.6331233E-04   1.1875020E+05   -1.7065846E+00
   3.6499015E-04   1.1782028E+05   -1.7060262E+00
   3.6667571E-04   1.1689793E+05   -1.7054682E+00
   3.6836906E-04   1.1598311E+05   -1.7049107E+00
   3.7007022E-04   1.1507574E+05   -1.7043536E+00
   3.7177925E-04   1.1417576E+05   -1.7037970E+00
   3.7349616E-04   1.1328312E+05   -1.7032409E+00
   3.7522101E-04   1.1239773E+05   -1.7026852E+00
   3.7695382E-04   1.1151956E+05   -1.7021301E+00
   3.7869463E-04   1.1064852E+05   -1.7015754E+00
   3.8044348E-04   1.0978458E+05   -1.7010212E+00
   3.8220041E-04   1.0892765E+05   -1.7004675E+00
   3.8396545E-04   1.0807769E+05   -1.6999144E+00
   3.8573864E-04   1.0723464E+05   -1.6993617E+00
   3.8752002E-04   1.0639843E+05   -1.6988095E+00
   3.8930963E-04   1.0556901E+05   -1.6982579E+00
   3.9110750E-04   1.0474632E+05   -1.6977068E+00
   3.9291368E-04   1.0393031E+05   -1.6971562E+00
   3.9472820E-04   1.0312092E+05   -1.6966062E+00
   3.9655109E-04   1.0231808E+05   -1.6960567E+00
   3.9838241E-04   1.0152176E+05   -1.6955077E+00
   4.0022218E-04   1.0073189E+05   -1.6949593E+00
   4.0207045E-04   9.9948414E+04   -1.6944115E+00
   4.0392725E-04   9.9171284E+04   -1.6938642E+00
   4.0579263E-04   9.8400445E+04   -1.6933174E+00
   4.0766662E-04   9.7635843E+04   -1.6927713E+00
   4.0954927E-04   9.6877426E+04   -1.6922257E+00
   4.1144061E-04   9.6125141E+04   -1.6916807E+00
   4.1334068E-04   9.5378938E+04   -1.6911363E+00
   4.1524953E-04   9.4638765E+04   -1.6905925E+00
   4.1716720E-04   9.3904570E+04   -1.6900492E+00
   4.1909372E-04   9.3176305E+04   -1.6895066E+00
   4.2102914E-04   9.2453918E+04   -1.6889646E+00
   4.2297350E-04   9.1737361E+04   -1.6884231E+00
   4.2492683E-04   9.1026585E+04   -1.6878823E+00
   4.2688919E-04   9.0321541E+04   -1.6873422E+00
   4.2886061E-04   8.9622180E+04   -1.6868026E+00
   4.3084113E-04   8.8928456E+04   -1.6862636E+00
   4.3283080E-04   8.8240320E+04   -1.6857253E+00
   4.3482966E-04   8.7557727E+04   -1.6851877E+00
   4.3683775E-04   8.6880628E+04   -1.6846506E+00
   4.3885511E-04   8.6208979E+04   -1.6841143E+00
   4.4088179E-04   8.5542734E+04   -1.6835785E+00
   4.4291783E-04   8.4881847E+04   -1.6830434E+00
   4.4496327E-04   8.4226273E+04   -1.6825090E+00
   4.4701816E-04   8.3575968E+04   -1.6819753E+00
   4.4908253E-04   8.2930888E+04   -1.6814422E+00
   4.5115644E-04   8.2290989E+04   -1.6809098E+00
   4.5323993E-04   8.1656228E+04   -1.6803780E+00
   4.5533304E-04   8.1026561E+04   -1.6798470E+00
   4.5743582E-04   8.0401947E+04   -1.6793166E+00
   4.5954830E-04   7.9782342E+04   -1.6787869E+00
   4.6167054E-04   7.9167705E+04   -1.6782579E+00
   4.6380259E-04   7.8557995E+04   -1.6777296E+00
   4.6594448E-04   7.7953170E+04   -1.6772020E+00
   4.6809626E-04   7.7353190E+04   -1.6766752E+00
   4.7025797E-04   7.6758013E+04   -1.6761490E+00
   4.7242967E-04   7.6167601E+04   -1.6756235E+00
   4.7461140E-04   7.5581913E+04   -1.6750988E+00
   4.7680321E-04   7.5000909E+04   -1.6745748E+00
   4.7900514E-04   7.4424551E+04   -1.6740515E+00
   4.8121723E-04   7.3852801E+04   -1.6735289E+00
   4.8343954E-04   7.3285619E+04   -1.6730071E+00
   4.8567212E-04   7.2722968E+04   -1.6724860E+00
   4.8791500E-04   7.2164810E+04   -1.6719657E+00
   4.9016825E-04   7.1611107E+04   -1.6714461E+00
   4.9243189E-04   7.1061823E+04   -1.6709272E+00
   4.9470600E-04   7.0516920E+04   -1.6704092E+00
   4.9699060E-04   6.9976363E+04   -1.6698918E+00
   4.9928575E-04   6.9440114E+04   -1.6693753E+00
   5.0159151E-04   6.8908139E+04   -1.6688595E+00
   5.0390791E-04   6.8380402E+04   -1.6683444E+00
   5.0623501E-04   6.7856867E+04   -1.6678302E+00
   5.0857286E-04   6.7337500E+04   -1.6673167E+00
   5.1092150E-04   6.6822266E+04   -1.6668040E+00
   5.1328099E-04   6.6311131E+04   -1.6662921E+00
   5.1565137E-04   6.5804061E+04   -1.6657810E+00
   5.1803270E-04   6.5301022E+04   -1.6652706E+00
   5.2042503E-04   6.4801981E+04   -1.6647611E+00
   5.2282841E-04   6.4306905E+04   -1.6642523E+00
   5.2524289E-04   6.3815760E+04   -1.6637444E+00
   5.2766851E-04   6.3328514E+04   -1.6632373E+00
   5.3010534E-04   6.2845135E+04   -1.6627309E+00
   5.3255342E-04   6.2365592E+04   -1.6622254E+00
   5.3501281E-04   6.1889851E+04   -1.6617207E+00
   5.3748356E-04   6.1417882E+04   -1.6612169E+00
   5.3996571E-04   6.0949654E+04   -1.6607138E+00
   5.4245933E-04   6.0485135E+04   -1.6602116E+00
   5.4496446E-04   6.0024296E+04   -1.6597102E+00
   5.4748117E-04   5.9567105E+04   -1.6592096E+00
   5.5000949E-04   5.9113533E+04   -1.6587099E+00
   5.5254949E-04   5.8663550E+04   -1.6582110E+00
   5.5510123E-04   5.8217125E+04   -1.6577130E+00
   5.5766474E-04   5.7774230E+04   -1.6572158E+00
   5.6024010E-04   5.7334836E+04   -1.6567194E+00
   5.6282734E-04   5.6898914E+04   -1.6562239E+00
   5.6542654E-04   5.6466434E+04   -1.6557293E+00
   5.6803774E-04   5.6037370E+04   -1.6552355E+00
   5.7066099E-04   5.5611692E+04   -1.6547425E+00
   5.7329637E-04   5.5189373E+04   -1.6542505E+00
   5.7594391E-04   5.4770385E+04   -1.6537593E+00
   5.7860368E-04   5.4354701E+04   -1.6532690E+00
   5.8127573E-04   5.3942294E+04   -1.6527795E+00
   5.8396012E-04   5.3533137E+04   -1.6522909E+00
   5.8665691E-04   5.3127202E+04   -1.6518032E+00
   5.8936616E-04   5.2724464E+04   -1.6513164E+00
   5.9208791E-04   5.2324896E+04   -1.6508304E+00
   5.9482223E-04   5.1928472E+04   -1.6503454E+00
   5.9756919E-04   5.1535167E+04   -1.6498612E+00
   6.0032882E-04   5.1144955E+04   -1.6493780E+00
   6.0310120E-04   5.0757810E+04   -1.6488956E+00
   6.0588639E-04   5.0373707E+04   -1.6484141E+00
   6.0868443E-04   4.9992622E+04   -1.6479335E+00
   6.1149540E-04   4.9614530E+04   -1.6474538E+00
   6.1431935E-04   4.9239406E+04   -1.6469751E+00
   6.1715634E-04   4.8867226E+04   -1.6464972E+00
   6.2000644E-04   4.8497966E+04   -1.6460202E+00
   6.2286969E-04   4.8131602E+04   -1.6455442E+00
