#        a       HoverH0(a)       dlogHdloga_of_a(a)
   1.0000000E-04   1.1716144E+06   -1.8925295E+00
   1.0046181E-04   1.1614436E+06   -1.8921402E+00
   1.0092575E-04   1.1513632E+06   -1.8917499E+00
   1.0139184E-04   1.1413724E+06   -1.8913586E+00
   1.0186008E-04   1.1314703E+06   -1.8909663E+00
   1.0233048E-04   1.1216561E+06   -1.8905729E+00
   1.0280305E-04   1.1119290E+06   -1.8901786E+00
   1.0327781E-04   1.1022883E+06   -1.8897832E+00
   1.0375475E-04   1.0927332E+06   -1.8893868E+00
   1.0423390E-04   1.0832629E+06   -1.8889894E+00
   1.0471527E-04   1.0738767E+06   -1.8885909E+00
   1.0519885E-04   1.0645737E+06   -1.8881915E+00
   1.0568467E-04   1.0553533E+06   -1.8877910E+00
   1.0617274E-04   1.0462147E+06   -1.8873895E+00
   1.0666305E-04   1.0371571E+06   -1.8869869E+00
   1.0715563E-04   1.0281798E+06   -1.8865834E+00
   1.0765049E-04   1.0192822E+06   -1.8861789E+00
   1.0814763E-04   1.0104634E+06   -1.8857733E+00
   1.0864707E-04   1.0017228E+06   -1.8853667E+00
   1.0914881E-04   9.9305969E+05   -1.8849591E+00
   1.0965287E-04   9.8447334E+05   -1.8845505E+00
   1.1015926E-04   9.7596307E+05   -1.8841408E+00
   1.1066799E-04   9.6752819E+05   -1.8837302E+00
   1.1117906E-04   9.5916803E+05   -1.8833185E+00
   1.1169250E-04   9.5088191E+05   -1.8829059E+00
   1.1220831E-04   9.4266917E+05   -1.8824922E+00
   1.1272650E-04   9.3452914E+05   -1.8820775E+00
   1.1324708E-04   9.2646118E+05   -1.8816618E+00
   1.1377007E-04   9.1846463E+05   -1.8812451E+00
   1.1429547E-04   9.1053886E+05   -1.8808273E+00
   1.1482330E-04   9.0268321E+05   -1.8804086E+00
   1.1535356E-04   8.9489707E+05   -1.8799889E+00
   1.1588628E-04   8.8717981E+05   -1.8795681E+00
   1.1642145E-04   8.7953081E+05   -1.8791464E+00
   1.1695910E-04   8.7194944E+05   -1.8787236E+00
   1.1749923E-04   8.6443512E+05   -1.8782998E+00
   1.1804185E-04   8.5698722E+05   -1.8778751E+00
   1.1858698E-04   8.4960517E+05   -1.8774493E+00
   1.1913463E-04   8.4228835E+05   -1.8770225E+00
   1.1968481E-04   8.3503619E+05   -1.8765947E+00
   1.2023752E-04   8.2784811E+05   -1.8761660E+00
   1.2079279E-04   8.2072352E+05   -1.8757362E+00
   1.2135063E-04   8.1366187E+05   -1.8753054E+00
   1.2191104E-04   8.0666258E+05   -1.8748737E+00
   1.2247403E-04   7.9972509E+05   -1.8744409E+00
   1.2303963E-04   7.9284884E+05   -1.8740072E+00
   1.2360784E-04   7.8603329E+05   -1.8735724E+00
   1.2417868E-04   7.7927790E+05   -1.8731367E+00
   1.2475215E-04   7.7258211E+05   -1.8726999E+00
   1.2532826E-04   7.6594540E+05   -1.8722622E+00
   1.2590704E-04   7.5936723E+05   -1.8718235E+00
   1.2648850E-04   7.5284708E+05   -1.8713838E+00
   1.2707263E-04   7.4638443E+05   -1.8709432E+00
   1.2765947E-04   7.3997876E+05   -1.8705015E+00
   1.2824901E-04   7.3362956E+05   -1.8700589E+00
   1.2884128E-04   7.2733633E+05   -1.8696152E+00
   1.2943628E-04   7.2109855E+05   -1.8691706E+00
   1.3003403E-04   7.1491574E+05   -1.8687251E+00
   1.3063454E-04   7.0878740E+05   -1.8682785E+00
   1.3123783E-04   7.0271303E+05   -1.8678310E+00
   1.3184390E-04   6.9669216E+05   -1.8673825E+00
   1.3245277E-04   6.9072431E+05   -1.8669330E+00
   1.3306445E-04   6.8480900E+05   -1.8664826E+00
   1.3367895E-04   6.7894575E+05   -1.8660312E+00
   1.3429630E-04   6.7313411E+05   -1.8655788E+00
   1.3491649E-04   6.6737361E+05   -1.8651254E+00
   1.3553955E-04   6.6166378E+05   -1.8646711E+00
   1.3616548E-04   6.5600419E+05   -1.8642159E+00
   1.3679431E-04   6.5039437E+05   -1.8637596E+00
   1.3742604E-04   6.4483388E+05   -1.8633024E+00
   1.3806069E-04   6.3932228E+05   -1.8628443E+00
   1.3869827E-04   6.3385912E+05   -1.8623852E+00
   1.3933879E-04   6.2844398E+05   -1.8619252E+00
   1.3998227E-04   6.2307642E+05   -1.8614642E+00
   1.4062872E-04   6.1775602E+05   -1.8610022E+00
   1.4127816E-04   6.1248236E+05   -1.8605393E+00
   1.4193060E-04   6.0725501E+05   -1.8600755E+00
   1.4258605E-04   6.0207357E+05   -1.8596107E+00
   1.4324453E-04   5.9693761E+05   -1.8591450E+00
   1.4390605E-04   5.9184674E+05   -1.8586784E+00
   1.4457062E-04   5.8680055E+05   -1.8582108E+00
   1.4523826E-04   5.8179864E+05   -1.8577422E+00
   1.4590899E-04   5.7684061E+05   -1.8572728E+00
   1.4658281E-04   5.7192607E+05   -1.8568024E+00
   1.4725974E-04   5.6705464E+05   -1.8563311E+00
   1.4793981E-04   5.6222591E+05   -1.8558588E+00
   1.4862301E-04   5.5743952E+05   -1.8553857E+00
   1.4930936E-04   5.5269509E+05   -1.8549116E+00
   1.4999889E-04   5.4799223E+05   -1.8544366E+00
   1.5069160E-04   5.4333058E+05   -1.8539607E+00
   1.5138751E-04   5.3870976E+05   -1.8534839E+00
   1.5208663E-04   5.3412942E+05   -1.8530061E+00
   1.5278899E-04   5.2958919E+05   -1.8525275E+00
   1.5349458E-04   5.2508872E+05   -1.8520479E+00
   1.5420343E-04   5.2062764E+05   -1.8515675E+00
   1.5491556E-04   5.1620560E+05   -1.8510861E+00
   1.5563098E-04   5.1182226E+05   -1.8506039E+00
   1.5634970E-04   5.0747727E+05   -1.8501207E+00
   1.5707174E-04   5.0317029E+05   -1.8496367E+00
   1.5779711E-04   4.9890097E+05   -1.8491518E+00
   1.5852584E-04   4.9466898E+05   -1.8486660E+00
   1.5925792E-04   4.9047399E+05   -1.8481793E+00
   1.5999339E-04   4.8631567E+05   -1.8476917E+00
   1.6073226E-04   4.8219369E+05   -1.8472032E+00
   1.6147454E-04   4.7810772E+05   -1.8467139E+00
   1.6222024E-04   4.7405744E+05   -1.8462237E+00
   1.6296939E-04   4.7004254E+05   -1.8457326E+00
   1.6372200E-04   4.6606270E+05   -1.8452406E+00
   1.6447809E-04   4.6211761E+05   -1.8447478E+00
   1.6523767E-04   4.5820695E+05   -1.8442541E+00
   1.6600075E-04   4.5433041E+05   -1.8437596E+00
   1.6676736E-04   4.5048770E+05   -1.8432642E+00
   1.6753751E-04   4.4667852E+05   -1.8427680E+00
   1.6831122E-04   4.4290255E+05   -1.8422709E+00
   1.6908849E-04   4.3915951E+05   -1.8417730E+00
   1.6986936E-04   4.3544911E+05   -1.8412742E+00
   1.7065384E-04   4.3177104E+05   -1.8407746E+00
   1.7144193E-04   4.2812503E+05   -1.8402741E+00
   1.7223367E-04   4.2451079E+05   -1.8397728E+00
   1.7302906E-04   4.2092803E+05   -1.8392707E+00
   1.7382813E-04   4.1737648E+05   -1.8387677E+00
   1.7463089E-04   4.1385585E+05   -1.8382640E+00
   1.7543735E-04   4.1036588E+05   -1.8377594E+00
   1.7624754E-04   4.0690628E+05   -1.8372540E+00
   1.7706147E-04   4.0347678E+05   -1.8367477E+00
   1.7787916E-04   4.0007713E+05   -1.8362407E+00
   1.7870062E-04   3.9670704E+05   -1.8357329E+00
   1.7952588E-04   3.9336627E+05   -1.8352242E+00
   1.8035495E-04   3.9005455E+05   -1.8347148E+00
   1.8118785E-04   3.8677161E+05   -1.8342046E+00
   1.8202459E-04   3.8351721E+05   -1.8336935E+00
   1.8286520E-04   3.8029108E+05   -1.8331817E+00
   1.8370969E-04   3.7709299E+05   -1.8326691E+00
   1.8455808E-04   3.7392268E+05   -1.8321557E+00
   1.8541039E-04   3.7077989E+05   -1.8316415E+00
   1.8626663E-04   3.6766439E+05   -1.8311266E+00
   1.8712683E-04   3.6457594E+05   -1.8306109E+00
   1.8799100E-04   3.6151429E+05   -1.8300944E+00
   1.8885917E-04   3.5847920E+05   -1.8295772E+00
   1.8973134E-04   3.5547045E+05   -1.8290592E+00
   1.9060754E-04   3.5248778E+05   -1.8285404E+00
   1.9148778E-04   3.4953098E+05   -1.8280209E+00
   1.9237209E-04   3.4659982E+05   -1.8275006E+00
   1.9326049E-04   3.4369405E+05   -1.8269796E+00
   1.9415299E-04   3.4081347E+05   -1.8264579E+00
   1.9504960E-04   3.3795784E+05   -1.8259354E+00
   1.9595036E-04   3.3512695E+05   -1.8254122E+00
   1.9685528E-04   3.3232058E+05   -1.8248883E+00
   1.9776438E-04   3.2953850E+05   -1.8243636E+00
   1.9867768E-04   3.2678050E+05   -1.8238382E+00
   1.9959519E-04   3.2404636E+05   -1.8233121E+00
   2.0051694E-04   3.2133589E+05   -1.8227853E+00
   2.0144295E-04   3.1864886E+05   -1.8222578E+00
   2.0237324E-04   3.1598506E+05   -1.8217296E+00
   2.0330782E-04   3.1334430E+05   -1.8212007E+00
   2.0424671E-04   3.1072637E+05   -1.8206711E+00
   2.0518995E-04   3.0813106E+05   -1.8201408E+00
   2.0613754E-04   3.0555817E+05   -1.8196098E+00
   2.0708950E-04   3.0300751E+05   -1.8190781E+00
   2.0804586E-04   3.0047888E+05   -1.8185457E+00
   2.0900664E-04   2.9797208E+05   -1.8180127E+00
   2.0997185E-04   2.9548692E+05   -1.8174790E+00
   2.1094152E-04   2.9302321E+05   -1.8169447E+00
   2.1191567E-04   2.9058076E+05   -1.8164097E+00
   2.1289432E-04   2.8815937E+05   -1.8158740E+00
   2.1387749E-04   2.8575887E+05   -1.8153377E+00
   2.1486520E-04   2.8337907E+05   -1.8148007E+00
   2.1585747E-04   2.8101978E+05   -1.8142631E+00
   2.1685432E-04   2.7868082E+05   -1.8137248E+00
   2.1785578E-04   2.7636202E+05   -1.8131859E+00
   2.1886186E-04   2.7406319E+05   -1.8126464E+00
   2.1987259E-04   2.7178416E+05   -1.8121063E+00
   2.2088798E-04   2.6952476E+05   -1.8115655E+00
   2.2190807E-04   2.6728480E+05   -1.8110242E+00
   2.2293286E-04   2.6506412E+05   -1.8104822E+00
   2.2396239E-04   2.6286255E+05   -1.8099396E+00
   2.2499667E-04   2.6067991E+05   -1.8093964E+00
   2.2603573E-04   2.5851605E+05   -1.8088527E+00
   2.2707958E-04   2.5637079E+05   -1.8083083E+00
   2.2812826E-04   2.5424397E+05   -1.8077633E+00
   2.2918178E-04   2.5213542E+05   -1.8072178E+00
   2.3024017E-04   2.5004499E+05   -1.8066717E+00
   2.3130344E-04   2.4797252E+05   -1.8061250E+00
   2.3237162E-04   2.4591785E+05   -1.8055778E+00
   2.3344474E-04   2.4388081E+05   -1.8050300E+00
   2.3452281E-04   2.4186127E+05   -1.8044816E+00
   2.3560586E-04   2.3985905E+05   -1.8039327E+00
   2.3669392E-04   2.3787400E+05   -1.8033832E+00
   2.3778699E-04   2.3590599E+05   -1.8028332E+00
   2.3888512E-04   2.3395484E+05   -1.8022827E+00
   2.3998831E-04   2.3202043E+05   -1.8017316E+00
   2.4109661E-04   2.3010259E+05   -1.8011800E+00
   2.4221001E-04   2.2820119E+05   -1.8006279E+00
   2.4332857E-04   2.2631607E+05   -1.8000752E+00
   2.4445228E-04   2.2444710E+05   -1.7995221E+00
   2.4558119E-04   2.2259413E+05   -1.7989684E+00
   2.4671531E-04   2.2075702E+05   -1.7984143E+00
   2.4785467E-04   2.1893563E+05   -1.7978596E+00
   2.4899928E-04   2.1712983E+05   -1.7973045E+00
   2.5014919E-04   2.1533947E+05   -1.7967489E+00
   2.5130440E-04   2.1356442E+05   -1.7961928E+00
   2.5246495E-04   2.1180454E+05   -1.7956362E+00
   2.5363086E-04   2.1005971E+05   -1.7950792E+00
   2.5480216E-04   2.0832979E+05   -1.7945217E+00
   2.5597886E-04   2.0661464E+05   -1.7939637E+00
   2.5716100E-04   2.0491414E+05   -1.7934053E+00
   2.5834859E-04   2.0322816E+05   -1.7928464E+00
   2.5954168E-04   2.0155656E+05   -1.7922871E+00
   2.6074027E-04   1.9989924E+05   -1.7917274E+00
   2.6194439E-04   1.9825605E+05   -1.7911672E+00
   2.6315408E-04   1.9662688E+05   -1.7906066E+00
   2.6436935E-04   1.9501160E+05   -1.7900456E+00
   2.6559024E-04   1.9341009E+05   -1.7894841E+00
   2.6681676E-04   1.9182223E+05   -1.7889223E+00
   2.6804895E-04   1.9024789E+05   -1.7883600E+00
   2.6928683E-04   1.8868697E+05   -1.7877974E+00
   2.7053042E-04   1.8713934E+05   -1.7872343E+00
   2.7177976E-04   1.8560488E+05   -1.7866709E+00
   2.7303487E-04   1.8408349E+05   -1.7861071E+00
   2.7429577E-04   1.8257504E+05   -1.7855429E+00
   2.7556250E-04   1.8107942E+05   -1.7849784E+00
   2.7683507E-04   1.7959652E+05   -1.7844134E+00
   2.7811353E-04   1.7812622E+05   -1.7838482E+00
   2.7939788E-04   1.7666843E+05   -1.7832825E+00
   2.8068817E-04   1.7522302E+05   -1.7827166E+00
   2.8198442E-04   1.7378989E+05   -1.7821502E+00
   2.8328665E-04   1.7236894E+05   -1.7815836E+00
   2.8459490E-04   1.7096004E+05   -1.7810166E+00
   2.8590919E-04   1.6956311E+05   -1.7804493E+00
   2.8722955E-04   1.6817803E+05   -1.7798816E+00
   2.8855600E-04   1.6680470E+05   -1.7793137E+00
   2.8988859E-04   1.6544302E+05   -1.7787455E+00
   2.9122732E-04   1.6409288E+05   -1.7781769E+00
   2.9257224E-04   1.6275419E+05   -1.7776080E+00
   2.9392337E-04   1.6142684E+05   -1.7770389E+00
   2.9528074E-04   1.6011074E+05   -1.7764695E+00
   2.9664438E-04   1.5880578E+05   -1.7758998E+00
   2.9801431E-04   1.5751188E+05   -1.7753298E+00
   2.9939057E-04   1.5622893E+05   -1.7747596E+00
   3.0077319E-04   1.5495683E+05   -1.7741891E+00
   3.0216219E-04   1.5369550E+05   -1.7736183E+00
   3.0355761E-04   1.5244483E+05   -1.7730473E+00
   3.0495947E-04   1.5120474E+05   -1.7724760E+00
   3.0636780E-04   1.4997513E+05   -1.7719046E+00
   3.0778264E-04   1.4875591E+05   -1.7713328E+00
   3.0920401E-04   1.4754700E+05   -1.7707609E+00
   3.1063195E-04   1.4634829E+05   -1.7701887E+00
   3.1206648E-04   1.4515971E+05   -1.7696164E+00
   3.1350764E-04   1.4398115E+05   -1.7690438E+00
   3.1495545E-04   1.4281255E+05   -1.7684710E+00
   3.1640994E-04   1.4165380E+05   -1.7678980E+00
   3.1787116E-04   1.4050482E+05   -1.7673248E+00
   3.1933912E-04   1.3936554E+05   -1.7667515E+00
   3.2081386E-04   1.3823585E+05   -1.7661779E+00
   3.2229541E-04   1.3711569E+05   -1.7656042E+00
   3.2378381E-04   1.3600496E+05   -1.7650304E+00
   3.2527908E-04   1.3490359E+05   -1.7644563E+00
   3.2678125E-04   1.3381148E+05   -1.7638821E+00
   3.2829036E-04   1.3272858E+05   -1.7633078E+00
   3.2980644E-04   1.3165478E+05   -1.7627333E+00
   3.3132952E-04   1.3059002E+05   -1.7621587E+00
   3.3285963E-04   1.2953421E+05   -1.7615840E+00
   3.3439681E-04   1.2848727E+05   -1.7610091E+00
   3.3594109E-04   1.2744914E+05   -1.7604341E+00
   3.3749250E-04   1.2641973E+05   -1.7598591E+00
   3.3905108E-04   1.2539896E+05   -1.7592839E+00
   3.4061685E-04   1.2438677E+05   -1.7587086E+00
   3.4218986E-04   1.2338308E+05   -1.7581332E+00
   3.4377013E-04   1.2238781E+05   -1.7575577E+00
   3.4535769E-04   1.2140088E+05   -1.7569821E+00
   3.4695259E-04   1.2042224E+05   -1.7564065E+00
   3.4855485E-04   1.1945180E+05   -1.7558308E+00
   3.5016452E-04   1.1848950E+05   -1.7552551E+00
   3.5178161E-04   1.1753526E+05   -1.7546792E+00
   3.5340618E-04   1.1658902E+05   -1.7541034E+00
   3.5503824E-04   1.1565070E+05   -1.7535274E+00
   3.5667785E-04   1.1472023E+05   -1.7529515E+00
   3.5832502E-04   1.1379756E+05   -1.7523755E+00
   3.5997981E-04   1.1288260E+05   -1.7517995E+00
   3.6164223E-04   1.1197530E+05   -1.7512235E+00
   3.6331233E-04   1.1107559E+05   -1.7506474E+00
   3.6499015E-04   1.1018339E+05   -1.7500714E+00
   3.6667571E-04   1.0929866E+05   -1.7494953E+00
   3.6836906E-04   1.0842131E+05   -1.7489193E+00
   3.7007022E-04   1.0755130E+05   -1.7483432E+00
   3.7177925E-04   1.0668854E+05   -1.7477672E+00
   3.7349616E-04   1.0583299E+05   -1.7471912E+00
   3.7522101E-04   1.0498458E+05   -1.7466152E+00
   3.7695382E-04   1.0414325E+05   -1.7460393E+00
   3.7869463E-04   1.0330893E+05   -1.7454634E+00
   3.8044348E-04   1.0248157E+05   -1.7448876E+00
   3.8220041E-04   1.0166111E+05   -1.7443118E+00
   3.8396545E-04   1.0084748E+05   -1.7437360E+00
   3.8573864E-04   1.0004063E+05   -1.7431604E+00
   3.8752002E-04   9.9240494E+04   -1.7425848E+00
   3.8930963E-04   9.8447021E+04   -1.7420093E+00
   3.9110750E-04   9.7660151E+04   -1.7414338E+00
   3.9291368E-04   9.6879828E+04   -1.7408585E+00
   3.9472820E-04   9.6105994E+04   -1.7402832E+00
   3.9655109E-04   9.5338594E+04   -1.7397081E+00
   3.9838241E-04   9.4577572E+04   -1.7391331E+00
   4.0022218E-04   9.3822873E+04   -1.7385581E+00
   4.0207045E-04   9.3074444E+04   -1.7379833E+00
   4.0392725E-04   9.2332229E+04   -1.7374086E+00
   4.0579263E-04   9.1596175E+04   -1.7368341E+00
   4.0766662E-04   9.0866230E+04   -1.7362597E+00
   4.0954927E-04   9.0142340E+04   -1.7356854E+00
   4.1144061E-04   8.9424453E+04   -1.7351113E+00
   4.1334068E-04   8.8712519E+04   -1.7345374E+00
   4.1524953E-04   8.8006485E+04   -1.7339636E+00
   4.1716720E-04   8.7306300E+04   -1.7333900E+00
   4.1909372E-04   8.6611916E+04   -1.7328165E+00
   4.2102914E-04   8.5923281E+04   -1.7322432E+00
   4.2297350E-04   8.5240346E+04   -1.7316702E+00
   4.2492683E-04   8.4563063E+04   -1.7310973E+00
   4.2688919E-04   8.3891383E+04   -1.7305246E+00
   4.2886061E-04   8.3225257E+04   -1.7299521E+00
   4.3084113E-04   8.2564638E+04   -1.7293798E+00
   4.3283080E-04   8.1909479E+04   -1.7288078E+00
   4.3482966E-04   8.1259733E+04   -1.7282359E+00
   4.3683775E-04   8.0615354E+04   -1.7276643E+00
   4.3885511E-04   7.9976295E+04   -1.7270929E+00
   4.4088179E-04   7.9342510E+04   -1.7265218E+00
   4.4291783E-04   7.8713955E+04   -1.7259509E+00
   4.4496327E-04   7.8090585E+04   -1.7253803E+00
   4.4701816E-04   7.7472356E+04   -1.7248099E+00
   4.4908253E-04   7.6859222E+04   -1.7242398E+00
   4.5115644E-04   7.6251142E+04   -1.7236699E+00
   4.5323993E-04   7.5648071E+04   -1.7231004E+00
   4.5533304E-04   7.5049967E+04   -1.7225311E+00
   4.5743582E-04   7.4456786E+04   -1.7219621E+00
   4.5954830E-04   7.3868488E+04   -1.7213934E+00
   4.6167054E-04   7.3285030E+04   -1.7208250E+00
   4.6380259E-04   7.2706371E+04   -1.7202569E+00
   4.6594448E-04   7.2132469E+04   -1.7196891E+00
   4.6809626E-04   7.1563285E+04   -1.7191216E+00
   4.7025797E-04   7.0998778E+04   -1.7185544E+00
   4.7242967E-04   7.0438908E+04   -1.7179876E+00
   4.7461140E-04   6.9883635E+04   -1.7174211E+00
   4.7680321E-04   6.9332920E+04   -1.7168549E+00
   4.7900514E-04   6.8786724E+04   -1.7162891E+00
   4.8121723E-04   6.8245010E+04   -1.7157237E+00
   4.8343954E-04   6.7707737E+04   -1.7151586E+00
   4.8567212E-04   6.7174870E+04   -1.7145938E+00
   4.8791500E-04   6.6646369E+04   -1.7140294E+00
   4.9016825E-04   6.6122199E+04   -1.7134654E+00
   4.9243189E-04   6.5602321E+04   -1.7129018E+00
   4.9470600E-04   6.5086700E+04   -1.7123386E+00
   4.9699060E-04   6.4575299E+04   -1.7117757E+00
   4.9928575E-04   6.4068082E+04   -1.7112132E+00
   5.0159151E-04   6.3565014E+04   -1.7106512E+00
   5.0390791E-04   6.3066059E+04   -1.7100895E+00
   5.0623501E-04   6.2571183E+04   -1.7095283E+00
   5.0857286E-04   6.2080350E+04   -1.7089675E+00
   5.1092150E-04   6.1593527E+04   -1.7084071E+00
   5.1328099E-04   6.1110680E+04   -1.7078471E+00
   5.1565137E-04   6.0631773E+04   -1.7072876E+00
   5.1803270E-04   6.0156775E+04   -1.7067285E+00
   5.2042503E-04   5.9685652E+04   -1.7061698E+00
   5.2282841E-04   5.9218371E+04   -1.7056116E+00
   5.2524289E-04   5.8754899E+04   -1.7050539E+00
   5.2766851E-04   5.8295204E+04   -1.7044966E+00
   5.3010534E-04   5.7839254E+04   -1.7039397E+00
   5.3255342E-04   5.7387018E+04   -1.7033834E+00
   5.3501281E-04   5.6938463E+04   -1.7028275E+00
   5.3748356E-04   5.6493560E+04   -1.7022721E+00
   5.3996571E-04   5.6052275E+04   -1.7017172E+00
   5.4245933E-04   5.5614580E+04   -1.7011628E+00
   5.4496446E-04   5.5180444E+04   -1.7006089E+00
   5.4748117E-04   5.4749837E+04   -1.7000555E+00
   5.5000949E-04   5.4322728E+04   -1.6995026E+00
   5.5254949E-04   5.3899088E+04   -1.6989502E+00
   5.5510123E-04   5.3478888E+04   -1.6983983E+00
   5.5766474E-04   5.3062099E+04   -1.6978469E+00
   5.6024010E-04   5.2648692E+04   -1.6972961E+00
   5.6282734E-04   5.2238638E+04   -1.6967458E+00
   5.6542654E-04   5.1831909E+04   -1.6961961E+00
   5.6803774E-04   5.1428477E+04   -1.6956469E+00
   5.7066099E-04   5.1028314E+04   -1.6950982E+00
   5.7329637E-04   5.0631393E+04   -1.6945501E+00
   5.7594391E-04   5.0237686E+04   -1.6940025E+00
   5.7860368E-04   4.9847167E+04   -1.6934556E+00
   5.8127573E-04   4.9459807E+04   -1.6929091E+00
   5.8396012E-04   4.9075582E+04   -1.6923633E+00
   5.8665691E-04   4.8694463E+04   -1.6918180E+00
   5.8936616E-04   4.8316426E+04   -1.6912734E+00
   5.9208791E-04   4.7941443E+04   -1.6907293E+00
   5.9482223E-04   4.7569490E+04   -1.6901858E+00
   5.9756919E-04   4.7200541E+04   -1.6896428E+00
   6.0032882E-04   4.6834571E+04   -1.6891005E+00
   6.0310120E-04   4.6471554E+04   -1.6885588E+00
   6.0588639E-04   4.6111466E+04   -1.6880178E+00
   6.0868443E-04   4.5754282E+04   -1.6874773E+00
   6.1149540E-04   4.5399978E+04   -1.6869374E+00
   6.1431935E-04   4.5048530E+04   -1.6863982E+00
   6.1715634E-04   4.4699913E+04   -1.6858596E+00
   6.2000644E-04   4.4354104E+04   -1.6853217E+00
   6.2286969E-04   4.4011079E+04   -1.6847844E+00
