#        a       HoverH0(a)       dlogHdloga_of_a(a)
   1.0000000E-04   1.1681751E+06   -1.8822757E+00
   1.0046181E-04   1.1580890E+06   -1.8818605E+00
   1.0092575E-04   1.1480921E+06   -1.8814443E+00
   1.0139184E-04   1.1381838E+06   -1.8810271E+00
   1.0186008E-04   1.1283631E+06   -1.8806088E+00
   1.0233048E-04   1.1186293E+06   -1.8801895E+00
   1.0280305E-04   1.1089816E+06   -1.8797693E+00
   1.0327781E-04   1.0994193E+06   -1.8793480E+00
   1.0375475E-04   1.0899415E+06   -1.8789257E+00
   1.0423390E-04   1.0805476E+06   -1.8785025E+00
   1.0471527E-04   1.0712367E+06   -1.8780782E+00
   1.0519885E-04   1.0620081E+06   -1.8776529E+00
   1.0568467E-04   1.0528611E+06   -1.8772266E+00
   1.0617274E-04   1.0437949E+06   -1.8767993E+00
   1.0666305E-04   1.0348088E+06   -1.8763710E+00
   1.0715563E-04   1.0259021E+06   -1.8759417E+00
   1.0765049E-04   1.0170741E+06   -1.8755114E+00
   1.0814763E-04   1.0083240E+06   -1.8750801E+00
   1.0864707E-04   9.9965127E+05   -1.8746479E+00
   1.0914881E-04   9.9105506E+05   -1.8742146E+00
   1.0965287E-04   9.8253474E+05   -1.8737803E+00
   1.1015926E-04   9.7408962E+05   -1.8733451E+00
   1.1066799E-04   9.6571902E+05   -1.8729088E+00
   1.1117906E-04   9.5742228E+05   -1.8724716E+00
   1.1169250E-04   9.4919874E+05   -1.8720334E+00
   1.1220831E-04   9.4104773E+05   -1.8715941E+00
   1.1272650E-04   9.3296861E+05   -1.8711539E+00
   1.1324708E-04   9.2496072E+05   -1.8707128E+00
   1.1377007E-04   9.1702344E+05   -1.8702706E+00
   1.1429547E-04   9.0915612E+05   -1.8698274E+00
   1.1482330E-04   9.0135815E+05   -1.8693833E+00
   1.1535356E-04   8.9362888E+05   -1.8689382E+00
   1.1588628E-04   8.8596772E+05   -1.8684921E+00
   1.1642145E-04   8.7837404E+05   -1.8680451E+00
   1.1695910E-04   8.7084724E+05   -1.8675970E+00
   1.1749923E-04   8.6338672E+05   -1.8671480E+00
   1.1804185E-04   8.5599189E+05   -1.8666981E+00
   1.1858698E-04   8.4866216E+05   -1.8662471E+00
   1.1913463E-04   8.4139694E+05   -1.8657952E+00
   1.1968481E-04   8.3419565E+05   -1.8653423E+00
   1.2023752E-04   8.2705773E+05   -1.8648885E+00
   1.2079279E-04   8.1998260E+05   -1.8644337E+00
   1.2135063E-04   8.1296971E+05   -1.8639779E+00
   1.2191104E-04   8.0601848E+05   -1.8635212E+00
   1.2247403E-04   7.9912837E+05   -1.8630635E+00
   1.2303963E-04   7.9229884E+05   -1.8626049E+00
   1.2360784E-04   7.8552933E+05   -1.8621453E+00
   1.2417868E-04   7.7881931E+05   -1.8616848E+00
   1.2475215E-04   7.7216825E+05   -1.8612233E+00
   1.2532826E-04   7.6557562E+05   -1.8607608E+00
   1.2590704E-04   7.5904089E+05   -1.8602975E+00
   1.2648850E-04   7.5256355E+05   -1.8598331E+00
   1.2707263E-04   7.4614309E+05   -1.8593679E+00
   1.2765947E-04   7.3977898E+05   -1.8589017E+00
   1.2824901E-04   7.3347074E+05   -1.8584345E+00
   1.2884128E-04   7.2721786E+05   -1.8579665E+00
   1.2943628E-04   7.2101984E+05   -1.8574975E+00
   1.3003403E-04   7.1487619E+05   -1.8570275E+00
   1.3063454E-04   7.0878642E+05   -1.8565567E+00
   1.3123783E-04   7.0275006E+05   -1.8560849E+00
   1.3184390E-04   6.9676662E+05   -1.8556122E+00
   1.3245277E-04   6.9083563E+05   -1.8551385E+00
   1.3306445E-04   6.8495662E+05   -1.8546640E+00
   1.3367895E-04   6.7912913E+05   -1.8541885E+00
   1.3429630E-04   6.7335270E+05   -1.8537121E+00
   1.3491649E-04   6.6762686E+05   -1.8532348E+00
   1.3553955E-04   6.6195117E+05   -1.8527566E+00
   1.3616548E-04   6.5632519E+05   -1.8522775E+00
   1.3679431E-04   6.5074845E+05   -1.8517975E+00
   1.3742604E-04   6.4522053E+05   -1.8513166E+00
   1.3806069E-04   6.3974098E+05   -1.8508348E+00
   1.3869827E-04   6.3430938E+05   -1.8503521E+00
   1.3933879E-04   6.2892530E+05   -1.8498685E+00
   1.3998227E-04   6.2358830E+05   -1.8493840E+00
   1.4062872E-04   6.1829798E+05   -1.8488986E+00
   1.4127816E-04   6.1305391E+05   -1.8484123E+00
   1.4193060E-04   6.0785568E+05   -1.8479251E+00
   1.4258605E-04   6.0270288E+05   -1.8474371E+00
   1.4324453E-04   5.9759511E+05   -1.8469482E+00
   1.4390605E-04   5.9253196E+05   -1.8464584E+00
   1.4457062E-04   5.8751304E+05   -1.8459678E+00
   1.4523826E-04   5.8253794E+05   -1.8454762E+00
   1.4590899E-04   5.7760629E+05   -1.8449838E+00
   1.4658281E-04   5.7271768E+05   -1.8444906E+00
   1.4725974E-04   5.6787174E+05   -1.8439965E+00
   1.4793981E-04   5.6306809E+05   -1.8435015E+00
   1.4862301E-04   5.5830635E+05   -1.8430057E+00
   1.4930936E-04   5.5358614E+05   -1.8425090E+00
   1.4999889E-04   5.4890709E+05   -1.8420115E+00
   1.5069160E-04   5.4426884E+05   -1.8415131E+00
   1.5138751E-04   5.3967103E+05   -1.8410139E+00
   1.5208663E-04   5.3511329E+05   -1.8405138E+00
   1.5278899E-04   5.3059526E+05   -1.8400130E+00
   1.5349458E-04   5.2611660E+05   -1.8395112E+00
   1.5420343E-04   5.2167694E+05   -1.8390087E+00
   1.5491556E-04   5.1727595E+05   -1.8385053E+00
   1.5563098E-04   5.1291328E+05   -1.8380011E+00
   1.5634970E-04   5.0858858E+05   -1.8374961E+00
   1.5707174E-04   5.0430153E+05   -1.8369903E+00
   1.5779711E-04   5.0005177E+05   -1.8364837E+00
   1.5852584E-04   4.9583899E+05   -1.8359762E+00
   1.5925792E-04   4.9166285E+05   -1.8354680E+00
   1.5999339E-04   4.8752302E+05   -1.8349589E+00
   1.6073226E-04   4.8341919E+05   -1.8344491E+00
   1.6147454E-04   4.7935103E+05   -1.8339384E+00
   1.6222024E-04   4.7531822E+05   -1.8334270E+00
   1.6296939E-04   4.7132045E+05   -1.8329148E+00
   1.6372200E-04   4.6735741E+05   -1.8324018E+00
   1.6447809E-04   4.6342879E+05   -1.8318880E+00
   1.6523767E-04   4.5953429E+05   -1.8313734E+00
   1.6600075E-04   4.5567359E+05   -1.8308581E+00
   1.6676736E-04   4.5184640E+05   -1.8303420E+00
   1.6753751E-04   4.4805242E+05   -1.8298251E+00
   1.6831122E-04   4.4429136E+05   -1.8293075E+00
   1.6908849E-04   4.4056292E+05   -1.8287891E+00
   1.6986936E-04   4.3686681E+05   -1.8282699E+00
   1.7065384E-04   4.3320274E+05   -1.8277501E+00
   1.7144193E-04   4.2957044E+05   -1.8272294E+00
   1.7223367E-04   4.2596962E+05   -1.8267080E+00
   1.7302906E-04   4.2239999E+05   -1.8261859E+00
   1.7382813E-04   4.1886129E+05   -1.8256631E+00
   1.7463089E-04   4.1535324E+05   -1.8251395E+00
   1.7543735E-04   4.1187556E+05   -1.8246152E+00
   1.7624754E-04   4.0842798E+05   -1.8240902E+00
   1.7706147E-04   4.0501025E+05   -1.8235644E+00
   1.7787916E-04   4.0162208E+05   -1.8230380E+00
   1.7870062E-04   3.9826323E+05   -1.8225108E+00
   1.7952588E-04   3.9493343E+05   -1.8219829E+00
   1.8035495E-04   3.9163242E+05   -1.8214544E+00
   1.8118785E-04   3.8835995E+05   -1.8209251E+00
   1.8202459E-04   3.8511576E+05   -1.8203951E+00
   1.8286520E-04   3.8189960E+05   -1.8198645E+00
   1.8370969E-04   3.7871124E+05   -1.8193331E+00
   1.8455808E-04   3.7555041E+05   -1.8188011E+00
   1.8541039E-04   3.7241687E+05   -1.8182684E+00
   1.8626663E-04   3.6931039E+05   -1.8177351E+00
   1.8712683E-04   3.6623072E+05   -1.8172010E+00
   1.8799100E-04   3.6317763E+05   -1.8166663E+00
   1.8885917E-04   3.6015087E+05   -1.8161310E+00
   1.8973134E-04   3.5715023E+05   -1.8155950E+00
   1.9060754E-04   3.5417545E+05   -1.8150583E+00
   1.9148778E-04   3.5122633E+05   -1.8145211E+00
   1.9237209E-04   3.4830262E+05   -1.8139831E+00
   1.9326049E-04   3.4540411E+05   -1.8134446E+00
   1.9415299E-04   3.4253057E+05   -1.8129054E+00
   1.9504960E-04   3.3968178E+05   -1.8123655E+00
   1.9595036E-04   3.3685752E+05   -1.8118251E+00
   1.9685528E-04   3.3405758E+05   -1.8112840E+00
   1.9776438E-04   3.3128173E+05   -1.8107423E+00
   1.9867768E-04   3.2852978E+05   -1.8102001E+00
   1.9959519E-04   3.2580149E+05   -1.8096572E+00
   2.0051694E-04   3.2309667E+05   -1.8091137E+00
   2.0144295E-04   3.2041511E+05   -1.8085696E+00
   2.0237324E-04   3.1775661E+05   -1.8080250E+00
   2.0330782E-04   3.1512095E+05   -1.8074797E+00
   2.0424671E-04   3.1250794E+05   -1.8069339E+00
   2.0518995E-04   3.0991737E+05   -1.8063875E+00
   2.0613754E-04   3.0734906E+05   -1.8058405E+00
   2.0708950E-04   3.0480280E+05   -1.8052930E+00
   2.0804586E-04   3.0227839E+05   -1.8047449E+00
   2.0900664E-04   2.9977565E+05   -1.8041963E+00
   2.0997185E-04   2.9729439E+05   -1.8036471E+00
   2.1094152E-04   2.9483441E+05   -1.8030974E+00
   2.1191567E-04   2.9239552E+05   -1.8025471E+00
   2.1289432E-04   2.8997755E+05   -1.8019963E+00
   2.1387749E-04   2.8758030E+05   -1.8014450E+00
   2.1486520E-04   2.8520359E+05   -1.8008931E+00
   2.1585747E-04   2.8284724E+05   -1.8003407E+00
   2.1685432E-04   2.8051108E+05   -1.7997878E+00
   2.1785578E-04   2.7819492E+05   -1.7992344E+00
   2.1886186E-04   2.7589859E+05   -1.7986805E+00
   2.1987259E-04   2.7362191E+05   -1.7981261E+00
   2.2088798E-04   2.7136472E+05   -1.7975713E+00
   2.2190807E-04   2.6912683E+05   -1.7970159E+00
   2.2293286E-04   2.6690808E+05   -1.7964600E+00
   2.2396239E-04   2.6470830E+05   -1.7959037E+00
   2.2499667E-04   2.6252733E+05   -1.7953469E+00
   2.2603573E-04   2.6036499E+05   -1.7947896E+00
   2.2707958E-04   2.5822112E+05   -1.7942319E+00
   2.2812826E-04   2.5609557E+05   -1.7936737E+00
   2.2918178E-04   2.5398816E+05   -1.7931151E+00
   2.3024017E-04   2.5189875E+05   -1.7925560E+00
   2.3130344E-04   2.4982717E+05   -1.7919965E+00
   2.3237162E-04   2.4777326E+05   -1.7914365E+00
   2.3344474E-04   2.4573688E+05   -1.7908761E+00
   2.3452281E-04   2.4371786E+05   -1.7903153E+00
   2.3560586E-04   2.4171605E+05   -1.7897541E+00
   2.3669392E-04   2.3973131E+05   -1.7891925E+00
   2.3778699E-04   2.3776348E+05   -1.7886304E+00
   2.3888512E-04   2.3581241E+05   -1.7880680E+00
   2.3998831E-04   2.3387796E+05   -1.7875051E+00
   2.4109661E-04   2.3195998E+05   -1.7869419E+00
   2.4221001E-04   2.3005833E+05   -1.7863783E+00
   2.4332857E-04   2.2817285E+05   -1.7858143E+00
   2.4445228E-04   2.2630342E+05   -1.7852500E+00
   2.4558119E-04   2.2444989E+05   -1.7846852E+00
   2.4671531E-04   2.2261212E+05   -1.7841201E+00
   2.4785467E-04   2.2078998E+05   -1.7835547E+00
   2.4899928E-04   2.1898331E+05   -1.7829889E+00
   2.5014919E-04   2.1719200E+05   -1.7824228E+00
   2.5130440E-04   2.1541591E+05   -1.7818563E+00
   2.5246495E-04   2.1365489E+05   -1.7812895E+00
   2.5363086E-04   2.1190883E+05   -1.7807223E+00
   2.5480216E-04   2.1017758E+05   -1.7801549E+00
   2.5597886E-04   2.0846102E+05   -1.7795871E+00
   2.5716100E-04   2.0675903E+05   -1.7790190E+00
   2.5834859E-04   2.0507146E+05   -1.7784506E+00
   2.5954168E-04   2.0339821E+05   -1.7778819E+00
   2.6074027E-04   2.0173913E+05   -1.7773129E+00
   2.6194439E-04   2.0009411E+05   -1.7767437E+00
   2.6315408E-04   1.9846303E+05   -1.7761741E+00
   2.6436935E-04   1.9684576E+05   -1.7756043E+00
   2.6559024E-04   1.9524218E+05   -1.7750342E+00
   2.6681676E-04   1.9365217E+05   -1.7744638E+00
   2.6804895E-04   1.9207562E+05   -1.7738932E+00
   2.6928683E-04   1.9051240E+05   -1.7733223E+00
   2.7053042E-04   1.8896240E+05   -1.7727512E+00
   2.7177976E-04   1.8742551E+05   -1.7721799E+00
   2.7303487E-04   1.8590160E+05   -1.7716083E+00
   2.7429577E-04   1.8439058E+05   -1.7710365E+00
   2.7556250E-04   1.8289231E+05   -1.7704644E+00
   2.7683507E-04   1.8140670E+05   -1.7698922E+00
   2.7811353E-04   1.7993363E+05   -1.7693197E+00
   2.7939788E-04   1.7847299E+05   -1.7687470E+00
   2.8068817E-04   1.7702468E+05   -1.7681742E+00
   2.8198442E-04   1.7558858E+05   -1.7676011E+00
   2.8328665E-04   1.7416459E+05   -1.7670279E+00
   2.8459490E-04   1.7275261E+05   -1.7664544E+00
   2.8590919E-04   1.7135253E+05   -1.7658808E+00
   2.8722955E-04   1.6996424E+05   -1.7653071E+00
   2.8855600E-04   1.6858765E+05   -1.7647331E+00
   2.8988859E-04   1.6722265E+05   -1.7641590E+00
   2.9122732E-04   1.6586914E+05   -1.7635848E+00
   2.9257224E-04   1.6452702E+05   -1.7630104E+00
   2.9392337E-04   1.6319619E+05   -1.7624359E+00
   2.9528074E-04   1.6187656E+05   -1.7618612E+00
   2.9664438E-04   1.6056802E+05   -1.7612864E+00
   2.9801431E-04   1.5927048E+05   -1.7607115E+00
   2.9939057E-04   1.5798385E+05   -1.7601365E+00
   3.0077319E-04   1.5670802E+05   -1.7595614E+00
   3.0216219E-04   1.5544291E+05   -1.7589862E+00
   3.0355761E-04   1.5418842E+05   -1.7584109E+00
   3.0495947E-04   1.5294446E+05   -1.7578354E+00
   3.0636780E-04   1.5171094E+05   -1.7572600E+00
   3.0778264E-04   1.5048777E+05   -1.7566844E+00
   3.0920401E-04   1.4927485E+05   -1.7561087E+00
   3.1063195E-04   1.4807210E+05   -1.7555330E+00
   3.1206648E-04   1.4687944E+05   -1.7549573E+00
   3.1350764E-04   1.4569676E+05   -1.7543814E+00
   3.1495545E-04   1.4452400E+05   -1.7538056E+00
   3.1640994E-04   1.4336105E+05   -1.7532297E+00
   3.1787116E-04   1.4220784E+05   -1.7526537E+00
   3.1933912E-04   1.4106428E+05   -1.7520777E+00
   3.2081386E-04   1.3993029E+05   -1.7515017E+00
   3.2229541E-04   1.3880578E+05   -1.7509257E+00
   3.2378381E-04   1.3769067E+05   -1.7503497E+00
   3.2527908E-04   1.3658489E+05   -1.7497737E+00
   3.2678125E-04   1.3548834E+05   -1.7491976E+00
   3.2829036E-04   1.3440095E+05   -1.7486216E+00
   3.2980644E-04   1.3332265E+05   -1.7480456E+00
   3.3132952E-04   1.3225335E+05   -1.7474696E+00
   3.3285963E-04   1.3119297E+05   -1.7468937E+00
   3.3439681E-04   1.3014144E+05   -1.7463177E+00
   3.3594109E-04   1.2909868E+05   -1.7457419E+00
   3.3749250E-04   1.2806461E+05   -1.7451660E+00
   3.3905108E-04   1.2703917E+05   -1.7445902E+00
   3.4061685E-04   1.2602227E+05   -1.7440145E+00
   3.4218986E-04   1.2501384E+05   -1.7434388E+00
   3.4377013E-04   1.2401381E+05   -1.7428632E+00
   3.4535769E-04   1.2302210E+05   -1.7422877E+00
   3.4695259E-04   1.2203865E+05   -1.7417122E+00
   3.4855485E-04   1.2106339E+05   -1.7411369E+00
   3.5016452E-04   1.2009623E+05   -1.7405616E+00
   3.5178161E-04   1.1913712E+05   -1.7399864E+00
   3.5340618E-04   1.1818598E+05   -1.7394114E+00
   3.5503824E-04   1.1724274E+05   -1.7388364E+00
   3.5667785E-04   1.1630734E+05   -1.7382616E+00
   3.5832502E-04   1.1537971E+05   -1.7376869E+00
   3.5997981E-04   1.1445978E+05   -1.7371123E+00
   3.6164223E-04   1.1354748E+05   -1.7365379E+00
   3.6331233E-04   1.1264276E+05   -1.7359636E+00
   3.6499015E-04   1.1174554E+05   -1.7353894E+00
   3.6667571E-04   1.1085575E+05   -1.7348154E+00
   3.6836906E-04   1.0997335E+05   -1.7342416E+00
   3.7007022E-04   1.0909826E+05   -1.7336679E+00
   3.7177925E-04   1.0823041E+05   -1.7330944E+00
   3.7349616E-04   1.0736975E+05   -1.7325210E+00
   3.7522101E-04   1.0651622E+05   -1.7319479E+00
   3.7695382E-04   1.0566976E+05   -1.7313750E+00
   3.7869463E-04   1.0483029E+05   -1.7308022E+00
   3.8044348E-04   1.0399777E+05   -1.7302296E+00
   3.8220041E-04   1.0317213E+05   -1.7296573E+00
   3.8396545E-04   1.0235332E+05   -1.7290852E+00
   3.8573864E-04   1.0154128E+05   -1.7285132E+00
   3.8752002E-04   1.0073594E+05   -1.7279416E+00
   3.8930963E-04   9.9937249E+04   -1.7273701E+00
   3.9110750E-04   9.9145154E+04   -1.7267989E+00
   3.9291368E-04   9.8359597E+04   -1.7262279E+00
   3.9472820E-04   9.7580520E+04   -1.7256572E+00
   3.9655109E-04   9.6807868E+04   -1.7250867E+00
   3.9838241E-04   9.6041587E+04   -1.7245165E+00
   4.0022218E-04   9.5281621E+04   -1.7239466E+00
   4.0207045E-04   9.4527918E+04   -1.7233769E+00
   4.0392725E-04   9.3780422E+04   -1.7228075E+00
   4.0579263E-04   9.3039082E+04   -1.7222384E+00
   4.0766662E-04   9.2303843E+04   -1.7216696E+00
   4.0954927E-04   9.1574655E+04   -1.7211011E+00
   4.1144061E-04   9.0851465E+04   -1.7205328E+00
   4.1334068E-04   9.0134223E+04   -1.7199649E+00
   4.1524953E-04   8.9422876E+04   -1.7193973E+00
   4.1716720E-04   8.8717376E+04   -1.7188300E+00
   4.1909372E-04   8.8017671E+04   -1.7182631E+00
   4.2102914E-04   8.7323713E+04   -1.7176965E+00
   4.2297350E-04   8.6635453E+04   -1.7171302E+00
   4.2492683E-04   8.5952841E+04   -1.7165642E+00
   4.2688919E-04   8.5275831E+04   -1.7159986E+00
   4.2886061E-04   8.4604373E+04   -1.7154334E+00
   4.3084113E-04   8.3938421E+04   -1.7148685E+00
   4.3283080E-04   8.3277927E+04   -1.7143040E+00
   4.3482966E-04   8.2622845E+04   -1.7137398E+00
   4.3683775E-04   8.1973130E+04   -1.7131761E+00
   4.3885511E-04   8.1328735E+04   -1.7126127E+00
   4.4088179E-04   8.0689614E+04   -1.7120497E+00
   4.4291783E-04   8.0055724E+04   -1.7114871E+00
   4.4496327E-04   7.9427020E+04   -1.7109248E+00
   4.4701816E-04   7.8803456E+04   -1.7103630E+00
   4.4908253E-04   7.8184991E+04   -1.7098016E+00
   4.5115644E-04   7.7571580E+04   -1.7092406E+00
   4.5323993E-04   7.6963181E+04   -1.7086801E+00
   4.5533304E-04   7.6359750E+04   -1.7081199E+00
   4.5743582E-04   7.5761246E+04   -1.7075602E+00
   4.5954830E-04   7.5167627E+04   -1.7070010E+00
   4.6167054E-04   7.4578852E+04   -1.7064421E+00
   4.6380259E-04   7.3994878E+04   -1.7058837E+00
   4.6594448E-04   7.3415666E+04   -1.7053258E+00
   4.6809626E-04   7.2841175E+04   -1.7047683E+00
   4.7025797E-04   7.2271365E+04   -1.7042113E+00
   4.7242967E-04   7.1706197E+04   -1.7036548E+00
   4.7461140E-04   7.1145630E+04   -1.7030987E+00
   4.7680321E-04   7.0589626E+04   -1.7025431E+00
   4.7900514E-04   7.0038147E+04   -1.7019880E+00
   4.8121723E-04   6.9491154E+04   -1.7014334E+00
   4.8343954E-04   6.8948609E+04   -1.7008793E+00
   4.8567212E-04   6.8410475E+04   -1.7003257E+00
   4.8791500E-04   6.7876714E+04   -1.6997726E+00
   4.9016825E-04   6.7347288E+04   -1.6992200E+00
   4.9243189E-04   6.6822163E+04   -1.6986679E+00
   4.9470600E-04   6.6301300E+04   -1.6981163E+00
   4.9699060E-04   6.5784664E+04   -1.6975653E+00
   4.9928575E-04   6.5272220E+04   -1.6970148E+00
   5.0159151E-04   6.4763932E+04   -1.6964648E+00
   5.0390791E-04   6.4259765E+04   -1.6959154E+00
   5.0623501E-04   6.3759683E+04   -1.6953665E+00
   5.0857286E-04   6.3263654E+04   -1.6948182E+00
   5.1092150E-04   6.2771642E+04   -1.6942704E+00
   5.1328099E-04   6.2283613E+04   -1.6937232E+00
   5.1565137E-04   6.1799535E+04   -1.6931765E+00
   5.1803270E-04   6.1319373E+04   -1.6926305E+00
   5.2042503E-04   6.0843095E+04   -1.6920850E+00
   5.2282841E-04   6.0370668E+04   -1.6915400E+00
   5.2524289E-04   5.9902059E+04   -1.6909957E+00
   5.2766851E-04   5.9437237E+04   -1.6904520E+00
   5.3010534E-04   5.8976169E+04   -1.6899088E+00
   5.3255342E-04   5.8518825E+04   -1.6893663E+00
   5.3501281E-04   5.8065172E+04   -1.6888243E+00
   5.3748356E-04   5.7615179E+04   -1.6882830E+00
   5.3996571E-04   5.7168817E+04   -1.6877423E+00
   5.4245933E-04   5.6726054E+04   -1.6872022E+00
   5.4496446E-04   5.6286860E+04   -1.6866627E+00
   5.4748117E-04   5.5851205E+04   -1.6861238E+00
   5.5000949E-04   5.5419059E+04   -1.6855856E+00
   5.5254949E-04   5.4990394E+04   -1.6850480E+00
   5.5510123E-04   5.4565179E+04   -1.6845111E+00
   5.5766474E-04   5.4143386E+04   -1.6839748E+00
   5.6024010E-04   5.3724987E+04   -1.6834392E+00
   5.6282734E-04   5.3309952E+04   -1.6829042E+00
   5.6542654E-04   5.2898253E+04   -1.6823699E+00
   5.6803774E-04   5.2489863E+04   -1.6818362E+00
   5.7066099E-04   5.2084754E+04   -1.6813032E+00
   5.7329637E-04   5.1682899E+04   -1.6807709E+00
   5.7594391E-04   5.1284269E+04   -1.6802392E+00
   5.7860368E-04   5.0888839E+04   -1.6797083E+00
   5.8127573E-04   5.0496582E+04   -1.6791780E+00
   5.8396012E-04   5.0107470E+04   -1.6786484E+00
   5.8665691E-04   4.9721478E+04   -1.6781195E+00
   5.8936616E-04   4.9338579E+04   -1.6775913E+00
   5.9208791E-04   4.8958748E+04   -1.6770639E+00
   5.9482223E-04   4.8581959E+04   -1.6765371E+00
   5.9756919E-04   4.8208187E+04   -1.6760110E+00
   6.0032882E-04   4.7837407E+04   -1.6754856E+00
   6.0310120E-04   4.7469593E+04   -1.6749610E+00
   6.0588639E-04   4.7104720E+04   -1.6744371E+00
   6.0868443E-04   4.6742766E+04   -1.6739139E+00
   6.1149540E-04   4.6383704E+04   -1.6733915E+00
   6.1431935E-04   4.6027511E+04   -1.6728698E+00
   6.1715634E-04   4.5674163E+04   -1.6723488E+00
   6.2000644E-04   4.5323637E+04   -1.6718286E+00
   6.2286969E-04   4.4975908E+04   -1.6713091E+00
