#        a       HoverH0(a)       dlogHdloga_of_a(a)
   1.0000000E-04   1.1487720E+06   -1.8633795E+00
   1.0046181E-04   1.1389526E+06   -1.8629216E+00
   1.0092575E-04   1.1292196E+06   -1.8624627E+00
   1.0139184E-04   1.1195721E+06   -1.8620028E+00
   1.0186008E-04   1.1100095E+06   -1.8615420E+00
   1.0233048E-04   1.1005308E+06   -1.8610802E+00
   1.0280305E-04   1.0911354E+06   -1.8606175E+00
   1.0327781E-04   1.0818225E+06   -1.8601538E+00
   1.0375475E-04   1.0725914E+06   -1.8596892E+00
   1.0423390E-04   1.0634413E+06   -1.8592237E+00
   1.0471527E-04   1.0543716E+06   -1.8587572E+00
   1.0519885E-04   1.0453814E+06   -1.8582897E+00
   1.0568467E-04   1.0364702E+06   -1.8578214E+00
   1.0617274E-04   1.0276371E+06   -1.8573521E+00
   1.0666305E-04   1.0188815E+06   -1.8568819E+00
   1.0715563E-04   1.0102027E+06   -1.8564107E+00
   1.0765049E-04   1.0016000E+06   -1.8559387E+00
   1.0814763E-04   9.9307275E+05   -1.8554657E+00
   1.0864707E-04   9.8462022E+05   -1.8549918E+00
   1.0914881E-04   9.7624177E+05   -1.8545169E+00
   1.0965287E-04   9.6793674E+05   -1.8540412E+00
   1.1015926E-04   9.5970446E+05   -1.8535645E+00
   1.1066799E-04   9.5154429E+05   -1.8530870E+00
   1.1117906E-04   9.4345558E+05   -1.8526085E+00
   1.1169250E-04   9.3543769E+05   -1.8521291E+00
   1.1220831E-04   9.2749000E+05   -1.8516488E+00
   1.1272650E-04   9.1961186E+05   -1.8511676E+00
   1.1324708E-04   9.1180267E+05   -1.8506856E+00
   1.1377007E-04   9.0406180E+05   -1.8502026E+00
   1.1429547E-04   8.9638865E+05   -1.8497187E+00
   1.1482330E-04   8.8878260E+05   -1.8492339E+00
   1.1535356E-04   8.8124307E+05   -1.8487483E+00
   1.1588628E-04   8.7376945E+05   -1.8482618E+00
   1.1642145E-04   8.6636115E+05   -1.8477743E+00
   1.1695910E-04   8.5901760E+05   -1.8472860E+00
   1.1749923E-04   8.5173821E+05   -1.8467969E+00
   1.1804185E-04   8.4452241E+05   -1.8463068E+00
   1.1858698E-04   8.3736963E+05   -1.8458159E+00
   1.1913463E-04   8.3027932E+05   -1.8453241E+00
   1.1968481E-04   8.2325091E+05   -1.8448315E+00
   1.2023752E-04   8.1628385E+05   -1.8443380E+00
   1.2079279E-04   8.0937759E+05   -1.8438436E+00
   1.2135063E-04   8.0253160E+05   -1.8433484E+00
   1.2191104E-04   7.9574533E+05   -1.8428523E+00
   1.2247403E-04   7.8901824E+05   -1.8423553E+00
   1.2303963E-04   7.8234983E+05   -1.8418576E+00
   1.2360784E-04   7.7573954E+05   -1.8413589E+00
   1.2417868E-04   7.6918688E+05   -1.8408595E+00
   1.2475215E-04   7.6269133E+05   -1.8403592E+00
   1.2532826E-04   7.5625237E+05   -1.8398581E+00
   1.2590704E-04   7.4986951E+05   -1.8393561E+00
   1.2648850E-04   7.4354224E+05   -1.8388533E+00
   1.2707263E-04   7.3727007E+05   -1.8383497E+00
   1.2765947E-04   7.3105250E+05   -1.8378453E+00
   1.2824901E-04   7.2488906E+05   -1.8373400E+00
   1.2884128E-04   7.1877925E+05   -1.8368339E+00
   1.2943628E-04   7.1272261E+05   -1.8363271E+00
   1.3003403E-04   7.0671865E+05   -1.8358194E+00
   1.3063454E-04   7.0076691E+05   -1.8353109E+00
   1.3123783E-04   6.9486692E+05   -1.8348016E+00
   1.3184390E-04   6.8901822E+05   -1.8342915E+00
   1.3245277E-04   6.8322036E+05   -1.8337806E+00
   1.3306445E-04   6.7747288E+05   -1.8332690E+00
   1.3367895E-04   6.7177534E+05   -1.8327565E+00
   1.3429630E-04   6.6612729E+05   -1.8322433E+00
   1.3491649E-04   6.6052828E+05   -1.8317293E+00
   1.3553955E-04   6.5497789E+05   -1.8312145E+00
   1.3616548E-04   6.4947568E+05   -1.8306989E+00
   1.3679431E-04   6.4402123E+05   -1.8301826E+00
   1.3742604E-04   6.3861410E+05   -1.8296655E+00
   1.3806069E-04   6.3325388E+05   -1.8291476E+00
   1.3869827E-04   6.2794016E+05   -1.8286290E+00
   1.3933879E-04   6.2267250E+05   -1.8281097E+00
   1.3998227E-04   6.1745052E+05   -1.8275896E+00
   1.4062872E-04   6.1227380E+05   -1.8270687E+00
   1.4127816E-04   6.0714193E+05   -1.8265471E+00
   1.4193060E-04   6.0205453E+05   -1.8260248E+00
   1.4258605E-04   5.9701120E+05   -1.8255017E+00
   1.4324453E-04   5.9201154E+05   -1.8249779E+00
   1.4390605E-04   5.8705516E+05   -1.8244534E+00
   1.4457062E-04   5.8214169E+05   -1.8239282E+00
   1.4523826E-04   5.7727075E+05   -1.8234022E+00
   1.4590899E-04   5.7244195E+05   -1.8228756E+00
   1.4658281E-04   5.6765492E+05   -1.8223482E+00
   1.4725974E-04   5.6290929E+05   -1.8218201E+00
   1.4793981E-04   5.5820469E+05   -1.8212913E+00
   1.4862301E-04   5.5354076E+05   -1.8207619E+00
   1.4930936E-04   5.4891714E+05   -1.8202317E+00
   1.4999889E-04   5.4433346E+05   -1.8197008E+00
   1.5069160E-04   5.3978939E+05   -1.8191693E+00
   1.5138751E-04   5.3528456E+05   -1.8186371E+00
   1.5208663E-04   5.3081863E+05   -1.8181042E+00
   1.5278899E-04   5.2639125E+05   -1.8175707E+00
   1.5349458E-04   5.2200208E+05   -1.8170364E+00
   1.5420343E-04   5.1765079E+05   -1.8165016E+00
   1.5491556E-04   5.1333703E+05   -1.8159660E+00
   1.5563098E-04   5.0906048E+05   -1.8154298E+00
   1.5634970E-04   5.0482081E+05   -1.8148930E+00
   1.5707174E-04   5.0061768E+05   -1.8143555E+00
   1.5779711E-04   4.9645078E+05   -1.8138174E+00
   1.5852584E-04   4.9231978E+05   -1.8132787E+00
   1.5925792E-04   4.8822437E+05   -1.8127393E+00
   1.5999339E-04   4.8416423E+05   -1.8121993E+00
   1.6073226E-04   4.8013905E+05   -1.8116587E+00
   1.6147454E-04   4.7614852E+05   -1.8111174E+00
   1.6222024E-04   4.7219234E+05   -1.8105756E+00
   1.6296939E-04   4.6827019E+05   -1.8100331E+00
   1.6372200E-04   4.6438179E+05   -1.8094901E+00
   1.6447809E-04   4.6052683E+05   -1.8089464E+00
   1.6523767E-04   4.5670501E+05   -1.8084022E+00
   1.6600075E-04   4.5291605E+05   -1.8078574E+00
   1.6676736E-04   4.4915965E+05   -1.8073119E+00
   1.6753751E-04   4.4543552E+05   -1.8067660E+00
   1.6831122E-04   4.4174338E+05   -1.8062194E+00
   1.6908849E-04   4.3808295E+05   -1.8056723E+00
   1.6986936E-04   4.3445395E+05   -1.8051246E+00
   1.7065384E-04   4.3085610E+05   -1.8045764E+00
   1.7144193E-04   4.2728912E+05   -1.8040276E+00
   1.7223367E-04   4.2375274E+05   -1.8034782E+00
   1.7302906E-04   4.2024670E+05   -1.8029283E+00
   1.7382813E-04   4.1677072E+05   -1.8023779E+00
   1.7463089E-04   4.1332454E+05   -1.8018270E+00
   1.7543735E-04   4.0990790E+05   -1.8012755E+00
   1.7624754E-04   4.0652054E+05   -1.8007235E+00
   1.7706147E-04   4.0316219E+05   -1.8001710E+00
   1.7787916E-04   3.9983260E+05   -1.7996179E+00
   1.7870062E-04   3.9653153E+05   -1.7990644E+00
   1.7952588E-04   3.9325871E+05   -1.7985104E+00
   1.8035495E-04   3.9001390E+05   -1.7979558E+00
   1.8118785E-04   3.8679685E+05   -1.7974008E+00
   1.8202459E-04   3.8360732E+05   -1.7968453E+00
   1.8286520E-04   3.8044506E+05   -1.7962893E+00
   1.8370969E-04   3.7730984E+05   -1.7957329E+00
   1.8455808E-04   3.7420141E+05   -1.7951759E+00
   1.8541039E-04   3.7111955E+05   -1.7946185E+00
   1.8626663E-04   3.6806402E+05   -1.7940607E+00
   1.8712683E-04   3.6503458E+05   -1.7935024E+00
   1.8799100E-04   3.6203100E+05   -1.7929436E+00
   1.8885917E-04   3.5905307E+05   -1.7923844E+00
   1.8973134E-04   3.5610055E+05   -1.7918248E+00
   1.9060754E-04   3.5317321E+05   -1.7912647E+00
   1.9148778E-04   3.5027085E+05   -1.7907042E+00
   1.9237209E-04   3.4739323E+05   -1.7901433E+00
   1.9326049E-04   3.4454015E+05   -1.7895820E+00
   1.9415299E-04   3.4171138E+05   -1.7890202E+00
   1.9504960E-04   3.3890672E+05   -1.7884581E+00
   1.9595036E-04   3.3612595E+05   -1.7878956E+00
   1.9685528E-04   3.3336885E+05   -1.7873326E+00
   1.9776438E-04   3.3063523E+05   -1.7867693E+00
   1.9867768E-04   3.2792488E+05   -1.7862056E+00
   1.9959519E-04   3.2523759E+05   -1.7856415E+00
   2.0051694E-04   3.2257316E+05   -1.7850771E+00
   2.0144295E-04   3.1993139E+05   -1.7845122E+00
   2.0237324E-04   3.1731208E+05   -1.7839471E+00
   2.0330782E-04   3.1471504E+05   -1.7833815E+00
   2.0424671E-04   3.1214007E+05   -1.7828156E+00
   2.0518995E-04   3.0958697E+05   -1.7822494E+00
   2.0613754E-04   3.0705555E+05   -1.7816829E+00
   2.0708950E-04   3.0454563E+05   -1.7811160E+00
   2.0804586E-04   3.0205701E+05   -1.7805487E+00
   2.0900664E-04   2.9958952E+05   -1.7799812E+00
   2.0997185E-04   2.9714296E+05   -1.7794134E+00
   2.1094152E-04   2.9471715E+05   -1.7788452E+00
   2.1191567E-04   2.9231190E+05   -1.7782767E+00
   2.1289432E-04   2.8992705E+05   -1.7777080E+00
   2.1387749E-04   2.8756241E+05   -1.7771389E+00
   2.1486520E-04   2.8521780E+05   -1.7765696E+00
   2.1585747E-04   2.8289305E+05   -1.7760000E+00
   2.1685432E-04   2.8058799E+05   -1.7754301E+00
   2.1785578E-04   2.7830243E+05   -1.7748599E+00
   2.1886186E-04   2.7603622E+05   -1.7742895E+00
   2.1987259E-04   2.7378919E+05   -1.7737189E+00
   2.2088798E-04   2.7156116E+05   -1.7731479E+00
   2.2190807E-04   2.6935197E+05   -1.7725768E+00
   2.2293286E-04   2.6716146E+05   -1.7720054E+00
   2.2396239E-04   2.6498945E+05   -1.7714337E+00
   2.2499667E-04   2.6283580E+05   -1.7708619E+00
   2.2603573E-04   2.6070034E+05   -1.7702898E+00
   2.2707958E-04   2.5858291E+05   -1.7697175E+00
   2.2812826E-04   2.5648336E+05   -1.7691450E+00
   2.2918178E-04   2.5440152E+05   -1.7685723E+00
   2.3024017E-04   2.5233725E+05   -1.7679994E+00
   2.3130344E-04   2.5029038E+05   -1.7674263E+00
   2.3237162E-04   2.4826078E+05   -1.7668530E+00
   2.3344474E-04   2.4624829E+05   -1.7662795E+00
   2.3452281E-04   2.4425275E+05   -1.7657059E+00
   2.3560586E-04   2.4227403E+05   -1.7651321E+00
   2.3669392E-04   2.4031197E+05   -1.7645582E+00
   2.3778699E-04   2.3836643E+05   -1.7639840E+00
   2.3888512E-04   2.3643727E+05   -1.7634098E+00
   2.3998831E-04   2.3452435E+05   -1.7628354E+00
   2.4109661E-04   2.3262751E+05   -1.7622609E+00
   2.4221001E-04   2.3074663E+05   -1.7616862E+00
   2.4332857E-04   2.2888156E+05   -1.7611114E+00
   2.4445228E-04   2.2703217E+05   -1.7605365E+00
   2.4558119E-04   2.2519831E+05   -1.7599615E+00
   2.4671531E-04   2.2337987E+05   -1.7593863E+00
   2.4785467E-04   2.2157669E+05   -1.7588111E+00
   2.4899928E-04   2.1978865E+05   -1.7582358E+00
   2.5014919E-04   2.1801562E+05   -1.7576604E+00
   2.5130440E-04   2.1625746E+05   -1.7570849E+00
   2.5246495E-04   2.1451406E+05   -1.7565093E+00
   2.5363086E-04   2.1278527E+05   -1.7559337E+00
   2.5480216E-04   2.1107097E+05   -1.7553580E+00
   2.5597886E-04   2.0937104E+05   -1.7547822E+00
   2.5716100E-04   2.0768535E+05   -1.7542064E+00
   2.5834859E-04   2.0601378E+05   -1.7536306E+00
   2.5954168E-04   2.0435621E+05   -1.7530547E+00
   2.6074027E-04   2.0271251E+05   -1.7524787E+00
   2.6194439E-04   2.0108256E+05   -1.7519028E+00
   2.6315408E-04   1.9946625E+05   -1.7513268E+00
   2.6436935E-04   1.9786346E+05   -1.7507508E+00
   2.6559024E-04   1.9627407E+05   -1.7501748E+00
   2.6681676E-04   1.9469796E+05   -1.7495988E+00
   2.6804895E-04   1.9313502E+05   -1.7490228E+00
   2.6928683E-04   1.9158513E+05   -1.7484469E+00
   2.7053042E-04   1.9004819E+05   -1.7478709E+00
   2.7177976E-04   1.8852408E+05   -1.7472949E+00
   2.7303487E-04   1.8701268E+05   -1.7467190E+00
   2.7429577E-04   1.8551390E+05   -1.7461431E+00
   2.7556250E-04   1.8402762E+05   -1.7455673E+00
   2.7683507E-04   1.8255372E+05   -1.7449915E+00
   2.7811353E-04   1.8109211E+05   -1.7444158E+00
   2.7939788E-04   1.7964269E+05   -1.7438401E+00
   2.8068817E-04   1.7820533E+05   -1.7432645E+00
   2.8198442E-04   1.7677994E+05   -1.7426889E+00
   2.8328665E-04   1.7536642E+05   -1.7421134E+00
   2.8459490E-04   1.7396467E+05   -1.7415381E+00
   2.8590919E-04   1.7257457E+05   -1.7409628E+00
   2.8722955E-04   1.7119604E+05   -1.7403876E+00
   2.8855600E-04   1.6982897E+05   -1.7398125E+00
   2.8988859E-04   1.6847326E+05   -1.7392375E+00
   2.9122732E-04   1.6712882E+05   -1.7386626E+00
   2.9257224E-04   1.6579555E+05   -1.7380878E+00
   2.9392337E-04   1.6447334E+05   -1.7375132E+00
   2.9528074E-04   1.6316212E+05   -1.7369387E+00
   2.9664438E-04   1.6186177E+05   -1.7363643E+00
   2.9801431E-04   1.6057221E+05   -1.7357901E+00
   2.9939057E-04   1.5929335E+05   -1.7352160E+00
   3.0077319E-04   1.5802510E+05   -1.7346421E+00
   3.0216219E-04   1.5676735E+05   -1.7340683E+00
   3.0355761E-04   1.5552003E+05   -1.7334948E+00
   3.0495947E-04   1.5428303E+05   -1.7329213E+00
   3.0636780E-04   1.5305628E+05   -1.7323481E+00
   3.0778264E-04   1.5183969E+05   -1.7317751E+00
   3.0920401E-04   1.5063316E+05   -1.7312022E+00
   3.1063195E-04   1.4943662E+05   -1.7306295E+00
   3.1206648E-04   1.4824997E+05   -1.7300571E+00
   3.1350764E-04   1.4707313E+05   -1.7294849E+00
   3.1495545E-04   1.4590602E+05   -1.7289128E+00
   3.1640994E-04   1.4474855E+05   -1.7283410E+00
   3.1787116E-04   1.4360065E+05   -1.7277694E+00
   3.1933912E-04   1.4246222E+05   -1.7271981E+00
   3.2081386E-04   1.4133319E+05   -1.7266270E+00
   3.2229541E-04   1.4021347E+05   -1.7260561E+00
   3.2378381E-04   1.3910299E+05   -1.7254855E+00
   3.2527908E-04   1.3800167E+05   -1.7249152E+00
   3.2678125E-04   1.3690943E+05   -1.7243451E+00
   3.2829036E-04   1.3582619E+05   -1.7237753E+00
   3.2980644E-04   1.3475187E+05   -1.7232057E+00
   3.3132952E-04   1.3368640E+05   -1.7226364E+00
   3.3285963E-04   1.3262971E+05   -1.7220675E+00
   3.3439681E-04   1.3158171E+05   -1.7214988E+00
   3.3594109E-04   1.3054233E+05   -1.7209304E+00
   3.3749250E-04   1.2951151E+05   -1.7203623E+00
   3.3905108E-04   1.2848916E+05   -1.7197945E+00
   3.4061685E-04   1.2747521E+05   -1.7192271E+00
   3.4218986E-04   1.2646960E+05   -1.7186599E+00
   3.4377013E-04   1.2547224E+05   -1.7180931E+00
   3.4535769E-04   1.2448308E+05   -1.7175267E+00
   3.4695259E-04   1.2350204E+05   -1.7169605E+00
   3.4855485E-04   1.2252904E+05   -1.7163947E+00
   3.5016452E-04   1.2156403E+05   -1.7158293E+00
   3.5178161E-04   1.2060694E+05   -1.7152642E+00
   3.5340618E-04   1.1965769E+05   -1.7146995E+00
   3.5503824E-04   1.1871622E+05   -1.7141351E+00
   3.5667785E-04   1.1778247E+05   -1.7135711E+00
   3.5832502E-04   1.1685636E+05   -1.7130075E+00
   3.5997981E-04   1.1593784E+05   -1.7124443E+00
   3.6164223E-04   1.1502683E+05   -1.7118814E+00
   3.6331233E-04   1.1412328E+05   -1.7113190E+00
   3.6499015E-04   1.1322712E+05   -1.7107569E+00
   3.6667571E-04   1.1233828E+05   -1.7101953E+00
   3.6836906E-04   1.1145672E+05   -1.7096341E+00
   3.7007022E-04   1.1058235E+05   -1.7090732E+00
   3.7177925E-04   1.0971513E+05   -1.7085129E+00
   3.7349616E-04   1.0885499E+05   -1.7079529E+00
   3.7522101E-04   1.0800188E+05   -1.7073934E+00
   3.7695382E-04   1.0715572E+05   -1.7068343E+00
   3.7869463E-04   1.0631647E+05   -1.7062756E+00
   3.8044348E-04   1.0548406E+05   -1.7057174E+00
   3.8220041E-04   1.0465844E+05   -1.7051597E+00
   3.8396545E-04   1.0383955E+05   -1.7046024E+00
   3.8573864E-04   1.0302733E+05   -1.7040456E+00
   3.8752002E-04   1.0222173E+05   -1.7034892E+00
   3.8930963E-04   1.0142268E+05   -1.7029334E+00
   3.9110750E-04   1.0063014E+05   -1.7023780E+00
   3.9291368E-04   9.9844044E+04   -1.7018231E+00
   3.9472820E-04   9.9064344E+04   -1.7012687E+00
   3.9655109E-04   9.8290984E+04   -1.7007148E+00
   3.9838241E-04   9.7523910E+04   -1.7001613E+00
   4.0022218E-04   9.6763069E+04   -1.6996084E+00
   4.0207045E-04   9.6008408E+04   -1.6990560E+00
   4.0392725E-04   9.5259875E+04   -1.6985042E+00
   4.0579263E-04   9.4517419E+04   -1.6979528E+00
   4.0766662E-04   9.3780987E+04   -1.6974020E+00
   4.0954927E-04   9.3050530E+04   -1.6968517E+00
   4.1144061E-04   9.2325996E+04   -1.6963020E+00
   4.1334068E-04   9.1607335E+04   -1.6957527E+00
   4.1524953E-04   9.0894498E+04   -1.6952041E+00
   4.1716720E-04   9.0187436E+04   -1.6946560E+00
   4.1909372E-04   8.9486100E+04   -1.6941084E+00
   4.2102914E-04   8.8790441E+04   -1.6935614E+00
   4.2297350E-04   8.8100413E+04   -1.6930150E+00
   4.2492683E-04   8.7415967E+04   -1.6924692E+00
   4.2688919E-04   8.6737056E+04   -1.6919239E+00
   4.2886061E-04   8.6063635E+04   -1.6913792E+00
   4.3084113E-04   8.5395656E+04   -1.6908351E+00
   4.3283080E-04   8.4733074E+04   -1.6902916E+00
   4.3482966E-04   8.4075843E+04   -1.6897487E+00
   4.3683775E-04   8.3423919E+04   -1.6892064E+00
   4.3885511E-04   8.2777256E+04   -1.6886647E+00
   4.4088179E-04   8.2135811E+04   -1.6881236E+00
   4.4291783E-04   8.1499539E+04   -1.6875831E+00
   4.4496327E-04   8.0868398E+04   -1.6870433E+00
   4.4701816E-04   8.0242343E+04   -1.6865040E+00
   4.4908253E-04   7.9621333E+04   -1.6859654E+00
   4.5115644E-04   7.9005325E+04   -1.6854275E+00
   4.5323993E-04   7.8394277E+04   -1.6848901E+00
   4.5533304E-04   7.7788148E+04   -1.6843535E+00
   4.5743582E-04   7.7186896E+04   -1.6838174E+00
   4.5954830E-04   7.6590481E+04   -1.6832820E+00
   4.6167054E-04   7.5998861E+04   -1.6827473E+00
   4.6380259E-04   7.5411997E+04   -1.6822133E+00
   4.6594448E-04   7.4829848E+04   -1.6816799E+00
   4.6809626E-04   7.4252376E+04   -1.6811471E+00
   4.7025797E-04   7.3679541E+04   -1.6806151E+00
   4.7242967E-04   7.3111304E+04   -1.6800837E+00
   4.7461140E-04   7.2547627E+04   -1.6795530E+00
   4.7680321E-04   7.1988472E+04   -1.6790230E+00
   4.7900514E-04   7.1433801E+04   -1.6784937E+00
   4.8121723E-04   7.0883576E+04   -1.6779651E+00
   4.8343954E-04   7.0337761E+04   -1.6774372E+00
   4.8567212E-04   6.9796319E+04   -1.6769100E+00
   4.8791500E-04   6.9259212E+04   -1.6763835E+00
   4.9016825E-04   6.8726405E+04   -1.6758577E+00
   4.9243189E-04   6.8197862E+04   -1.6753326E+00
   4.9470600E-04   6.7673548E+04   -1.6748083E+00
   4.9699060E-04   6.7153427E+04   -1.6742846E+00
   4.9928575E-04   6.6637463E+04   -1.6737617E+00
   5.0159151E-04   6.6125624E+04   -1.6732396E+00
   5.0390791E-04   6.5617873E+04   -1.6727182E+00
   5.0623501E-04   6.5114178E+04   -1.6721975E+00
   5.0857286E-04   6.4614503E+04   -1.6716775E+00
   5.1092150E-04   6.4118817E+04   -1.6711583E+00
   5.1328099E-04   6.3627086E+04   -1.6706399E+00
   5.1565137E-04   6.3139277E+04   -1.6701222E+00
   5.1803270E-04   6.2655356E+04   -1.6696053E+00
   5.2042503E-04   6.2175293E+04   -1.6690892E+00
   5.2282841E-04   6.1699054E+04   -1.6685738E+00
   5.2524289E-04   6.1226609E+04   -1.6680592E+00
   5.2766851E-04   6.0757925E+04   -1.6675453E+00
   5.3010534E-04   6.0292971E+04   -1.6670323E+00
   5.3255342E-04   5.9831717E+04   -1.6665200E+00
   5.3501281E-04   5.9374132E+04   -1.6660085E+00
   5.3748356E-04   5.8920185E+04   -1.6654978E+00
   5.3996571E-04   5.8469845E+04   -1.6649879E+00
   5.4245933E-04   5.8023085E+04   -1.6644788E+00
   5.4496446E-04   5.7579873E+04   -1.6639705E+00
   5.4748117E-04   5.7140180E+04   -1.6634630E+00
   5.5000949E-04   5.6703977E+04   -1.6629563E+00
   5.5254949E-04   5.6271236E+04   -1.6624504E+00
   5.5510123E-04   5.5841926E+04   -1.6619453E+00
   5.5766474E-04   5.5416022E+04   -1.6614411E+00
   5.6024010E-04   5.4993493E+04   -1.6609376E+00
   5.6282734E-04   5.4574312E+04   -1.6604350E+00
   5.6542654E-04   5.4158452E+04   -1.6599332E+00
   5.6803774E-04   5.3745884E+04   -1.6594323E+00
   5.7066099E-04   5.3336583E+04   -1.6589322E+00
   5.7329637E-04   5.2930520E+04   -1.6584329E+00
   5.7594391E-04   5.2527670E+04   -1.6579345E+00
   5.7860368E-04   5.2128005E+04   -1.6574369E+00
   5.8127573E-04   5.1731500E+04   -1.6569401E+00
   5.8396012E-04   5.1338129E+04   -1.6564442E+00
   5.8665691E-04   5.0947864E+04   -1.6559492E+00
   5.8936616E-04   5.0560682E+04   -1.6554550E+00
   5.9208791E-04   5.0176556E+04   -1.6549617E+00
   5.9482223E-04   4.9795462E+04   -1.6544692E+00
   5.9756919E-04   4.9417374E+04   -1.6539776E+00
   6.0032882E-04   4.9042268E+04   -1.6534869E+00
   6.0310120E-04   4.8670119E+04   -1.6529970E+00
   6.0588639E-04   4.8300903E+04   -1.6525080E+00
   6.0868443E-04   4.7934595E+04   -1.6520199E+00
   6.1149540E-04   4.7571173E+04   -1.6515327E+00
   6.1431935E-04   4.7210612E+04   -1.6510464E+00
   6.1715634E-04   4.6852889E+04   -1.6505609E+00
   6.2000644E-04   4.6497980E+04   -1.6500763E+00
   6.2286969E-04   4.6145862E+04   -1.6495926E+00
