#        a       HoverH0(a)       dlogHdloga_of_a(a)
   1.0000000E-04   1.0324025E+06   -1.8872714E+00
   1.0046181E-04   1.0234650E+06   -1.8868686E+00
   1.0092575E-04   1.0146068E+06   -1.8864647E+00
   1.0139184E-04   1.0058272E+06   -1.8860599E+00
   1.0186008E-04   9.9712538E+05   -1.8856540E+00
   1.0233048E-04   9.8850071E+05   -1.8852471E+00
   1.0280305E-04   9.7995247E+05   -1.8848392E+00
   1.0327781E-04   9.7147998E+05   -1.8844303E+00
   1.0375475E-04   9.6308257E+05   -1.8840204E+00
   1.0423390E-04   9.5475954E+05   -1.8836094E+00
   1.0471527E-04   9.4651023E+05   -1.8831975E+00
   1.0519885E-04   9.3833399E+05   -1.8827845E+00
   1.0568467E-04   9.3023014E+05   -1.8823705E+00
   1.0617274E-04   9.2219805E+05   -1.8819555E+00
   1.0666305E-04   9.1423706E+05   -1.8815395E+00
   1.0715563E-04   9.0634653E+05   -1.8811225E+00
   1.0765049E-04   8.9852583E+05   -1.8807045E+00
   1.0814763E-04   8.9077434E+05   -1.8802855E+00
   1.0864707E-04   8.8309142E+05   -1.8798654E+00
   1.0914881E-04   8.7547646E+05   -1.8794444E+00
   1.0965287E-04   8.6792886E+05   -1.8790224E+00
   1.1015926E-04   8.6044800E+05   -1.8785993E+00
   1.1066799E-04   8.5303328E+05   -1.8781752E+00
   1.1117906E-04   8.4568411E+05   -1.8777502E+00
   1.1169250E-04   8.3839989E+05   -1.8773241E+00
   1.1220831E-04   8.3118006E+05   -1.8768971E+00
   1.1272650E-04   8.2402402E+05   -1.8764690E+00
   1.1324708E-04   8.1693120E+05   -1.8760399E+00
   1.1377007E-04   8.0990104E+05   -1.8756099E+00
   1.1429547E-04   8.0293297E+05   -1.8751788E+00
   1.1482330E-04   7.9602644E+05   -1.8747468E+00
   1.1535356E-04   7.8918088E+05   -1.8743137E+00
   1.1588628E-04   7.8239576E+05   -1.8738797E+00
   1.1642145E-04   7.7567053E+05   -1.8734446E+00
   1.1695910E-04   7.6900464E+05   -1.8730086E+00
   1.1749923E-04   7.6239758E+05   -1.8725716E+00
   1.1804185E-04   7.5584880E+05   -1.8721336E+00
   1.1858698E-04   7.4935779E+05   -1.8716946E+00
   1.1913463E-04   7.4292403E+05   -1.8712546E+00
   1.1968481E-04   7.3654700E+05   -1.8708137E+00
   1.2023752E-04   7.3022619E+05   -1.8703717E+00
   1.2079279E-04   7.2396111E+05   -1.8699288E+00
   1.2135063E-04   7.1775124E+05   -1.8694849E+00
   1.2191104E-04   7.1159610E+05   -1.8690400E+00
   1.2247403E-04   7.0549518E+05   -1.8685941E+00
   1.2303963E-04   6.9944802E+05   -1.8681473E+00
   1.2360784E-04   6.9345411E+05   -1.8676995E+00
   1.2417868E-04   6.8751299E+05   -1.8672507E+00
   1.2475215E-04   6.8162418E+05   -1.8668009E+00
   1.2532826E-04   6.7578721E+05   -1.8663502E+00
   1.2590704E-04   6.7000162E+05   -1.8658985E+00
   1.2648850E-04   6.6426695E+05   -1.8654459E+00
   1.2707263E-04   6.5858273E+05   -1.8649922E+00
   1.2765947E-04   6.5294852E+05   -1.8645377E+00
   1.2824901E-04   6.4736387E+05   -1.8640821E+00
   1.2884128E-04   6.4182833E+05   -1.8636256E+00
   1.2943628E-04   6.3634147E+05   -1.8631681E+00
   1.3003403E-04   6.3090284E+05   -1.8627097E+00
   1.3063454E-04   6.2551202E+05   -1.8622504E+00
   1.3123783E-04   6.2016858E+05   -1.8617900E+00
   1.3184390E-04   6.1487209E+05   -1.8613288E+00
   1.3245277E-04   6.0962212E+05   -1.8608665E+00
   1.3306445E-04   6.0441828E+05   -1.8604034E+00
   1.3367895E-04   5.9926013E+05   -1.8599393E+00
   1.3429630E-04   5.9414727E+05   -1.8594742E+00
   1.3491649E-04   5.8907930E+05   -1.8590082E+00
   1.3553955E-04   5.8405582E+05   -1.8585413E+00
   1.3616548E-04   5.7907642E+05   -1.8580734E+00
   1.3679431E-04   5.7414072E+05   -1.8576046E+00
   1.3742604E-04   5.6924831E+05   -1.8571349E+00
   1.3806069E-04   5.6439881E+05   -1.8566643E+00
   1.3869827E-04   5.5959185E+05   -1.8561927E+00
   1.3933879E-04   5.5482703E+05   -1.8557202E+00
   1.3998227E-04   5.5010398E+05   -1.8552468E+00
   1.4062872E-04   5.4542232E+05   -1.8547724E+00
   1.4127816E-04   5.4078170E+05   -1.8542971E+00
   1.4193060E-04   5.3618173E+05   -1.8538210E+00
   1.4258605E-04   5.3162206E+05   -1.8533439E+00
   1.4324453E-04   5.2710232E+05   -1.8528659E+00
   1.4390605E-04   5.2262216E+05   -1.8523870E+00
   1.4457062E-04   5.1818122E+05   -1.8519072E+00
   1.4523826E-04   5.1377916E+05   -1.8514265E+00
   1.4590899E-04   5.0941563E+05   -1.8509448E+00
   1.4658281E-04   5.0509027E+05   -1.8504623E+00
   1.4725974E-04   5.0080276E+05   -1.8499789E+00
   1.4793981E-04   4.9655275E+05   -1.8494946E+00
   1.4862301E-04   4.9233990E+05   -1.8490094E+00
   1.4930936E-04   4.8816389E+05   -1.8485234E+00
   1.4999889E-04   4.8402439E+05   -1.8480364E+00
   1.5069160E-04   4.7992106E+05   -1.8475486E+00
   1.5138751E-04   4.7585359E+05   -1.8470599E+00
   1.5208663E-04   4.7182166E+05   -1.8465703E+00
   1.5278899E-04   4.6782494E+05   -1.8460798E+00
   1.5349458E-04   4.6386314E+05   -1.8455885E+00
   1.5420343E-04   4.5993592E+05   -1.8450963E+00
   1.5491556E-04   4.5604299E+05   -1.8446032E+00
   1.5563098E-04   4.5218404E+05   -1.8441093E+00
   1.5634970E-04   4.4835876E+05   -1.8436145E+00
   1.5707174E-04   4.4456686E+05   -1.8431189E+00
   1.5779711E-04   4.4080803E+05   -1.8426224E+00
   1.5852584E-04   4.3708198E+05   -1.8421251E+00
   1.5925792E-04   4.3338843E+05   -1.8416269E+00
   1.5999339E-04   4.2972707E+05   -1.8411279E+00
   1.6073226E-04   4.2609763E+05   -1.8406280E+00
   1.6147454E-04   4.2249981E+05   -1.8401273E+00
   1.6222024E-04   4.1893334E+05   -1.8396258E+00
   1.6296939E-04   4.1539793E+05   -1.8391234E+00
   1.6372200E-04   4.1189332E+05   -1.8386202E+00
   1.6447809E-04   4.0841922E+05   -1.8381162E+00
   1.6523767E-04   4.0497537E+05   -1.8376114E+00
   1.6600075E-04   4.0156149E+05   -1.8371058E+00
   1.6676736E-04   3.9817731E+05   -1.8365993E+00
   1.6753751E-04   3.9482258E+05   -1.8360920E+00
   1.6831122E-04   3.9149703E+05   -1.8355840E+00
   1.6908849E-04   3.8820040E+05   -1.8350751E+00
   1.6986936E-04   3.8493243E+05   -1.8345654E+00
   1.7065384E-04   3.8169286E+05   -1.8340549E+00
   1.7144193E-04   3.7848146E+05   -1.8335437E+00
   1.7223367E-04   3.7529795E+05   -1.8330316E+00
   1.7302906E-04   3.7214211E+05   -1.8325188E+00
   1.7382813E-04   3.6901367E+05   -1.8320052E+00
   1.7463089E-04   3.6591240E+05   -1.8314908E+00
   1.7543735E-04   3.6283805E+05   -1.8309756E+00
   1.7624754E-04   3.5979039E+05   -1.8304597E+00
   1.7706147E-04   3.5676918E+05   -1.8299430E+00
   1.7787916E-04   3.5377418E+05   -1.8294256E+00
   1.7870062E-04   3.5080516E+05   -1.8289073E+00
   1.7952588E-04   3.4786188E+05   -1.8283884E+00
   1.8035495E-04   3.4494413E+05   -1.8278686E+00
   1.8118785E-04   3.4205166E+05   -1.8273482E+00
   1.8202459E-04   3.3918427E+05   -1.8268270E+00
   1.8286520E-04   3.3634172E+05   -1.8263050E+00
   1.8370969E-04   3.3352380E+05   -1.8257823E+00
   1.8455808E-04   3.3073028E+05   -1.8252589E+00
   1.8541039E-04   3.2796096E+05   -1.8247348E+00
   1.8626663E-04   3.2521560E+05   -1.8242099E+00
   1.8712683E-04   3.2249401E+05   -1.8236843E+00
   1.8799100E-04   3.1979597E+05   -1.8231580E+00
   1.8885917E-04   3.1712127E+05   -1.8226310E+00
   1.8973134E-04   3.1446971E+05   -1.8221033E+00
   1.9060754E-04   3.1184107E+05   -1.8215749E+00
   1.9148778E-04   3.0923517E+05   -1.8210457E+00
   1.9237209E-04   3.0665178E+05   -1.8205159E+00
   1.9326049E-04   3.0409072E+05   -1.8199854E+00
   1.9415299E-04   3.0155179E+05   -1.8194542E+00
   1.9504960E-04   2.9903479E+05   -1.8189224E+00
   1.9595036E-04   2.9653952E+05   -1.8183898E+00
   1.9685528E-04   2.9406580E+05   -1.8178566E+00
   1.9776438E-04   2.9161343E+05   -1.8173227E+00
   1.9867768E-04   2.8918222E+05   -1.8167882E+00
   1.9959519E-04   2.8677199E+05   -1.8162530E+00
   2.0051694E-04   2.8438255E+05   -1.8157171E+00
   2.0144295E-04   2.8201371E+05   -1.8151806E+00
   2.0237324E-04   2.7966530E+05   -1.8146435E+00
   2.0330782E-04   2.7733713E+05   -1.8141057E+00
   2.0424671E-04   2.7502903E+05   -1.8135673E+00
   2.0518995E-04   2.7274081E+05   -1.8130282E+00
   2.0613754E-04   2.7047230E+05   -1.8124885E+00
   2.0708950E-04   2.6822333E+05   -1.8119482E+00
   2.0804586E-04   2.6599372E+05   -1.8114073E+00
   2.0900664E-04   2.6378330E+05   -1.8108657E+00
   2.0997185E-04   2.6159190E+05   -1.8103236E+00
   2.1094152E-04   2.5941936E+05   -1.8097808E+00
   2.1191567E-04   2.5726550E+05   -1.8092375E+00
   2.1289432E-04   2.5513016E+05   -1.8086935E+00
   2.1387749E-04   2.5301319E+05   -1.8081490E+00
   2.1486520E-04   2.5091440E+05   -1.8076039E+00
   2.1585747E-04   2.4883366E+05   -1.8070582E+00
   2.1685432E-04   2.4677079E+05   -1.8065119E+00
   2.1785578E-04   2.4472563E+05   -1.8059651E+00
   2.1886186E-04   2.4269804E+05   -1.8054177E+00
   2.1987259E-04   2.4068785E+05   -1.8048697E+00
   2.2088798E-04   2.3869492E+05   -1.8043212E+00
   2.2190807E-04   2.3671909E+05   -1.8037721E+00
   2.2293286E-04   2.3476021E+05   -1.8032225E+00
   2.2396239E-04   2.3281812E+05   -1.8026723E+00
   2.2499667E-04   2.3089269E+05   -1.8021217E+00
   2.2603573E-04   2.2898377E+05   -1.8015704E+00
   2.2707958E-04   2.2709120E+05   -1.8010187E+00
   2.2812826E-04   2.2521485E+05   -1.8004664E+00
   2.2918178E-04   2.2335457E+05   -1.7999137E+00
   2.3024017E-04   2.2151021E+05   -1.7993604E+00
   2.3130344E-04   2.1968165E+05   -1.7988066E+00
   2.3237162E-04   2.1786874E+05   -1.7982523E+00
   2.3344474E-04   2.1607135E+05   -1.7976975E+00
   2.3452281E-04   2.1428933E+05   -1.7971422E+00
   2.3560586E-04   2.1252255E+05   -1.7965865E+00
   2.3669392E-04   2.1077088E+05   -1.7960302E+00
   2.3778699E-04   2.0903418E+05   -1.7954735E+00
   2.3888512E-04   2.0731232E+05   -1.7949164E+00
   2.3998831E-04   2.0560518E+05   -1.7943587E+00
   2.4109661E-04   2.0391262E+05   -1.7938006E+00
   2.4221001E-04   2.0223451E+05   -1.7932421E+00
   2.4332857E-04   2.0057072E+05   -1.7926831E+00
   2.4445228E-04   1.9892114E+05   -1.7921237E+00
   2.4558119E-04   1.9728563E+05   -1.7915638E+00
   2.4671531E-04   1.9566408E+05   -1.7910035E+00
   2.4785467E-04   1.9405635E+05   -1.7904428E+00
   2.4899928E-04   1.9246233E+05   -1.7898817E+00
   2.5014919E-04   1.9088190E+05   -1.7893201E+00
   2.5130440E-04   1.8931494E+05   -1.7887582E+00
   2.5246495E-04   1.8776133E+05   -1.7881958E+00
   2.5363086E-04   1.8622094E+05   -1.7876331E+00
   2.5480216E-04   1.8469368E+05   -1.7870699E+00
   2.5597886E-04   1.8317942E+05   -1.7865064E+00
   2.5716100E-04   1.8167804E+05   -1.7859425E+00
   2.5834859E-04   1.8018944E+05   -1.7853782E+00
   2.5954168E-04   1.7871349E+05   -1.7848136E+00
   2.6074027E-04   1.7725010E+05   -1.7842485E+00
   2.6194439E-04   1.7579915E+05   -1.7836832E+00
   2.6315408E-04   1.7436054E+05   -1.7831174E+00
   2.6436935E-04   1.7293414E+05   -1.7825514E+00
   2.6559024E-04   1.7151986E+05   -1.7819850E+00
   2.6681676E-04   1.7011760E+05   -1.7814182E+00
   2.6804895E-04   1.6872724E+05   -1.7808511E+00
   2.6928683E-04   1.6734867E+05   -1.7802837E+00
   2.7053042E-04   1.6598181E+05   -1.7797160E+00
   2.7177976E-04   1.6462654E+05   -1.7791480E+00
   2.7303487E-04   1.6328276E+05   -1.7785797E+00
   2.7429577E-04   1.6195038E+05   -1.7780110E+00
   2.7556250E-04   1.6062929E+05   -1.7774421E+00
   2.7683507E-04   1.5931939E+05   -1.7768729E+00
   2.7811353E-04   1.5802059E+05   -1.7763034E+00
   2.7939788E-04   1.5673279E+05   -1.7757336E+00
   2.8068817E-04   1.5545590E+05   -1.7751636E+00
   2.8198442E-04   1.5418981E+05   -1.7745933E+00
   2.8328665E-04   1.5293443E+05   -1.7740227E+00
   2.8459490E-04   1.5168968E+05   -1.7734519E+00
   2.8590919E-04   1.5045545E+05   -1.7728808E+00
   2.8722955E-04   1.4923166E+05   -1.7723095E+00
   2.8855600E-04   1.4801821E+05   -1.7717380E+00
   2.8988859E-04   1.4681501E+05   -1.7711662E+00
   2.9122732E-04   1.4562198E+05   -1.7705942E+00
   2.9257224E-04   1.4443902E+05   -1.7700220E+00
   2.9392337E-04   1.4326605E+05   -1.7694496E+00
   2.9528074E-04   1.4210299E+05   -1.7688769E+00
   2.9664438E-04   1.4094973E+05   -1.7683041E+00
   2.9801431E-04   1.3980621E+05   -1.7677311E+00
   2.9939057E-04   1.3867232E+05   -1.7671578E+00
   3.0077319E-04   1.3754800E+05   -1.7665844E+00
   3.0216219E-04   1.3643316E+05   -1.7660109E+00
   3.0355761E-04   1.3532770E+05   -1.7654371E+00
   3.0495947E-04   1.3423156E+05   -1.7648632E+00
   3.0636780E-04   1.3314465E+05   -1.7642892E+00
   3.0778264E-04   1.3206689E+05   -1.7637149E+00
   3.0920401E-04   1.3099820E+05   -1.7631406E+00
   3.1063195E-04   1.2993850E+05   -1.7625661E+00
   3.1206648E-04   1.2888772E+05   -1.7619914E+00
   3.1350764E-04   1.2784577E+05   -1.7614167E+00
   3.1495545E-04   1.2681258E+05   -1.7608418E+00
   3.1640994E-04   1.2578808E+05   -1.7602668E+00
   3.1787116E-04   1.2477218E+05   -1.7596917E+00
   3.1933912E-04   1.2376481E+05   -1.7591165E+00
   3.2081386E-04   1.2276591E+05   -1.7585412E+00
   3.2229541E-04   1.2177539E+05   -1.7579658E+00
   3.2378381E-04   1.2079318E+05   -1.7573903E+00
   3.2527908E-04   1.1981921E+05   -1.7568147E+00
   3.2678125E-04   1.1885340E+05   -1.7562391E+00
   3.2829036E-04   1.1789570E+05   -1.7556634E+00
   3.2980644E-04   1.1694602E+05   -1.7550876E+00
   3.3132952E-04   1.1600430E+05   -1.7545118E+00
   3.3285963E-04   1.1507047E+05   -1.7539359E+00
   3.3439681E-04   1.1414446E+05   -1.7533600E+00
   3.3594109E-04   1.1322620E+05   -1.7527840E+00
   3.3749250E-04   1.1231563E+05   -1.7522081E+00
   3.3905108E-04   1.1141268E+05   -1.7516321E+00
   3.4061685E-04   1.1051728E+05   -1.7510560E+00
   3.4218986E-04   1.0962936E+05   -1.7504800E+00
   3.4377013E-04   1.0874887E+05   -1.7499040E+00
   3.4535769E-04   1.0787574E+05   -1.7493279E+00
   3.4695259E-04   1.0700990E+05   -1.7487519E+00
   3.4855485E-04   1.0615129E+05   -1.7481759E+00
   3.5016452E-04   1.0529985E+05   -1.7475999E+00
   3.5178161E-04   1.0445551E+05   -1.7470239E+00
   3.5340618E-04   1.0361822E+05   -1.7464479E+00
   3.5503824E-04   1.0278792E+05   -1.7458720E+00
   3.5667785E-04   1.0196454E+05   -1.7452962E+00
   3.5832502E-04   1.0114802E+05   -1.7447204E+00
   3.5997981E-04   1.0033831E+05   -1.7441446E+00
   3.6164223E-04   9.9535347E+04   -1.7435689E+00
   3.6331233E-04   9.8739069E+04   -1.7429933E+00
   3.6499015E-04   9.7949421E+04   -1.7424177E+00
   3.6667571E-04   9.7166346E+04   -1.7418422E+00
   3.6836906E-04   9.6389786E+04   -1.7412668E+00
   3.7007022E-04   9.5619687E+04   -1.7406915E+00
   3.7177925E-04   9.4855992E+04   -1.7401163E+00
   3.7349616E-04   9.4098645E+04   -1.7395412E+00
   3.7522101E-04   9.3347592E+04   -1.7389662E+00
   3.7695382E-04   9.2602780E+04   -1.7383914E+00
   3.7869463E-04   9.1864154E+04   -1.7378166E+00
   3.8044348E-04   9.1131660E+04   -1.7372420E+00
   3.8220041E-04   9.0405247E+04   -1.7366675E+00
   3.8396545E-04   8.9684861E+04   -1.7360931E+00
   3.8573864E-04   8.8970450E+04   -1.7355189E+00
   3.8752002E-04   8.8261964E+04   -1.7349449E+00
   3.8930963E-04   8.7559352E+04   -1.7343710E+00
   3.9110750E-04   8.6862562E+04   -1.7337973E+00
   3.9291368E-04   8.6171545E+04   -1.7332237E+00
   3.9472820E-04   8.5486251E+04   -1.7326503E+00
   3.9655109E-04   8.4806631E+04   -1.7320771E+00
   3.9838241E-04   8.4132636E+04   -1.7315041E+00
   4.0022218E-04   8.3464218E+04   -1.7309313E+00
   4.0207045E-04   8.2801329E+04   -1.7303587E+00
   4.0392725E-04   8.2143921E+04   -1.7297863E+00
   4.0579263E-04   8.1491948E+04   -1.7292141E+00
   4.0766662E-04   8.0845363E+04   -1.7286421E+00
   4.0954927E-04   8.0204119E+04   -1.7280704E+00
   4.1144061E-04   7.9568171E+04   -1.7274988E+00
   4.1334068E-04   7.8937474E+04   -1.7269276E+00
   4.1524953E-04   7.8311981E+04   -1.7263565E+00
   4.1716720E-04   7.7691649E+04   -1.7257857E+00
   4.1909372E-04   7.7076434E+04   -1.7252152E+00
   4.2102914E-04   7.6466291E+04   -1.7246449E+00
   4.2297350E-04   7.5861178E+04   -1.7240749E+00
   4.2492683E-04   7.5261051E+04   -1.7235051E+00
   4.2688919E-04   7.4665867E+04   -1.7229356E+00
   4.2886061E-04   7.4075585E+04   -1.7223665E+00
   4.3084113E-04   7.3490161E+04   -1.7217976E+00
   4.3283080E-04   7.2909556E+04   -1.7212290E+00
   4.3482966E-04   7.2333727E+04   -1.7206607E+00
   4.3683775E-04   7.1762633E+04   -1.7200927E+00
   4.3885511E-04   7.1196235E+04   -1.7195250E+00
   4.4088179E-04   7.0634492E+04   -1.7189576E+00
   4.4291783E-04   7.0077364E+04   -1.7183906E+00
   4.4496327E-04   6.9524812E+04   -1.7178238E+00
   4.4701816E-04   6.8976797E+04   -1.7172575E+00
   4.4908253E-04   6.8433280E+04   -1.7166914E+00
   4.5115644E-04   6.7894223E+04   -1.7161257E+00
   4.5323993E-04   6.7359588E+04   -1.7155604E+00
   4.5533304E-04   6.6829337E+04   -1.7149954E+00
   4.5743582E-04   6.6303432E+04   -1.7144308E+00
   4.5954830E-04   6.5781837E+04   -1.7138665E+00
   4.6167054E-04   6.5264515E+04   -1.7133027E+00
   4.6380259E-04   6.4751429E+04   -1.7127392E+00
   4.6594448E-04   6.4242544E+04   -1.7121761E+00
   4.6809626E-04   6.3737823E+04   -1.7116133E+00
   4.7025797E-04   6.3237232E+04   -1.7110510E+00
   4.7242967E-04   6.2740735E+04   -1.7104891E+00
   4.7461140E-04   6.2248296E+04   -1.7099276E+00
   4.7680321E-04   6.1759883E+04   -1.7093665E+00
   4.7900514E-04   6.1275460E+04   -1.7088058E+00
   4.8121723E-04   6.0794994E+04   -1.7082456E+00
   4.8343954E-04   6.0318451E+04   -1.7076857E+00
   4.8567212E-04   5.9845798E+04   -1.7071263E+00
   4.8791500E-04   5.9377002E+04   -1.7065674E+00
   4.9016825E-04   5.8912029E+04   -1.7060089E+00
   4.9243189E-04   5.8450848E+04   -1.7054508E+00
   4.9470600E-04   5.7993426E+04   -1.7048932E+00
   4.9699060E-04   5.7539731E+04   -1.7043361E+00
   4.9928575E-04   5.7089733E+04   -1.7037794E+00
   5.0159151E-04   5.6643398E+04   -1.7032233E+00
   5.0390791E-04   5.6200698E+04   -1.7026675E+00
   5.0623501E-04   5.5761600E+04   -1.7021123E+00
   5.0857286E-04   5.5326074E+04   -1.7015576E+00
   5.1092150E-04   5.4894090E+04   -1.7010033E+00
   5.1328099E-04   5.4465618E+04   -1.7004496E+00
   5.1565137E-04   5.4040628E+04   -1.6998963E+00
   5.1803270E-04   5.3619091E+04   -1.6993436E+00
   5.2042503E-04   5.3200978E+04   -1.6987914E+00
   5.2282841E-04   5.2786259E+04   -1.6982397E+00
   5.2524289E-04   5.2374906E+04   -1.6976885E+00
   5.2766851E-04   5.1966891E+04   -1.6971378E+00
   5.3010534E-04   5.1562184E+04   -1.6965877E+00
   5.3255342E-04   5.1160760E+04   -1.6960382E+00
   5.3501281E-04   5.0762589E+04   -1.6954891E+00
   5.3748356E-04   5.0367644E+04   -1.6949407E+00
   5.3996571E-04   4.9975898E+04   -1.6943927E+00
   5.4245933E-04   4.9587324E+04   -1.6938454E+00
   5.4496446E-04   4.9201896E+04   -1.6932986E+00
   5.4748117E-04   4.8819586E+04   -1.6927524E+00
   5.5000949E-04   4.8440369E+04   -1.6922067E+00
   5.5254949E-04   4.8064218E+04   -1.6916616E+00
   5.5510123E-04   4.7691107E+04   -1.6911171E+00
   5.5766474E-04   4.7321012E+04   -1.6905732E+00
   5.6024010E-04   4.6953907E+04   -1.6900299E+00
   5.6282734E-04   4.6589765E+04   -1.6894872E+00
   5.6542654E-04   4.6228564E+04   -1.6889451E+00
   5.6803774E-04   4.5870277E+04   -1.6884036E+00
   5.7066099E-04   4.5514880E+04   -1.6878628E+00
   5.7329637E-04   4.5162350E+04   -1.6873225E+00
   5.7594391E-04   4.4812662E+04   -1.6867829E+00
   5.7860368E-04   4.4465791E+04   -1.6862438E+00
   5.8127573E-04   4.4121716E+04   -1.6857055E+00
   5.8396012E-04   4.3780411E+04   -1.6851677E+00
   5.8665691E-04   4.3441854E+04   -1.6846306E+00
   5.8936616E-04   4.3106021E+04   -1.6840941E+00
   5.9208791E-04   4.2772891E+04   -1.6835583E+00
   5.9482223E-04   4.2442439E+04   -1.6830232E+00
   5.9756919E-04   4.2114645E+04   -1.6824887E+00
   6.0032882E-04   4.1789484E+04   -1.6819549E+00
   6.0310120E-04   4.1466937E+04   -1.6814217E+00
   6.0588639E-04   4.1146980E+04   -1.6808892E+00
   6.0868443E-04   4.0829591E+04   -1.6803574E+00
   6.1149540E-04   4.0514750E+04   -1.6798262E+00
   6.1431935E-04   4.0202436E+04   -1.6792958E+00
   6.1715634E-04   3.9892626E+04   -1.6787660E+00
   6.2000644E-04   3.9585300E+04   -1.6782370E+00
   6.2286969E-04   3.9280438E+04   -1.6777086E+00
