#        a       HoverH0(a)       dlogHdloga_of_a(a)
   1.0000000E-04   1.1723709E+06   -1.8617970E+00
   1.0046181E-04   1.1623584E+06   -1.8613358E+00
   1.0092575E-04   1.1524338E+06   -1.8608736E+00
   1.0139184E-04   1.1425963E+06   -1.8604105E+00
   1.0186008E-04   1.1328453E+06   -1.8599464E+00
   1.0233048E-04   1.1231799E+06   -1.8594814E+00
   1.0280305E-04   1.1135993E+06   -1.8590154E+00
   1.0327781E-04   1.1041029E+06   -1.8585485E+00
   1.0375475E-04   1.0946898E+06   -1.8580806E+00
   1.0423390E-04   1.0853592E+06   -1.8576119E+00
   1.0471527E-04   1.0761105E+06   -1.8571422E+00
   1.0519885E-04   1.0669430E+06   -1.8566715E+00
   1.0568467E-04   1.0578558E+06   -1.8562000E+00
   1.0617274E-04   1.0488484E+06   -1.8557275E+00
   1.0666305E-04   1.0399198E+06   -1.8552541E+00
   1.0715563E-04   1.0310696E+06   -1.8547798E+00
   1.0765049E-04   1.0222969E+06   -1.8543046E+00
   1.0814763E-04   1.0136010E+06   -1.8538284E+00
   1.0864707E-04   1.0049814E+06   -1.8533513E+00
   1.0914881E-04   9.9643720E+05   -1.8528734E+00
   1.0965287E-04   9.8796785E+05   -1.8523945E+00
   1.1015926E-04   9.7957265E+05   -1.8519147E+00
   1.1066799E-04   9.7125093E+05   -1.8514340E+00
   1.1117906E-04   9.6300205E+05   -1.8509524E+00
   1.1169250E-04   9.5482534E+05   -1.8504699E+00
   1.1220831E-04   9.4672016E+05   -1.8499866E+00
   1.1272650E-04   9.3868588E+05   -1.8495023E+00
   1.1324708E-04   9.3072186E+05   -1.8490171E+00
   1.1377007E-04   9.2282748E+05   -1.8485311E+00
   1.1429547E-04   9.1500211E+05   -1.8480441E+00
   1.1482330E-04   9.0724513E+05   -1.8475563E+00
   1.1535356E-04   8.9955594E+05   -1.8470676E+00
   1.1588628E-04   8.9193392E+05   -1.8465781E+00
   1.1642145E-04   8.8437848E+05   -1.8460876E+00
   1.1695910E-04   8.7688903E+05   -1.8455963E+00
   1.1749923E-04   8.6946497E+05   -1.8451042E+00
   1.1804185E-04   8.6210572E+05   -1.8446111E+00
   1.1858698E-04   8.5481071E+05   -1.8441172E+00
   1.1913463E-04   8.4757935E+05   -1.8436225E+00
   1.1968481E-04   8.4041109E+05   -1.8431269E+00
   1.2023752E-04   8.3330536E+05   -1.8426304E+00
   1.2079279E-04   8.2626160E+05   -1.8421331E+00
   1.2135063E-04   8.1927925E+05   -1.8416350E+00
   1.2191104E-04   8.1235778E+05   -1.8411360E+00
   1.2247403E-04   8.0549664E+05   -1.8406361E+00
   1.2303963E-04   7.9869528E+05   -1.8401355E+00
   1.2360784E-04   7.9195318E+05   -1.8396340E+00
   1.2417868E-04   7.8526981E+05   -1.8391316E+00
   1.2475215E-04   7.7864465E+05   -1.8386285E+00
   1.2532826E-04   7.7207717E+05   -1.8381245E+00
   1.2590704E-04   7.6556686E+05   -1.8376197E+00
   1.2648850E-04   7.5911322E+05   -1.8371141E+00
   1.2707263E-04   7.5271573E+05   -1.8366076E+00
   1.2765947E-04   7.4637390E+05   -1.8361004E+00
   1.2824901E-04   7.4008724E+05   -1.8355924E+00
   1.2884128E-04   7.3385525E+05   -1.8350835E+00
   1.2943628E-04   7.2767745E+05   -1.8345739E+00
   1.3003403E-04   7.2155334E+05   -1.8340634E+00
   1.3063454E-04   7.1548246E+05   -1.8335522E+00
   1.3123783E-04   7.0946433E+05   -1.8330402E+00
   1.3184390E-04   7.0349848E+05   -1.8325274E+00
   1.3245277E-04   6.9758445E+05   -1.8320138E+00
   1.3306445E-04   6.9172177E+05   -1.8314994E+00
   1.3367895E-04   6.8590999E+05   -1.8309843E+00
   1.3429630E-04   6.8014865E+05   -1.8304684E+00
   1.3491649E-04   6.7443731E+05   -1.8299517E+00
   1.3553955E-04   6.6877553E+05   -1.8294343E+00
   1.3616548E-04   6.6316285E+05   -1.8289161E+00
   1.3679431E-04   6.5759886E+05   -1.8283972E+00
   1.3742604E-04   6.5208310E+05   -1.8278775E+00
   1.3806069E-04   6.4661516E+05   -1.8273570E+00
   1.3869827E-04   6.4119461E+05   -1.8268358E+00
   1.3933879E-04   6.3582103E+05   -1.8263139E+00
   1.3998227E-04   6.3049399E+05   -1.8257913E+00
   1.4062872E-04   6.2521310E+05   -1.8252679E+00
   1.4127816E-04   6.1997793E+05   -1.8247438E+00
   1.4193060E-04   6.1478809E+05   -1.8242189E+00
   1.4258605E-04   6.0964316E+05   -1.8236934E+00
   1.4324453E-04   6.0454275E+05   -1.8231671E+00
   1.4390605E-04   5.9948647E+05   -1.8226401E+00
   1.4457062E-04   5.9447393E+05   -1.8221124E+00
   1.4523826E-04   5.8950473E+05   -1.8215840E+00
   1.4590899E-04   5.8457849E+05   -1.8210549E+00
   1.4658281E-04   5.7969484E+05   -1.8205252E+00
   1.4725974E-04   5.7485338E+05   -1.8199947E+00
   1.4793981E-04   5.7005376E+05   -1.8194635E+00
   1.4862301E-04   5.6529559E+05   -1.8189317E+00
   1.4930936E-04   5.6057851E+05   -1.8183992E+00
   1.4999889E-04   5.5590216E+05   -1.8178660E+00
   1.5069160E-04   5.5126617E+05   -1.8173322E+00
   1.5138751E-04   5.4667019E+05   -1.8167976E+00
   1.5208663E-04   5.4211387E+05   -1.8162625E+00
   1.5278899E-04   5.3759684E+05   -1.8157266E+00
   1.5349458E-04   5.3311878E+05   -1.8151902E+00
   1.5420343E-04   5.2867932E+05   -1.8146530E+00
   1.5491556E-04   5.2427812E+05   -1.8141153E+00
   1.5563098E-04   5.1991486E+05   -1.8135769E+00
   1.5634970E-04   5.1558919E+05   -1.8130379E+00
   1.5707174E-04   5.1130078E+05   -1.8124982E+00
   1.5779711E-04   5.0704929E+05   -1.8119579E+00
   1.5852584E-04   5.0283442E+05   -1.8114170E+00
   1.5925792E-04   4.9865582E+05   -1.8108755E+00
   1.5999339E-04   4.9451318E+05   -1.8103334E+00
   1.6073226E-04   4.9040618E+05   -1.8097907E+00
   1.6147454E-04   4.8633451E+05   -1.8092474E+00
   1.6222024E-04   4.8229785E+05   -1.8087034E+00
   1.6296939E-04   4.7829589E+05   -1.8081589E+00
   1.6372200E-04   4.7432834E+05   -1.8076139E+00
   1.6447809E-04   4.7039487E+05   -1.8070682E+00
   1.6523767E-04   4.6649520E+05   -1.8065220E+00
   1.6600075E-04   4.6262903E+05   -1.8059751E+00
   1.6676736E-04   4.5879605E+05   -1.8054278E+00
   1.6753751E-04   4.5499598E+05   -1.8048798E+00
   1.6831122E-04   4.5122852E+05   -1.8043314E+00
   1.6908849E-04   4.4749339E+05   -1.8037823E+00
   1.6986936E-04   4.4379030E+05   -1.8032327E+00
   1.7065384E-04   4.4011896E+05   -1.8026826E+00
   1.7144193E-04   4.3647911E+05   -1.8021320E+00
   1.7223367E-04   4.3287046E+05   -1.8015808E+00
   1.7302906E-04   4.2929273E+05   -1.8010291E+00
   1.7382813E-04   4.2574566E+05   -1.8004768E+00
   1.7463089E-04   4.2222897E+05   -1.7999241E+00
   1.7543735E-04   4.1874239E+05   -1.7993708E+00
   1.7624754E-04   4.1528567E+05   -1.7988171E+00
   1.7706147E-04   4.1185853E+05   -1.7982628E+00
   1.7787916E-04   4.0846072E+05   -1.7977081E+00
   1.7870062E-04   4.0509197E+05   -1.7971528E+00
   1.7952588E-04   4.0175204E+05   -1.7965971E+00
   1.8035495E-04   3.9844066E+05   -1.7960409E+00
   1.8118785E-04   3.9515759E+05   -1.7954842E+00
   1.8202459E-04   3.9190258E+05   -1.7949271E+00
   1.8286520E-04   3.8867538E+05   -1.7943695E+00
   1.8370969E-04   3.8547574E+05   -1.7938114E+00
   1.8455808E-04   3.8230343E+05   -1.7932529E+00
   1.8541039E-04   3.7915820E+05   -1.7926940E+00
   1.8626663E-04   3.7603982E+05   -1.7921346E+00
   1.8712683E-04   3.7294804E+05   -1.7915748E+00
   1.8799100E-04   3.6988264E+05   -1.7910145E+00
   1.8885917E-04   3.6684338E+05   -1.7904538E+00
   1.8973134E-04   3.6383004E+05   -1.7898927E+00
   1.9060754E-04   3.6084238E+05   -1.7893312E+00
   1.9148778E-04   3.5788018E+05   -1.7887693E+00
   1.9237209E-04   3.5494322E+05   -1.7882070E+00
   1.9326049E-04   3.5203127E+05   -1.7876443E+00
   1.9415299E-04   3.4914411E+05   -1.7870811E+00
   1.9504960E-04   3.4628154E+05   -1.7865177E+00
   1.9595036E-04   3.4344333E+05   -1.7859538E+00
   1.9685528E-04   3.4062926E+05   -1.7853895E+00
   1.9776438E-04   3.3783913E+05   -1.7848249E+00
   1.9867768E-04   3.3507273E+05   -1.7842599E+00
   1.9959519E-04   3.3232984E+05   -1.7836946E+00
   2.0051694E-04   3.2961027E+05   -1.7831289E+00
   2.0144295E-04   3.2691380E+05   -1.7825629E+00
   2.0237324E-04   3.2424024E+05   -1.7819965E+00
   2.0330782E-04   3.2158939E+05   -1.7814298E+00
   2.0424671E-04   3.1896104E+05   -1.7808628E+00
   2.0518995E-04   3.1635499E+05   -1.7802954E+00
   2.0613754E-04   3.1377106E+05   -1.7797277E+00
   2.0708950E-04   3.1120905E+05   -1.7791597E+00
   2.0804586E-04   3.0866877E+05   -1.7785914E+00
   2.0900664E-04   3.0615002E+05   -1.7780228E+00
   2.0997185E-04   3.0365263E+05   -1.7774540E+00
   2.1094152E-04   3.0117639E+05   -1.7768848E+00
   2.1191567E-04   2.9872113E+05   -1.7763153E+00
   2.1289432E-04   2.9628667E+05   -1.7757456E+00
   2.1387749E-04   2.9387281E+05   -1.7751756E+00
   2.1486520E-04   2.9147939E+05   -1.7746053E+00
   2.1585747E-04   2.8910622E+05   -1.7740348E+00
   2.1685432E-04   2.8675313E+05   -1.7734640E+00
   2.1785578E-04   2.8441994E+05   -1.7728930E+00
   2.1886186E-04   2.8210647E+05   -1.7723217E+00
   2.1987259E-04   2.7981256E+05   -1.7717502E+00
   2.2088798E-04   2.7753803E+05   -1.7711785E+00
   2.2190807E-04   2.7528272E+05   -1.7706065E+00
   2.2293286E-04   2.7304645E+05   -1.7700343E+00
   2.2396239E-04   2.7082906E+05   -1.7694619E+00
   2.2499667E-04   2.6863039E+05   -1.7688893E+00
   2.2603573E-04   2.6645027E+05   -1.7683165E+00
   2.2707958E-04   2.6428855E+05   -1.7677436E+00
   2.2812826E-04   2.6214505E+05   -1.7671704E+00
   2.2918178E-04   2.6001962E+05   -1.7665970E+00
   2.3024017E-04   2.5791211E+05   -1.7660235E+00
   2.3130344E-04   2.5582236E+05   -1.7654498E+00
   2.3237162E-04   2.5375021E+05   -1.7648759E+00
   2.3344474E-04   2.5169550E+05   -1.7643019E+00
   2.3452281E-04   2.4965810E+05   -1.7637277E+00
   2.3560586E-04   2.4763785E+05   -1.7631534E+00
   2.3669392E-04   2.4563459E+05   -1.7625789E+00
   2.3778699E-04   2.4364818E+05   -1.7620043E+00
   2.3888512E-04   2.4167848E+05   -1.7614296E+00
   2.3998831E-04   2.3972534E+05   -1.7608548E+00
   2.4109661E-04   2.3778861E+05   -1.7602798E+00
   2.4221001E-04   2.3586815E+05   -1.7597048E+00
   2.4332857E-04   2.3396382E+05   -1.7591296E+00
   2.4445228E-04   2.3207548E+05   -1.7585543E+00
   2.4558119E-04   2.3020299E+05   -1.7579790E+00
   2.4671531E-04   2.2834622E+05   -1.7574035E+00
   2.4785467E-04   2.2650502E+05   -1.7568280E+00
   2.4899928E-04   2.2467927E+05   -1.7562524E+00
   2.5014919E-04   2.2286882E+05   -1.7556767E+00
   2.5130440E-04   2.2107355E+05   -1.7551010E+00
   2.5246495E-04   2.1929332E+05   -1.7545252E+00
   2.5363086E-04   2.1752800E+05   -1.7539494E+00
   2.5480216E-04   2.1577747E+05   -1.7533735E+00
   2.5597886E-04   2.1404159E+05   -1.7527976E+00
   2.5716100E-04   2.1232024E+05   -1.7522217E+00
   2.5834859E-04   2.1061329E+05   -1.7516457E+00
   2.5954168E-04   2.0892062E+05   -1.7510697E+00
   2.6074027E-04   2.0724210E+05   -1.7504938E+00
   2.6194439E-04   2.0557761E+05   -1.7499178E+00
   2.6315408E-04   2.0392704E+05   -1.7493418E+00
   2.6436935E-04   2.0229025E+05   -1.7487658E+00
   2.6559024E-04   2.0066714E+05   -1.7481898E+00
   2.6681676E-04   1.9905757E+05   -1.7476138E+00
   2.6804895E-04   1.9746144E+05   -1.7470379E+00
   2.6928683E-04   1.9587863E+05   -1.7464620E+00
   2.7053042E-04   1.9430902E+05   -1.7458862E+00
   2.7177976E-04   1.9275250E+05   -1.7453103E+00
   2.7303487E-04   1.9120895E+05   -1.7447346E+00
   2.7429577E-04   1.8967827E+05   -1.7441588E+00
   2.7556250E-04   1.8816034E+05   -1.7435832E+00
   2.7683507E-04   1.8665506E+05   -1.7430076E+00
   2.7811353E-04   1.8516230E+05   -1.7424321E+00
   2.7939788E-04   1.8368198E+05   -1.7418567E+00
   2.8068817E-04   1.8221397E+05   -1.7412813E+00
   2.8198442E-04   1.8075817E+05   -1.7407061E+00
   2.8328665E-04   1.7931448E+05   -1.7401309E+00
   2.8459490E-04   1.7788279E+05   -1.7395558E+00
   2.8590919E-04   1.7646300E+05   -1.7389809E+00
   2.8722955E-04   1.7505500E+05   -1.7384061E+00
   2.8855600E-04   1.7365870E+05   -1.7378314E+00
   2.8988859E-04   1.7227400E+05   -1.7372568E+00
   2.9122732E-04   1.7090078E+05   -1.7366824E+00
   2.9257224E-04   1.6953896E+05   -1.7361081E+00
   2.9392337E-04   1.6818844E+05   -1.7355339E+00
   2.9528074E-04   1.6684912E+05   -1.7349599E+00
   2.9664438E-04   1.6552090E+05   -1.7343861E+00
   2.9801431E-04   1.6420368E+05   -1.7338124E+00
   2.9939057E-04   1.6289739E+05   -1.7332389E+00
   3.0077319E-04   1.6160190E+05   -1.7326655E+00
   3.0216219E-04   1.6031715E+05   -1.7320924E+00
   3.0355761E-04   1.5904303E+05   -1.7315194E+00
   3.0495947E-04   1.5777945E+05   -1.7309467E+00
   3.0636780E-04   1.5652633E+05   -1.7303741E+00
   3.0778264E-04   1.5528356E+05   -1.7298017E+00
   3.0920401E-04   1.5405107E+05   -1.7292296E+00
   3.1063195E-04   1.5282877E+05   -1.7286577E+00
   3.1206648E-04   1.5161656E+05   -1.7280860E+00
   3.1350764E-04   1.5041436E+05   -1.7275145E+00
   3.1495545E-04   1.4922209E+05   -1.7269433E+00
   3.1640994E-04   1.4803966E+05   -1.7263723E+00
   3.1787116E-04   1.4686698E+05   -1.7258015E+00
   3.1933912E-04   1.4570398E+05   -1.7252310E+00
   3.2081386E-04   1.4455057E+05   -1.7246608E+00
   3.2229541E-04   1.4340666E+05   -1.7240908E+00
   3.2378381E-04   1.4227218E+05   -1.7235211E+00
   3.2527908E-04   1.4114704E+05   -1.7229517E+00
   3.2678125E-04   1.4003117E+05   -1.7223826E+00
   3.2829036E-04   1.3892449E+05   -1.7218137E+00
   3.2980644E-04   1.3782691E+05   -1.7212452E+00
   3.3132952E-04   1.3673837E+05   -1.7206769E+00
   3.3285963E-04   1.3565877E+05   -1.7201090E+00
   3.3439681E-04   1.3458805E+05   -1.7195414E+00
   3.3594109E-04   1.3352613E+05   -1.7189740E+00
   3.3749250E-04   1.3247294E+05   -1.7184071E+00
   3.3905108E-04   1.3142840E+05   -1.7178404E+00
   3.4061685E-04   1.3039243E+05   -1.7172741E+00
   3.4218986E-04   1.2936496E+05   -1.7167081E+00
   3.4377013E-04   1.2834593E+05   -1.7161425E+00
   3.4535769E-04   1.2733526E+05   -1.7155772E+00
   3.4695259E-04   1.2633287E+05   -1.7150122E+00
   3.4855485E-04   1.2533870E+05   -1.7144477E+00
   3.5016452E-04   1.2435268E+05   -1.7138835E+00
   3.5178161E-04   1.2337473E+05   -1.7133197E+00
   3.5340618E-04   1.2240480E+05   -1.7127562E+00
   3.5503824E-04   1.2144280E+05   -1.7121932E+00
   3.5667785E-04   1.2048868E+05   -1.7116305E+00
   3.5832502E-04   1.1954236E+05   -1.7110682E+00
   3.5997981E-04   1.1860378E+05   -1.7105064E+00
   3.6164223E-04   1.1767288E+05   -1.7099449E+00
   3.6331233E-04   1.1674958E+05   -1.7093839E+00
   3.6499015E-04   1.1583383E+05   -1.7088233E+00
   3.6667571E-04   1.1492556E+05   -1.7082631E+00
   3.6836906E-04   1.1402470E+05   -1.7077033E+00
   3.7007022E-04   1.1313120E+05   -1.7071440E+00
   3.7177925E-04   1.1224499E+05   -1.7065851E+00
   3.7349616E-04   1.1136600E+05   -1.7060266E+00
   3.7522101E-04   1.1049419E+05   -1.7054686E+00
   3.7695382E-04   1.0962948E+05   -1.7049111E+00
   3.7869463E-04   1.0877182E+05   -1.7043540E+00
   3.8044348E-04   1.0792114E+05   -1.7037974E+00
   3.8220041E-04   1.0707739E+05   -1.7032413E+00
   3.8396545E-04   1.0624051E+05   -1.7026856E+00
   3.8573864E-04   1.0541044E+05   -1.7021305E+00
   3.8752002E-04   1.0458712E+05   -1.7015758E+00
   3.8930963E-04   1.0377050E+05   -1.7010216E+00
   3.9110750E-04   1.0296052E+05   -1.7004679E+00
   3.9291368E-04   1.0215712E+05   -1.6999147E+00
   3.9472820E-04   1.0136025E+05   -1.6993621E+00
   3.9655109E-04   1.0056985E+05   -1.6988099E+00
   3.9838241E-04   9.9785866E+04   -1.6982583E+00
   4.0022218E-04   9.9008246E+04   -1.6977072E+00
   4.0207045E-04   9.8236935E+04   -1.6971566E+00
   4.0392725E-04   9.7471880E+04   -1.6966065E+00
   4.0579263E-04   9.6713029E+04   -1.6960570E+00
   4.0766662E-04   9.5960328E+04   -1.6955081E+00
   4.0954927E-04   9.5213726E+04   -1.6949596E+00
   4.1144061E-04   9.4473171E+04   -1.6944118E+00
   4.1334068E-04   9.3738613E+04   -1.6938645E+00
   4.1524953E-04   9.3010000E+04   -1.6933178E+00
   4.1716720E-04   9.2287283E+04   -1.6927716E+00
   4.1909372E-04   9.1570413E+04   -1.6922260E+00
   4.2102914E-04   9.0859339E+04   -1.6916810E+00
   4.2297350E-04   9.0154013E+04   -1.6911366E+00
   4.2492683E-04   8.9454386E+04   -1.6905928E+00
   4.2688919E-04   8.8760411E+04   -1.6900495E+00
   4.2886061E-04   8.8072041E+04   -1.6895069E+00
   4.3084113E-04   8.7389227E+04   -1.6889648E+00
   4.3283080E-04   8.6711924E+04   -1.6884234E+00
   4.3482966E-04   8.6040084E+04   -1.6878826E+00
   4.3683775E-04   8.5373663E+04   -1.6873424E+00
   4.3885511E-04   8.4712614E+04   -1.6868028E+00
   4.4088179E-04   8.4056892E+04   -1.6862639E+00
   4.4291783E-04   8.3406453E+04   -1.6857256E+00
   4.4496327E-04   8.2761252E+04   -1.6851879E+00
   4.4701816E-04   8.2121245E+04   -1.6846509E+00
   4.4908253E-04   8.1486389E+04   -1.6841145E+00
   4.5115644E-04   8.0856641E+04   -1.6835787E+00
   4.5323993E-04   8.0231958E+04   -1.6830437E+00
   4.5533304E-04   7.9612297E+04   -1.6825092E+00
   4.5743582E-04   7.8997616E+04   -1.6819755E+00
   4.5954830E-04   7.8387874E+04   -1.6814424E+00
   4.6167054E-04   7.7783029E+04   -1.6809099E+00
   4.6380259E-04   7.7183041E+04   -1.6803782E+00
   4.6594448E-04   7.6587868E+04   -1.6798471E+00
   4.6809626E-04   7.5997470E+04   -1.6793168E+00
   4.7025797E-04   7.5411808E+04   -1.6787871E+00
   4.7242967E-04   7.4830841E+04   -1.6782581E+00
   4.7461140E-04   7.4254531E+04   -1.6777298E+00
   4.7680321E-04   7.3682839E+04   -1.6772022E+00
   4.7900514E-04   7.3115725E+04   -1.6766753E+00
   4.8121723E-04   7.2553153E+04   -1.6761491E+00
   4.8343954E-04   7.1995084E+04   -1.6756236E+00
   4.8567212E-04   7.1441480E+04   -1.6750989E+00
   4.8791500E-04   7.0892305E+04   -1.6745749E+00
   4.9016825E-04   7.0347520E+04   -1.6740516E+00
   4.9243189E-04   6.9807091E+04   -1.6735290E+00
   4.9470600E-04   6.9270980E+04   -1.6730072E+00
   4.9699060E-04   6.8739151E+04   -1.6724861E+00
   4.9928575E-04   6.8211569E+04   -1.6719658E+00
   5.0159151E-04   6.7688198E+04   -1.6714462E+00
   5.0390791E-04   6.7169004E+04   -1.6709273E+00
   5.0623501E-04   6.6653951E+04   -1.6704092E+00
   5.0857286E-04   6.6143006E+04   -1.6698919E+00
   5.1092150E-04   6.5636133E+04   -1.6693753E+00
   5.1328099E-04   6.5133300E+04   -1.6688595E+00
   5.1565137E-04   6.4634473E+04   -1.6683445E+00
   5.1803270E-04   6.4139618E+04   -1.6678302E+00
   5.2042503E-04   6.3648703E+04   -1.6673167E+00
   5.2282841E-04   6.3161694E+04   -1.6668040E+00
   5.2524289E-04   6.2678559E+04   -1.6662921E+00
   5.2766851E-04   6.2199267E+04   -1.6657809E+00
   5.3010534E-04   6.1723784E+04   -1.6652706E+00
   5.3255342E-04   6.1252081E+04   -1.6647610E+00
   5.3501281E-04   6.0784125E+04   -1.6642523E+00
   5.3748356E-04   6.0319885E+04   -1.6637444E+00
   5.3996571E-04   5.9859331E+04   -1.6632372E+00
   5.4245933E-04   5.9402432E+04   -1.6627309E+00
   5.4496446E-04   5.8949159E+04   -1.6622254E+00
   5.4748117E-04   5.8499480E+04   -1.6617207E+00
   5.5000949E-04   5.8053366E+04   -1.6612168E+00
   5.5254949E-04   5.7610787E+04   -1.6607137E+00
   5.5510123E-04   5.7171716E+04   -1.6602115E+00
   5.5766474E-04   5.6736121E+04   -1.6597101E+00
   5.6024010E-04   5.6303976E+04   -1.6592095E+00
   5.6282734E-04   5.5875251E+04   -1.6587098E+00
   5.6542654E-04   5.5449918E+04   -1.6582109E+00
   5.6803774E-04   5.5027948E+04   -1.6577128E+00
   5.7066099E-04   5.4609316E+04   -1.6572156E+00
   5.7329637E-04   5.4193992E+04   -1.6567193E+00
   5.7594391E-04   5.3781950E+04   -1.6562237E+00
   5.7860368E-04   5.3373162E+04   -1.6557291E+00
   5.8127573E-04   5.2967602E+04   -1.6552353E+00
   5.8396012E-04   5.2565243E+04   -1.6547424E+00
   5.8665691E-04   5.2166059E+04   -1.6542503E+00
   5.8936616E-04   5.1770024E+04   -1.6537591E+00
   5.9208791E-04   5.1377112E+04   -1.6532687E+00
   5.9482223E-04   5.0987296E+04   -1.6527793E+00
   5.9756919E-04   5.0600553E+04   -1.6522907E+00
   6.0032882E-04   5.0216856E+04   -1.6518030E+00
   6.0310120E-04   4.9836180E+04   -1.6513161E+00
   6.0588639E-04   4.9458500E+04   -1.6508302E+00
   6.0868443E-04   4.9083793E+04   -1.6503451E+00
   6.1149540E-04   4.8712034E+04   -1.6498610E+00
   6.1431935E-04   4.8343198E+04   -1.6493777E+00
   6.1715634E-04   4.7977261E+04   -1.6488953E+00
   6.2000644E-04   4.7614200E+04   -1.6484138E+00
   6.2286969E-04   4.7253991E+04   -1.6479332E+00
