#        a       HoverH0(a)       dlogHdloga_of_a(a)
   1.0000000E-04   1.0750581E+06   -1.8705124E+00
   1.0046181E-04   1.0658338E+06   -1.8700698E+00
   1.0092575E-04   1.0566908E+06   -1.8696262E+00
   1.0139184E-04   1.0476284E+06   -1.8691817E+00
   1.0186008E-04   1.0386458E+06   -1.8687361E+00
   1.0233048E-04   1.0297423E+06   -1.8682896E+00
   1.0280305E-04   1.0209173E+06   -1.8678421E+00
   1.0327781E-04   1.0121700E+06   -1.8673936E+00
   1.0375475E-04   1.0034997E+06   -1.8669442E+00
   1.0423390E-04   9.9490577E+05   -1.8664938E+00
   1.0471527E-04   9.8638746E+05   -1.8660424E+00
   1.0519885E-04   9.7794413E+05   -1.8655901E+00
   1.0568467E-04   9.6957509E+05   -1.8651368E+00
   1.0617274E-04   9.6127969E+05   -1.8646825E+00
   1.0666305E-04   9.5305725E+05   -1.8642272E+00
   1.0715563E-04   9.4490713E+05   -1.8637711E+00
   1.0765049E-04   9.3682868E+05   -1.8633139E+00
   1.0814763E-04   9.2882125E+05   -1.8628558E+00
   1.0864707E-04   9.2088422E+05   -1.8623967E+00
   1.0914881E-04   9.1301693E+05   -1.8619367E+00
   1.0965287E-04   9.0521878E+05   -1.8614758E+00
   1.1015926E-04   8.9748915E+05   -1.8610138E+00
   1.1066799E-04   8.8982741E+05   -1.8605510E+00
   1.1117906E-04   8.8223296E+05   -1.8600872E+00
   1.1169250E-04   8.7470520E+05   -1.8596224E+00
   1.1220831E-04   8.6724353E+05   -1.8591568E+00
   1.1272650E-04   8.5984736E+05   -1.8586901E+00
   1.1324708E-04   8.5251610E+05   -1.8582226E+00
   1.1377007E-04   8.4524917E+05   -1.8577541E+00
   1.1429547E-04   8.3804600E+05   -1.8572847E+00
   1.1482330E-04   8.3090601E+05   -1.8568143E+00
   1.1535356E-04   8.2382864E+05   -1.8563430E+00
   1.1588628E-04   8.1681333E+05   -1.8558708E+00
   1.1642145E-04   8.0985952E+05   -1.8553977E+00
   1.1695910E-04   8.0296666E+05   -1.8549237E+00
   1.1749923E-04   7.9613421E+05   -1.8544487E+00
   1.1804185E-04   7.8936162E+05   -1.8539728E+00
   1.1858698E-04   7.8264836E+05   -1.8534960E+00
   1.1913463E-04   7.7599391E+05   -1.8530183E+00
   1.1968481E-04   7.6939773E+05   -1.8525397E+00
   1.2023752E-04   7.6285930E+05   -1.8520602E+00
   1.2079279E-04   7.5637812E+05   -1.8515798E+00
   1.2135063E-04   7.4995365E+05   -1.8510985E+00
   1.2191104E-04   7.4358541E+05   -1.8506163E+00
   1.2247403E-04   7.3727288E+05   -1.8501331E+00
   1.2303963E-04   7.3101557E+05   -1.8496491E+00
   1.2360784E-04   7.2481298E+05   -1.8491642E+00
   1.2417868E-04   7.1866463E+05   -1.8486785E+00
   1.2475215E-04   7.1257002E+05   -1.8481918E+00
   1.2532826E-04   7.0652869E+05   -1.8477043E+00
   1.2590704E-04   7.0054016E+05   -1.8472158E+00
   1.2648850E-04   6.9460394E+05   -1.8467265E+00
   1.2707263E-04   6.8871958E+05   -1.8462363E+00
   1.2765947E-04   6.8288662E+05   -1.8457453E+00
   1.2824901E-04   6.7710459E+05   -1.8452534E+00
   1.2884128E-04   6.7137304E+05   -1.8447606E+00
   1.2943628E-04   6.6569152E+05   -1.8442670E+00
   1.3003403E-04   6.6005959E+05   -1.8437725E+00
   1.3063454E-04   6.5447679E+05   -1.8432771E+00
   1.3123783E-04   6.4894269E+05   -1.8427809E+00
   1.3184390E-04   6.4345687E+05   -1.8422839E+00
   1.3245277E-04   6.3801887E+05   -1.8417860E+00
   1.3306445E-04   6.3262829E+05   -1.8412872E+00
   1.3367895E-04   6.2728470E+05   -1.8407876E+00
   1.3429630E-04   6.2198767E+05   -1.8402872E+00
   1.3491649E-04   6.1673680E+05   -1.8397860E+00
   1.3553955E-04   6.1153167E+05   -1.8392839E+00
   1.3616548E-04   6.0637187E+05   -1.8387810E+00
   1.3679431E-04   6.0125700E+05   -1.8382772E+00
   1.3742604E-04   5.9618667E+05   -1.8377727E+00
   1.3806069E-04   5.9116047E+05   -1.8372673E+00
   1.3869827E-04   5.8617800E+05   -1.8367611E+00
   1.3933879E-04   5.8123889E+05   -1.8362541E+00
   1.3998227E-04   5.7634274E+05   -1.8357463E+00
   1.4062872E-04   5.7148917E+05   -1.8352377E+00
   1.4127816E-04   5.6667781E+05   -1.8347283E+00
   1.4193060E-04   5.6190827E+05   -1.8342181E+00
   1.4258605E-04   5.5718018E+05   -1.8337071E+00
   1.4324453E-04   5.5249318E+05   -1.8331953E+00
   1.4390605E-04   5.4784690E+05   -1.8326827E+00
   1.4457062E-04   5.4324098E+05   -1.8321694E+00
   1.4523826E-04   5.3867506E+05   -1.8316553E+00
   1.4590899E-04   5.3414878E+05   -1.8311404E+00
   1.4658281E-04   5.2966179E+05   -1.8306247E+00
   1.4725974E-04   5.2521374E+05   -1.8301082E+00
   1.4793981E-04   5.2080429E+05   -1.8295910E+00
   1.4862301E-04   5.1643308E+05   -1.8290731E+00
   1.4930936E-04   5.1209979E+05   -1.8285543E+00
   1.4999889E-04   5.0780407E+05   -1.8280349E+00
   1.5069160E-04   5.0354560E+05   -1.8275147E+00
   1.5138751E-04   4.9932403E+05   -1.8269937E+00
   1.5208663E-04   4.9513904E+05   -1.8264720E+00
   1.5278899E-04   4.9099031E+05   -1.8259495E+00
   1.5349458E-04   4.8687752E+05   -1.8254264E+00
   1.5420343E-04   4.8280034E+05   -1.8249025E+00
   1.5491556E-04   4.7875846E+05   -1.8243779E+00
   1.5563098E-04   4.7475156E+05   -1.8238525E+00
   1.5634970E-04   4.7077935E+05   -1.8233264E+00
   1.5707174E-04   4.6684149E+05   -1.8227997E+00
   1.5779711E-04   4.6293771E+05   -1.8222722E+00
   1.5852584E-04   4.5906768E+05   -1.8217440E+00
   1.5925792E-04   4.5523111E+05   -1.8212151E+00
   1.5999339E-04   4.5142771E+05   -1.8206856E+00
   1.6073226E-04   4.4765717E+05   -1.8201553E+00
   1.6147454E-04   4.4391922E+05   -1.8196243E+00
   1.6222024E-04   4.4021355E+05   -1.8190927E+00
   1.6296939E-04   4.3653989E+05   -1.8185604E+00
   1.6372200E-04   4.3289795E+05   -1.8180274E+00
   1.6447809E-04   4.2928745E+05   -1.8174938E+00
   1.6523767E-04   4.2570811E+05   -1.8169594E+00
   1.6600075E-04   4.2215965E+05   -1.8164245E+00
   1.6676736E-04   4.1864180E+05   -1.8158888E+00
   1.6753751E-04   4.1515429E+05   -1.8153525E+00
   1.6831122E-04   4.1169685E+05   -1.8148156E+00
   1.6908849E-04   4.0826922E+05   -1.8142780E+00
   1.6986936E-04   4.0487112E+05   -1.8137398E+00
   1.7065384E-04   4.0150231E+05   -1.8132010E+00
   1.7144193E-04   3.9816252E+05   -1.8126615E+00
   1.7223367E-04   3.9485148E+05   -1.8121214E+00
   1.7302906E-04   3.9156896E+05   -1.8115807E+00
   1.7382813E-04   3.8831470E+05   -1.8110394E+00
   1.7463089E-04   3.8508844E+05   -1.8104974E+00
   1.7543735E-04   3.8188994E+05   -1.8099549E+00
   1.7624754E-04   3.7871895E+05   -1.8094117E+00
   1.7706147E-04   3.7557524E+05   -1.8088680E+00
   1.7787916E-04   3.7245855E+05   -1.8083237E+00
   1.7870062E-04   3.6936866E+05   -1.8077788E+00
   1.7952588E-04   3.6630531E+05   -1.8072333E+00
   1.8035495E-04   3.6326829E+05   -1.8066872E+00
   1.8118785E-04   3.6025735E+05   -1.8061405E+00
   1.8202459E-04   3.5727227E+05   -1.8055933E+00
   1.8286520E-04   3.5431282E+05   -1.8050456E+00
   1.8370969E-04   3.5137877E+05   -1.8044972E+00
   1.8455808E-04   3.4846990E+05   -1.8039484E+00
   1.8541039E-04   3.4558598E+05   -1.8033989E+00
   1.8626663E-04   3.4272680E+05   -1.8028490E+00
   1.8712683E-04   3.3989213E+05   -1.8022985E+00
   1.8799100E-04   3.3708177E+05   -1.8017474E+00
   1.8885917E-04   3.3429549E+05   -1.8011959E+00
   1.8973134E-04   3.3153309E+05   -1.8006438E+00
   1.9060754E-04   3.2879435E+05   -1.8000912E+00
   1.9148778E-04   3.2607906E+05   -1.7995381E+00
   1.9237209E-04   3.2338702E+05   -1.7989845E+00
   1.9326049E-04   3.2071803E+05   -1.7984304E+00
   1.9415299E-04   3.1807187E+05   -1.7978758E+00
   1.9504960E-04   3.1544836E+05   -1.7973207E+00
   1.9595036E-04   3.1284728E+05   -1.7967651E+00
   1.9685528E-04   3.1026845E+05   -1.7962090E+00
   1.9776438E-04   3.0771167E+05   -1.7956525E+00
   1.9867768E-04   3.0517673E+05   -1.7950955E+00
   1.9959519E-04   3.0266346E+05   -1.7945380E+00
   2.0051694E-04   3.0017165E+05   -1.7939801E+00
   2.0144295E-04   2.9770113E+05   -1.7934217E+00
   2.0237324E-04   2.9525170E+05   -1.7928629E+00
   2.0330782E-04   2.9282317E+05   -1.7923036E+00
   2.0424671E-04   2.9041537E+05   -1.7917439E+00
   2.0518995E-04   2.8802811E+05   -1.7911838E+00
   2.0613754E-04   2.8566121E+05   -1.7906232E+00
   2.0708950E-04   2.8331450E+05   -1.7900622E+00
   2.0804586E-04   2.8098779E+05   -1.7895008E+00
   2.0900664E-04   2.7868091E+05   -1.7889390E+00
   2.0997185E-04   2.7639368E+05   -1.7883768E+00
   2.1094152E-04   2.7412594E+05   -1.7878142E+00
   2.1191567E-04   2.7187751E+05   -1.7872512E+00
   2.1289432E-04   2.6964822E+05   -1.7866878E+00
   2.1387749E-04   2.6743790E+05   -1.7861241E+00
   2.1486520E-04   2.6524639E+05   -1.7855599E+00
   2.1585747E-04   2.6307352E+05   -1.7849954E+00
   2.1685432E-04   2.6091913E+05   -1.7844305E+00
   2.1785578E-04   2.5878306E+05   -1.7838653E+00
   2.1886186E-04   2.5666515E+05   -1.7832997E+00
   2.1987259E-04   2.5456523E+05   -1.7827338E+00
   2.2088798E-04   2.5248315E+05   -1.7821675E+00
   2.2190807E-04   2.5041875E+05   -1.7816009E+00
   2.2293286E-04   2.4837188E+05   -1.7810339E+00
   2.2396239E-04   2.4634239E+05   -1.7804667E+00
   2.2499667E-04   2.4433012E+05   -1.7798991E+00
   2.2603573E-04   2.4233492E+05   -1.7793312E+00
   2.2707958E-04   2.4035664E+05   -1.7787629E+00
   2.2812826E-04   2.3839513E+05   -1.7781944E+00
   2.2918178E-04   2.3645025E+05   -1.7776256E+00
   2.3024017E-04   2.3452185E+05   -1.7770565E+00
   2.3130344E-04   2.3260979E+05   -1.7764871E+00
   2.3237162E-04   2.3071393E+05   -1.7759175E+00
   2.3344474E-04   2.2883412E+05   -1.7753476E+00
   2.3452281E-04   2.2697022E+05   -1.7747774E+00
   2.3560586E-04   2.2512209E+05   -1.7742069E+00
   2.3669392E-04   2.2328960E+05   -1.7736362E+00
   2.3778699E-04   2.2147261E+05   -1.7730652E+00
   2.3888512E-04   2.1967098E+05   -1.7724940E+00
   2.3998831E-04   2.1788458E+05   -1.7719226E+00
   2.4109661E-04   2.1611328E+05   -1.7713509E+00
   2.4221001E-04   2.1435694E+05   -1.7707790E+00
   2.4332857E-04   2.1261544E+05   -1.7702069E+00
   2.4445228E-04   2.1088864E+05   -1.7696345E+00
   2.4558119E-04   2.0917641E+05   -1.7690620E+00
   2.4671531E-04   2.0747864E+05   -1.7684892E+00
   2.4785467E-04   2.0579519E+05   -1.7679163E+00
   2.4899928E-04   2.0412594E+05   -1.7673432E+00
   2.5014919E-04   2.0247076E+05   -1.7667699E+00
   2.5130440E-04   2.0082953E+05   -1.7661964E+00
   2.5246495E-04   1.9920214E+05   -1.7656227E+00
   2.5363086E-04   1.9758845E+05   -1.7650489E+00
   2.5480216E-04   1.9598835E+05   -1.7644749E+00
   2.5597886E-04   1.9440173E+05   -1.7639007E+00
   2.5716100E-04   1.9282846E+05   -1.7633265E+00
   2.5834859E-04   1.9126843E+05   -1.7627520E+00
   2.5954168E-04   1.8972152E+05   -1.7621775E+00
   2.6074027E-04   1.8818762E+05   -1.7616028E+00
   2.6194439E-04   1.8666662E+05   -1.7610280E+00
   2.6315408E-04   1.8515840E+05   -1.7604530E+00
   2.6436935E-04   1.8366285E+05   -1.7598780E+00
   2.6559024E-04   1.8217987E+05   -1.7593028E+00
   2.6681676E-04   1.8070934E+05   -1.7587276E+00
   2.6804895E-04   1.7925115E+05   -1.7581522E+00
   2.6928683E-04   1.7780520E+05   -1.7575768E+00
   2.7053042E-04   1.7637139E+05   -1.7570013E+00
   2.7177976E-04   1.7494960E+05   -1.7564257E+00
   2.7303487E-04   1.7353973E+05   -1.7558500E+00
   2.7429577E-04   1.7214168E+05   -1.7552743E+00
   2.7556250E-04   1.7075534E+05   -1.7546985E+00
   2.7683507E-04   1.6938062E+05   -1.7541227E+00
   2.7811353E-04   1.6801742E+05   -1.7535469E+00
   2.7939788E-04   1.6666562E+05   -1.7529709E+00
   2.8068817E-04   1.6532515E+05   -1.7523950E+00
   2.8198442E-04   1.6399588E+05   -1.7518190E+00
   2.8328665E-04   1.6267774E+05   -1.7512431E+00
   2.8459490E-04   1.6137062E+05   -1.7506671E+00
   2.8590919E-04   1.6007443E+05   -1.7500911E+00
   2.8722955E-04   1.5878907E+05   -1.7495150E+00
   2.8855600E-04   1.5751445E+05   -1.7489390E+00
   2.8988859E-04   1.5625048E+05   -1.7483631E+00
   2.9122732E-04   1.5499706E+05   -1.7477871E+00
   2.9257224E-04   1.5375410E+05   -1.7472111E+00
   2.9392337E-04   1.5252151E+05   -1.7466352E+00
   2.9528074E-04   1.5129921E+05   -1.7460593E+00
   2.9664438E-04   1.5008710E+05   -1.7454835E+00
   2.9801431E-04   1.4888510E+05   -1.7449077E+00
   2.9939057E-04   1.4769312E+05   -1.7443319E+00
   3.0077319E-04   1.4651106E+05   -1.7437562E+00
   3.0216219E-04   1.4533886E+05   -1.7431806E+00
   3.0355761E-04   1.4417641E+05   -1.7426051E+00
   3.0495947E-04   1.4302364E+05   -1.7420296E+00
   3.0636780E-04   1.4188047E+05   -1.7414542E+00
   3.0778264E-04   1.4074680E+05   -1.7408789E+00
   3.0920401E-04   1.3962256E+05   -1.7403037E+00
   3.1063195E-04   1.3850767E+05   -1.7397286E+00
   3.1206648E-04   1.3740205E+05   -1.7391536E+00
   3.1350764E-04   1.3630561E+05   -1.7385788E+00
   3.1495545E-04   1.3521828E+05   -1.7380040E+00
   3.1640994E-04   1.3413998E+05   -1.7374294E+00
   3.1787116E-04   1.3307063E+05   -1.7368549E+00
   3.1933912E-04   1.3201016E+05   -1.7362805E+00
   3.2081386E-04   1.3095848E+05   -1.7357063E+00
   3.2229541E-04   1.2991553E+05   -1.7351322E+00
   3.2378381E-04   1.2888122E+05   -1.7345583E+00
   3.2527908E-04   1.2785548E+05   -1.7339846E+00
   3.2678125E-04   1.2683824E+05   -1.7334110E+00
   3.2829036E-04   1.2582943E+05   -1.7328376E+00
   3.2980644E-04   1.2482897E+05   -1.7322644E+00
   3.3132952E-04   1.2383680E+05   -1.7316914E+00
   3.3285963E-04   1.2285283E+05   -1.7311185E+00
   3.3439681E-04   1.2187701E+05   -1.7305459E+00
   3.3594109E-04   1.2090925E+05   -1.7299735E+00
   3.3749250E-04   1.1994949E+05   -1.7294012E+00
   3.3905108E-04   1.1899767E+05   -1.7288292E+00
   3.4061685E-04   1.1805371E+05   -1.7282574E+00
   3.4218986E-04   1.1711755E+05   -1.7276859E+00
   3.4377013E-04   1.1618912E+05   -1.7271146E+00
   3.4535769E-04   1.1526835E+05   -1.7265435E+00
   3.4695259E-04   1.1435517E+05   -1.7259726E+00
   3.4855485E-04   1.1344953E+05   -1.7254020E+00
   3.5016452E-04   1.1255136E+05   -1.7248317E+00
   3.5178161E-04   1.1166059E+05   -1.7242617E+00
   3.5340618E-04   1.1077717E+05   -1.7236919E+00
   3.5503824E-04   1.0990102E+05   -1.7231223E+00
   3.5667785E-04   1.0903209E+05   -1.7225531E+00
   3.5832502E-04   1.0817031E+05   -1.7219842E+00
   3.5997981E-04   1.0731562E+05   -1.7214155E+00
   3.6164223E-04   1.0646796E+05   -1.7208471E+00
   3.6331233E-04   1.0562728E+05   -1.7202791E+00
   3.6499015E-04   1.0479351E+05   -1.7197114E+00
   3.6667571E-04   1.0396659E+05   -1.7191439E+00
   3.6836906E-04   1.0314647E+05   -1.7185768E+00
   3.7007022E-04   1.0233309E+05   -1.7180100E+00
   3.7177925E-04   1.0152638E+05   -1.7174436E+00
   3.7349616E-04   1.0072630E+05   -1.7168775E+00
   3.7522101E-04   9.9932776E+04   -1.7163117E+00
   3.7695382E-04   9.9145767E+04   -1.7157463E+00
   3.7869463E-04   9.8365212E+04   -1.7151813E+00
   3.8044348E-04   9.7591057E+04   -1.7146166E+00
   3.8220041E-04   9.6823246E+04   -1.7140523E+00
   3.8396545E-04   9.6061726E+04   -1.7134883E+00
   3.8573864E-04   9.5306442E+04   -1.7129247E+00
   3.8752002E-04   9.4557342E+04   -1.7123616E+00
   3.8930963E-04   9.3814374E+04   -1.7117988E+00
   3.9110750E-04   9.3077484E+04   -1.7112364E+00
   3.9291368E-04   9.2346622E+04   -1.7106743E+00
   3.9472820E-04   9.1621736E+04   -1.7101128E+00
   3.9655109E-04   9.0902775E+04   -1.7095516E+00
   3.9838241E-04   9.0189689E+04   -1.7089908E+00
   4.0022218E-04   8.9482427E+04   -1.7084305E+00
   4.0207045E-04   8.8780941E+04   -1.7078705E+00
   4.0392725E-04   8.8085182E+04   -1.7073111E+00
   4.0579263E-04   8.7395101E+04   -1.7067520E+00
   4.0766662E-04   8.6710649E+04   -1.7061934E+00
   4.0954927E-04   8.6031778E+04   -1.7056353E+00
   4.1144061E-04   8.5358442E+04   -1.7050776E+00
   4.1334068E-04   8.4690594E+04   -1.7045204E+00
   4.1524953E-04   8.4028186E+04   -1.7039636E+00
   4.1716720E-04   8.3371173E+04   -1.7034073E+00
   4.1909372E-04   8.2719509E+04   -1.7028515E+00
   4.2102914E-04   8.2073149E+04   -1.7022961E+00
   4.2297350E-04   8.1432048E+04   -1.7017413E+00
   4.2492683E-04   8.0796161E+04   -1.7011869E+00
   4.2688919E-04   8.0165445E+04   -1.7006331E+00
   4.2886061E-04   7.9539854E+04   -1.7000797E+00
   4.3084113E-04   7.8919347E+04   -1.6995269E+00
   4.3283080E-04   7.8303880E+04   -1.6989745E+00
   4.3482966E-04   7.7693411E+04   -1.6984227E+00
   4.3683775E-04   7.7087896E+04   -1.6978714E+00
   4.3885511E-04   7.6487295E+04   -1.6973207E+00
   4.4088179E-04   7.5891566E+04   -1.6967704E+00
   4.4291783E-04   7.5300668E+04   -1.6962208E+00
   4.4496327E-04   7.4714559E+04   -1.6956716E+00
   4.4701816E-04   7.4133200E+04   -1.6951230E+00
   4.4908253E-04   7.3556550E+04   -1.6945750E+00
   4.5115644E-04   7.2984570E+04   -1.6940275E+00
   4.5323993E-04   7.2417221E+04   -1.6934806E+00
   4.5533304E-04   7.1854462E+04   -1.6929342E+00
   4.5743582E-04   7.1296257E+04   -1.6923884E+00
   4.5954830E-04   7.0742565E+04   -1.6918432E+00
   4.6167054E-04   7.0193350E+04   -1.6912986E+00
   4.6380259E-04   6.9648574E+04   -1.6907546E+00
   4.6594448E-04   6.9108198E+04   -1.6902111E+00
   4.6809626E-04   6.8572187E+04   -1.6896683E+00
   4.7025797E-04   6.8040503E+04   -1.6891260E+00
   4.7242967E-04   6.7513110E+04   -1.6885844E+00
   4.7461140E-04   6.6989972E+04   -1.6880434E+00
   4.7680321E-04   6.6471053E+04   -1.6875030E+00
   4.7900514E-04   6.5956319E+04   -1.6869632E+00
   4.8121723E-04   6.5445732E+04   -1.6864240E+00
   4.8343954E-04   6.4939260E+04   -1.6858855E+00
   4.8567212E-04   6.4436867E+04   -1.6853476E+00
   4.8791500E-04   6.3938519E+04   -1.6848104E+00
   4.9016825E-04   6.3444182E+04   -1.6842738E+00
   4.9243189E-04   6.2953823E+04   -1.6837378E+00
   4.9470600E-04   6.2467408E+04   -1.6832025E+00
   4.9699060E-04   6.1984904E+04   -1.6826679E+00
   4.9928575E-04   6.1506278E+04   -1.6821339E+00
   5.0159151E-04   6.1031498E+04   -1.6816006E+00
   5.0390791E-04   6.0560531E+04   -1.6810679E+00
   5.0623501E-04   6.0093347E+04   -1.6805359E+00
   5.0857286E-04   5.9629912E+04   -1.6800046E+00
   5.1092150E-04   5.9170196E+04   -1.6794740E+00
   5.1328099E-04   5.8714168E+04   -1.6789441E+00
   5.1565137E-04   5.8261797E+04   -1.6784149E+00
   5.1803270E-04   5.7813052E+04   -1.6778863E+00
   5.2042503E-04   5.7367903E+04   -1.6773585E+00
   5.2282841E-04   5.6926319E+04   -1.6768314E+00
   5.2524289E-04   5.6488272E+04   -1.6763050E+00
   5.2766851E-04   5.6053732E+04   -1.6757793E+00
   5.3010534E-04   5.5622669E+04   -1.6752543E+00
   5.3255342E-04   5.5195054E+04   -1.6747300E+00
   5.3501281E-04   5.4770859E+04   -1.6742065E+00
   5.3748356E-04   5.4350054E+04   -1.6736837E+00
   5.3996571E-04   5.3932613E+04   -1.6731616E+00
   5.4245933E-04   5.3518507E+04   -1.6726402E+00
   5.4496446E-04   5.3107708E+04   -1.6721196E+00
   5.4748117E-04   5.2700188E+04   -1.6715998E+00
   5.5000949E-04   5.2295921E+04   -1.6710807E+00
   5.5254949E-04   5.1894878E+04   -1.6705623E+00
   5.5510123E-04   5.1497034E+04   -1.6700448E+00
   5.5766474E-04   5.1102362E+04   -1.6695279E+00
   5.6024010E-04   5.0710836E+04   -1.6690119E+00
   5.6282734E-04   5.0322428E+04   -1.6684966E+00
   5.6542654E-04   4.9937114E+04   -1.6679820E+00
   5.6803774E-04   4.9554868E+04   -1.6674683E+00
   5.7066099E-04   4.9175664E+04   -1.6669553E+00
   5.7329637E-04   4.8799477E+04   -1.6664431E+00
   5.7594391E-04   4.8426282E+04   -1.6659317E+00
   5.7860368E-04   4.8056054E+04   -1.6654211E+00
   5.8127573E-04   4.7688768E+04   -1.6649113E+00
   5.8396012E-04   4.7324401E+04   -1.6644023E+00
   5.8665691E-04   4.6962928E+04   -1.6638941E+00
   5.8936616E-04   4.6604325E+04   -1.6633867E+00
   5.9208791E-04   4.6248568E+04   -1.6628801E+00
   5.9482223E-04   4.5895634E+04   -1.6623743E+00
   5.9756919E-04   4.5545499E+04   -1.6618693E+00
   6.0032882E-04   4.5198141E+04   -1.6613652E+00
   6.0310120E-04   4.4853536E+04   -1.6608618E+00
   6.0588639E-04   4.4511661E+04   -1.6603593E+00
   6.0868443E-04   4.4172494E+04   -1.6598576E+00
   6.1149540E-04   4.3836013E+04   -1.6593568E+00
   6.1431935E-04   4.3502195E+04   -1.6588568E+00
   6.1715634E-04   4.3171019E+04   -1.6583576E+00
   6.2000644E-04   4.2842462E+04   -1.6578592E+00
   6.2286969E-04   4.2516504E+04   -1.6573617E+00
