#        a       HoverH0(a)       dlogHdloga_of_a(a)
   1.0000000E-04   1.2279951E+06   -1.8717125E+00
   1.0046181E-04   1.2174518E+06   -1.8712725E+00
   1.0092575E-04   1.2070014E+06   -1.8708316E+00
   1.0139184E-04   1.1966433E+06   -1.8703897E+00
   1.0186008E-04   1.1863764E+06   -1.8699468E+00
   1.0233048E-04   1.1762000E+06   -1.8695030E+00
   1.0280305E-04   1.1661133E+06   -1.8690581E+00
   1.0327781E-04   1.1561154E+06   -1.8686123E+00
   1.0375475E-04   1.1462057E+06   -1.8681655E+00
   1.0423390E-04   1.1363832E+06   -1.8677178E+00
   1.0471527E-04   1.1266472E+06   -1.8672690E+00
   1.0519885E-04   1.1169969E+06   -1.8668193E+00
   1.0568467E-04   1.1074316E+06   -1.8663686E+00
   1.0617274E-04   1.0979505E+06   -1.8659170E+00
   1.0666305E-04   1.0885529E+06   -1.8654644E+00
   1.0715563E-04   1.0792379E+06   -1.8650108E+00
   1.0765049E-04   1.0700049E+06   -1.8645563E+00
   1.0814763E-04   1.0608531E+06   -1.8641008E+00
   1.0864707E-04   1.0517817E+06   -1.8636443E+00
   1.0914881E-04   1.0427902E+06   -1.8631869E+00
   1.0965287E-04   1.0338777E+06   -1.8627285E+00
   1.1015926E-04   1.0250435E+06   -1.8622692E+00
   1.1066799E-04   1.0162869E+06   -1.8618089E+00
   1.1117906E-04   1.0076074E+06   -1.8613477E+00
   1.1169250E-04   9.9900401E+05   -1.8608855E+00
   1.1220831E-04   9.9047624E+05   -1.8604224E+00
   1.1272650E-04   9.8202336E+05   -1.8599583E+00
   1.1324708E-04   9.7364471E+05   -1.8594933E+00
   1.1377007E-04   9.6533961E+05   -1.8590274E+00
   1.1429547E-04   9.5710741E+05   -1.8585605E+00
   1.1482330E-04   9.4894746E+05   -1.8580927E+00
   1.1535356E-04   9.4085911E+05   -1.8576239E+00
   1.1588628E-04   9.3284171E+05   -1.8571542E+00
   1.1642145E-04   9.2489463E+05   -1.8566836E+00
   1.1695910E-04   9.1701725E+05   -1.8562121E+00
   1.1749923E-04   9.0920894E+05   -1.8557396E+00
   1.1804185E-04   9.0146908E+05   -1.8552663E+00
   1.1858698E-04   8.9379706E+05   -1.8547920E+00
   1.1913463E-04   8.8619227E+05   -1.8543167E+00
   1.1968481E-04   8.7865411E+05   -1.8538406E+00
   1.2023752E-04   8.7118198E+05   -1.8533636E+00
   1.2079279E-04   8.6377530E+05   -1.8528856E+00
   1.2135063E-04   8.5643348E+05   -1.8524068E+00
   1.2191104E-04   8.4915593E+05   -1.8519270E+00
   1.2247403E-04   8.4194209E+05   -1.8514463E+00
   1.2303963E-04   8.3479139E+05   -1.8509647E+00
   1.2360784E-04   8.2770325E+05   -1.8504823E+00
   1.2417868E-04   8.2067713E+05   -1.8499989E+00
   1.2475215E-04   8.1371246E+05   -1.8495147E+00
   1.2532826E-04   8.0680869E+05   -1.8490295E+00
   1.2590704E-04   7.9996530E+05   -1.8485435E+00
   1.2648850E-04   7.9318172E+05   -1.8480566E+00
   1.2707263E-04   7.8645743E+05   -1.8475688E+00
   1.2765947E-04   7.7979191E+05   -1.8470801E+00
   1.2824901E-04   7.7318462E+05   -1.8465906E+00
   1.2884128E-04   7.6663505E+05   -1.8461002E+00
   1.2943628E-04   7.6014267E+05   -1.8456089E+00
   1.3003403E-04   7.5370699E+05   -1.8451167E+00
   1.3063454E-04   7.4732749E+05   -1.8446237E+00
   1.3123783E-04   7.4100367E+05   -1.8441298E+00
   1.3184390E-04   7.3473503E+05   -1.8436351E+00
   1.3245277E-04   7.2852109E+05   -1.8431395E+00
   1.3306445E-04   7.2236135E+05   -1.8426431E+00
   1.3367895E-04   7.1625533E+05   -1.8421458E+00
   1.3429630E-04   7.1020256E+05   -1.8416476E+00
   1.3491649E-04   7.0420255E+05   -1.8411487E+00
   1.3553955E-04   6.9825484E+05   -1.8406488E+00
   1.3616548E-04   6.9235896E+05   -1.8401482E+00
   1.3679431E-04   6.8651444E+05   -1.8396467E+00
   1.3742604E-04   6.8072084E+05   -1.8391444E+00
   1.3806069E-04   6.7497770E+05   -1.8386412E+00
   1.3869827E-04   6.6928456E+05   -1.8381373E+00
   1.3933879E-04   6.6364098E+05   -1.8376325E+00
   1.3998227E-04   6.5804652E+05   -1.8371269E+00
   1.4062872E-04   6.5250075E+05   -1.8366205E+00
   1.4127816E-04   6.4700322E+05   -1.8361133E+00
   1.4193060E-04   6.4155351E+05   -1.8356052E+00
   1.4258605E-04   6.3615120E+05   -1.8350964E+00
   1.4324453E-04   6.3079585E+05   -1.8345868E+00
   1.4390605E-04   6.2548706E+05   -1.8340764E+00
   1.4457062E-04   6.2022441E+05   -1.8335651E+00
   1.4523826E-04   6.1500749E+05   -1.8330531E+00
   1.4590899E-04   6.0983588E+05   -1.8325404E+00
   1.4658281E-04   6.0470920E+05   -1.8320268E+00
   1.4725974E-04   5.9962703E+05   -1.8315124E+00
   1.4793981E-04   5.9458899E+05   -1.8309973E+00
   1.4862301E-04   5.8959467E+05   -1.8304814E+00
   1.4930936E-04   5.8464370E+05   -1.8299648E+00
   1.4999889E-04   5.7973568E+05   -1.8294474E+00
   1.5069160E-04   5.7487024E+05   -1.8289292E+00
   1.5138751E-04   5.7004699E+05   -1.8284102E+00
   1.5208663E-04   5.6526556E+05   -1.8278906E+00
   1.5278899E-04   5.6052558E+05   -1.8273701E+00
   1.5349458E-04   5.5582668E+05   -1.8268490E+00
   1.5420343E-04   5.5116849E+05   -1.8263271E+00
   1.5491556E-04   5.4655066E+05   -1.8258044E+00
   1.5563098E-04   5.4197283E+05   -1.8252810E+00
   1.5634970E-04   5.3743463E+05   -1.8247569E+00
   1.5707174E-04   5.3293573E+05   -1.8242321E+00
   1.5779711E-04   5.2847576E+05   -1.8237066E+00
   1.5852584E-04   5.2405439E+05   -1.8231803E+00
   1.5925792E-04   5.1967127E+05   -1.8226533E+00
   1.5999339E-04   5.1532605E+05   -1.8221257E+00
   1.6073226E-04   5.1101842E+05   -1.8215973E+00
   1.6147454E-04   5.0674803E+05   -1.8210682E+00
   1.6222024E-04   5.0251455E+05   -1.8205384E+00
   1.6296939E-04   4.9831765E+05   -1.8200080E+00
   1.6372200E-04   4.9415702E+05   -1.8194768E+00
   1.6447809E-04   4.9003232E+05   -1.8189450E+00
   1.6523767E-04   4.8594324E+05   -1.8184125E+00
   1.6600075E-04   4.8188947E+05   -1.8178793E+00
   1.6676736E-04   4.7787069E+05   -1.8173455E+00
   1.6753751E-04   4.7388659E+05   -1.8168110E+00
   1.6831122E-04   4.6993686E+05   -1.8162758E+00
   1.6908849E-04   4.6602121E+05   -1.8157400E+00
   1.6986936E-04   4.6213932E+05   -1.8152036E+00
   1.7065384E-04   4.5829090E+05   -1.8146664E+00
   1.7144193E-04   4.5447565E+05   -1.8141287E+00
   1.7223367E-04   4.5069329E+05   -1.8135903E+00
   1.7302906E-04   4.4694351E+05   -1.8130513E+00
   1.7382813E-04   4.4322603E+05   -1.8125116E+00
   1.7463089E-04   4.3954056E+05   -1.8119714E+00
   1.7543735E-04   4.3588683E+05   -1.8114305E+00
   1.7624754E-04   4.3226455E+05   -1.8108890E+00
   1.7706147E-04   4.2867343E+05   -1.8103469E+00
   1.7787916E-04   4.2511322E+05   -1.8098042E+00
   1.7870062E-04   4.2158362E+05   -1.8092609E+00
   1.7952588E-04   4.1808438E+05   -1.8087169E+00
   1.8035495E-04   4.1461522E+05   -1.8081725E+00
   1.8118785E-04   4.1117588E+05   -1.8076274E+00
   1.8202459E-04   4.0776610E+05   -1.8070817E+00
   1.8286520E-04   4.0438561E+05   -1.8065355E+00
   1.8370969E-04   4.0103415E+05   -1.8059887E+00
   1.8455808E-04   3.9771148E+05   -1.8054413E+00
   1.8541039E-04   3.9441733E+05   -1.8048934E+00
   1.8626663E-04   3.9115145E+05   -1.8043449E+00
   1.8712683E-04   3.8791359E+05   -1.8037959E+00
   1.8799100E-04   3.8470351E+05   -1.8032463E+00
   1.8885917E-04   3.8152096E+05   -1.8026962E+00
   1.8973134E-04   3.7836570E+05   -1.8021455E+00
   1.9060754E-04   3.7523748E+05   -1.8015944E+00
   1.9148778E-04   3.7213608E+05   -1.8010427E+00
   1.9237209E-04   3.6906124E+05   -1.8004904E+00
   1.9326049E-04   3.6601275E+05   -1.7999377E+00
   1.9415299E-04   3.6299036E+05   -1.7993844E+00
   1.9504960E-04   3.5999384E+05   -1.7988307E+00
   1.9595036E-04   3.5702298E+05   -1.7982764E+00
   1.9685528E-04   3.5407753E+05   -1.7977217E+00
   1.9776438E-04   3.5115729E+05   -1.7971665E+00
   1.9867768E-04   3.4826201E+05   -1.7966107E+00
   1.9959519E-04   3.4539150E+05   -1.7960545E+00
   2.0051694E-04   3.4254552E+05   -1.7954979E+00
   2.0144295E-04   3.3972387E+05   -1.7949407E+00
   2.0237324E-04   3.3692632E+05   -1.7943832E+00
   2.0330782E-04   3.3415267E+05   -1.7938251E+00
   2.0424671E-04   3.3140271E+05   -1.7932666E+00
   2.0518995E-04   3.2867622E+05   -1.7927076E+00
   2.0613754E-04   3.2597300E+05   -1.7921483E+00
   2.0708950E-04   3.2329285E+05   -1.7915884E+00
   2.0804586E-04   3.2063557E+05   -1.7910282E+00
   2.0900664E-04   3.1800094E+05   -1.7904675E+00
   2.0997185E-04   3.1538878E+05   -1.7899064E+00
   2.1094152E-04   3.1279889E+05   -1.7893449E+00
   2.1191567E-04   3.1023107E+05   -1.7887830E+00
   2.1289432E-04   3.0768512E+05   -1.7882206E+00
   2.1387749E-04   3.0516086E+05   -1.7876579E+00
   2.1486520E-04   3.0265809E+05   -1.7870948E+00
   2.1585747E-04   3.0017662E+05   -1.7865313E+00
   2.1685432E-04   2.9771628E+05   -1.7859675E+00
   2.1785578E-04   2.9527687E+05   -1.7854032E+00
   2.1886186E-04   2.9285821E+05   -1.7848386E+00
   2.1987259E-04   2.9046011E+05   -1.7842736E+00
   2.2088798E-04   2.8808240E+05   -1.7837083E+00
   2.2190807E-04   2.8572491E+05   -1.7831426E+00
   2.2293286E-04   2.8338744E+05   -1.7825766E+00
   2.2396239E-04   2.8106983E+05   -1.7820102E+00
   2.2499667E-04   2.7877190E+05   -1.7814435E+00
   2.2603573E-04   2.7649348E+05   -1.7808764E+00
   2.2707958E-04   2.7423439E+05   -1.7803091E+00
   2.2812826E-04   2.7199448E+05   -1.7797414E+00
   2.2918178E-04   2.6977357E+05   -1.7791734E+00
   2.3024017E-04   2.6757149E+05   -1.7786051E+00
   2.3130344E-04   2.6538808E+05   -1.7780365E+00
   2.3237162E-04   2.6322318E+05   -1.7774676E+00
   2.3344474E-04   2.6107662E+05   -1.7768984E+00
   2.3452281E-04   2.5894825E+05   -1.7763290E+00
   2.3560586E-04   2.5683790E+05   -1.7757592E+00
   2.3669392E-04   2.5474543E+05   -1.7751892E+00
   2.3778699E-04   2.5267066E+05   -1.7746190E+00
   2.3888512E-04   2.5061345E+05   -1.7740484E+00
   2.3998831E-04   2.4857364E+05   -1.7734776E+00
   2.4109661E-04   2.4655108E+05   -1.7729066E+00
   2.4221001E-04   2.4454562E+05   -1.7723353E+00
   2.4332857E-04   2.4255712E+05   -1.7717638E+00
   2.4445228E-04   2.4058541E+05   -1.7711921E+00
   2.4558119E-04   2.3863037E+05   -1.7706201E+00
   2.4671531E-04   2.3669183E+05   -1.7700479E+00
   2.4785467E-04   2.3476966E+05   -1.7694755E+00
   2.4899928E-04   2.3286372E+05   -1.7689029E+00
   2.5014919E-04   2.3097386E+05   -1.7683301E+00
   2.5130440E-04   2.2909994E+05   -1.7677571E+00
   2.5246495E-04   2.2724182E+05   -1.7671839E+00
   2.5363086E-04   2.2539937E+05   -1.7666106E+00
   2.5480216E-04   2.2357245E+05   -1.7660370E+00
   2.5597886E-04   2.2176092E+05   -1.7654633E+00
   2.5716100E-04   2.1996465E+05   -1.7648895E+00
   2.5834859E-04   2.1818351E+05   -1.7643154E+00
   2.5954168E-04   2.1641736E+05   -1.7637412E+00
   2.6074027E-04   2.1466608E+05   -1.7631669E+00
   2.6194439E-04   2.1292954E+05   -1.7625924E+00
   2.6315408E-04   2.1120760E+05   -1.7620178E+00
   2.6436935E-04   2.0950014E+05   -1.7614431E+00
   2.6559024E-04   2.0780703E+05   -1.7608683E+00
   2.6681676E-04   2.0612815E+05   -1.7602933E+00
   2.6804895E-04   2.0446338E+05   -1.7597182E+00
   2.6928683E-04   2.0281260E+05   -1.7591430E+00
   2.7053042E-04   2.0117567E+05   -1.7585677E+00
   2.7177976E-04   1.9955248E+05   -1.7579924E+00
   2.7303487E-04   1.9794292E+05   -1.7574169E+00
   2.7429577E-04   1.9634685E+05   -1.7568414E+00
   2.7556250E-04   1.9476418E+05   -1.7562658E+00
   2.7683507E-04   1.9319477E+05   -1.7556901E+00
   2.7811353E-04   1.9163852E+05   -1.7551144E+00
   2.7939788E-04   1.9009531E+05   -1.7545386E+00
   2.8068817E-04   1.8856503E+05   -1.7539627E+00
   2.8198442E-04   1.8704756E+05   -1.7533869E+00
   2.8328665E-04   1.8554279E+05   -1.7528109E+00
   2.8459490E-04   1.8405062E+05   -1.7522350E+00
   2.8590919E-04   1.8257094E+05   -1.7516590E+00
   2.8722955E-04   1.8110363E+05   -1.7510830E+00
   2.8855600E-04   1.7964859E+05   -1.7505070E+00
   2.8988859E-04   1.7820571E+05   -1.7499310E+00
   2.9122732E-04   1.7677489E+05   -1.7493550E+00
   2.9257224E-04   1.7535603E+05   -1.7487790E+00
   2.9392337E-04   1.7394901E+05   -1.7482030E+00
   2.9528074E-04   1.7255374E+05   -1.7476270E+00
   2.9664438E-04   1.7117012E+05   -1.7470511E+00
   2.9801431E-04   1.6979805E+05   -1.7464752E+00
   2.9939057E-04   1.6843741E+05   -1.7458993E+00
   3.0077319E-04   1.6708813E+05   -1.7453235E+00
   3.0216219E-04   1.6575009E+05   -1.7447477E+00
   3.0355761E-04   1.6442321E+05   -1.7441720E+00
   3.0495947E-04   1.6310738E+05   -1.7435963E+00
   3.0636780E-04   1.6180251E+05   -1.7430207E+00
   3.0778264E-04   1.6050850E+05   -1.7424451E+00
   3.0920401E-04   1.5922526E+05   -1.7418697E+00
   3.1063195E-04   1.5795270E+05   -1.7412943E+00
   3.1206648E-04   1.5669073E+05   -1.7407191E+00
   3.1350764E-04   1.5543926E+05   -1.7401439E+00
   3.1495545E-04   1.5419818E+05   -1.7395688E+00
   3.1640994E-04   1.5296742E+05   -1.7389939E+00
   3.1787116E-04   1.5174689E+05   -1.7384190E+00
   3.1933912E-04   1.5053649E+05   -1.7378443E+00
   3.2081386E-04   1.4933615E+05   -1.7372697E+00
   3.2229541E-04   1.4814577E+05   -1.7366952E+00
   3.2378381E-04   1.4696526E+05   -1.7361209E+00
   3.2527908E-04   1.4579455E+05   -1.7355467E+00
   3.2678125E-04   1.4463354E+05   -1.7349727E+00
   3.2829036E-04   1.4348217E+05   -1.7343989E+00
   3.2980644E-04   1.4234033E+05   -1.7338252E+00
   3.3132952E-04   1.4120795E+05   -1.7332516E+00
   3.3285963E-04   1.4008495E+05   -1.7326783E+00
   3.3439681E-04   1.3897125E+05   -1.7321051E+00
   3.3594109E-04   1.3786677E+05   -1.7315321E+00
   3.3749250E-04   1.3677143E+05   -1.7309593E+00
   3.3905108E-04   1.3568514E+05   -1.7303868E+00
   3.4061685E-04   1.3460784E+05   -1.7298144E+00
   3.4218986E-04   1.3353945E+05   -1.7292422E+00
   3.4377013E-04   1.3247988E+05   -1.7286703E+00
   3.4535769E-04   1.3142907E+05   -1.7280985E+00
   3.4695259E-04   1.3038694E+05   -1.7275270E+00
   3.4855485E-04   1.2935341E+05   -1.7269558E+00
   3.5016452E-04   1.2832841E+05   -1.7263848E+00
   3.5178161E-04   1.2731187E+05   -1.7258140E+00
   3.5340618E-04   1.2630371E+05   -1.7252435E+00
   3.5503824E-04   1.2530386E+05   -1.7246732E+00
   3.5667785E-04   1.2431226E+05   -1.7241032E+00
   3.5832502E-04   1.2332883E+05   -1.7235335E+00
   3.5997981E-04   1.2235349E+05   -1.7229641E+00
   3.6164223E-04   1.2138619E+05   -1.7223949E+00
   3.6331233E-04   1.2042686E+05   -1.7218260E+00
   3.6499015E-04   1.1947541E+05   -1.7212575E+00
   3.6667571E-04   1.1853180E+05   -1.7206892E+00
   3.6836906E-04   1.1759594E+05   -1.7201212E+00
   3.7007022E-04   1.1666778E+05   -1.7195536E+00
   3.7177925E-04   1.1574725E+05   -1.7189862E+00
   3.7349616E-04   1.1483428E+05   -1.7184192E+00
   3.7522101E-04   1.1392881E+05   -1.7178525E+00
   3.7695382E-04   1.1303078E+05   -1.7172862E+00
   3.7869463E-04   1.1214011E+05   -1.7167201E+00
   3.8044348E-04   1.1125676E+05   -1.7161545E+00
   3.8220041E-04   1.1038065E+05   -1.7155892E+00
   3.8396545E-04   1.0951172E+05   -1.7150242E+00
   3.8573864E-04   1.0864992E+05   -1.7144596E+00
   3.8752002E-04   1.0779518E+05   -1.7138954E+00
   3.8930963E-04   1.0694744E+05   -1.7133315E+00
   3.9110750E-04   1.0610665E+05   -1.7127681E+00
   3.9291368E-04   1.0527273E+05   -1.7122050E+00
   3.9472820E-04   1.0444565E+05   -1.7116423E+00
   3.9655109E-04   1.0362532E+05   -1.7110800E+00
   3.9838241E-04   1.0281171E+05   -1.7105181E+00
   4.0022218E-04   1.0200475E+05   -1.7099566E+00
   4.0207045E-04   1.0120439E+05   -1.7093956E+00
   4.0392725E-04   1.0041056E+05   -1.7088349E+00
   4.0579263E-04   9.9623223E+04   -1.7082747E+00
   4.0766662E-04   9.8842310E+04   -1.7077149E+00
   4.0954927E-04   9.8067772E+04   -1.7071555E+00
   4.1144061E-04   9.7299554E+04   -1.7065966E+00
   4.1334068E-04   9.6537602E+04   -1.7060381E+00
   4.1524953E-04   9.5781864E+04   -1.7054801E+00
   4.1716720E-04   9.5032286E+04   -1.7049225E+00
   4.1909372E-04   9.4288816E+04   -1.7043654E+00
   4.2102914E-04   9.3551402E+04   -1.7038088E+00
   4.2297350E-04   9.2819994E+04   -1.7032526E+00
   4.2492683E-04   9.2094540E+04   -1.7026969E+00
   4.2688919E-04   9.1374990E+04   -1.7021417E+00
   4.2886061E-04   9.0661293E+04   -1.7015870E+00
   4.3084113E-04   8.9953401E+04   -1.7010328E+00
   4.3283080E-04   8.9251264E+04   -1.7004791E+00
   4.3482966E-04   8.8554833E+04   -1.6999259E+00
   4.3683775E-04   8.7864061E+04   -1.6993731E+00
   4.3885511E-04   8.7178898E+04   -1.6988210E+00
   4.4088179E-04   8.6499299E+04   -1.6982693E+00
   4.4291783E-04   8.5825215E+04   -1.6977181E+00
   4.4496327E-04   8.5156601E+04   -1.6971675E+00
   4.4701816E-04   8.4493409E+04   -1.6966174E+00
   4.4908253E-04   8.3835595E+04   -1.6960679E+00
   4.5115644E-04   8.3183113E+04   -1.6955189E+00
   4.5323993E-04   8.2535917E+04   -1.6949704E+00
   4.5533304E-04   8.1893964E+04   -1.6944225E+00
   4.5743582E-04   8.1257209E+04   -1.6938752E+00
   4.5954830E-04   8.0625608E+04   -1.6933284E+00
   4.6167054E-04   7.9999118E+04   -1.6927822E+00
   4.6380259E-04   7.9377696E+04   -1.6922366E+00
   4.6594448E-04   7.8761299E+04   -1.6916916E+00
   4.6809626E-04   7.8149884E+04   -1.6911471E+00
   4.7025797E-04   7.7543410E+04   -1.6906032E+00
   4.7242967E-04   7.6941835E+04   -1.6900600E+00
   4.7461140E-04   7.6345118E+04   -1.6895173E+00
   4.7680321E-04   7.5753218E+04   -1.6889752E+00
   4.7900514E-04   7.5166095E+04   -1.6884337E+00
   4.8121723E-04   7.4583709E+04   -1.6878929E+00
   4.8343954E-04   7.4006019E+04   -1.6873527E+00
   4.8567212E-04   7.3432986E+04   -1.6868130E+00
   4.8791500E-04   7.2864571E+04   -1.6862741E+00
   4.9016825E-04   7.2300736E+04   -1.6857357E+00
   4.9243189E-04   7.1741442E+04   -1.6851980E+00
   4.9470600E-04   7.1186650E+04   -1.6846609E+00
   4.9699060E-04   7.0636323E+04   -1.6841245E+00
   4.9928575E-04   7.0090424E+04   -1.6835887E+00
   5.0159151E-04   6.9548915E+04   -1.6830536E+00
   5.0390791E-04   6.9011760E+04   -1.6825191E+00
   5.0623501E-04   6.8478922E+04   -1.6819853E+00
   5.0857286E-04   6.7950365E+04   -1.6814522E+00
   5.1092150E-04   6.7426054E+04   -1.6809197E+00
   5.1328099E-04   6.6905952E+04   -1.6803879E+00
   5.1565137E-04   6.6390024E+04   -1.6798568E+00
   5.1803270E-04   6.5878236E+04   -1.6793264E+00
   5.2042503E-04   6.5370553E+04   -1.6787966E+00
   5.2282841E-04   6.4866941E+04   -1.6782676E+00
   5.2524289E-04   6.4367365E+04   -1.6777393E+00
   5.2766851E-04   6.3871792E+04   -1.6772116E+00
   5.3010534E-04   6.3380189E+04   -1.6766847E+00
   5.3255342E-04   6.2892522E+04   -1.6761585E+00
   5.3501281E-04   6.2408758E+04   -1.6756329E+00
   5.3748356E-04   6.1928865E+04   -1.6751082E+00
   5.3996571E-04   6.1452811E+04   -1.6745841E+00
   5.4245933E-04   6.0980564E+04   -1.6740607E+00
   5.4496446E-04   6.0512091E+04   -1.6735381E+00
   5.4748117E-04   6.0047362E+04   -1.6730163E+00
   5.5000949E-04   5.9586346E+04   -1.6724951E+00
   5.5254949E-04   5.9129010E+04   -1.6719747E+00
   5.5510123E-04   5.8675325E+04   -1.6714551E+00
   5.5766474E-04   5.8225261E+04   -1.6709362E+00
   5.6024010E-04   5.7778787E+04   -1.6704180E+00
   5.6282734E-04   5.7335873E+04   -1.6699007E+00
   5.6542654E-04   5.6896490E+04   -1.6693840E+00
   5.6803774E-04   5.6460608E+04   -1.6688682E+00
   5.7066099E-04   5.6028199E+04   -1.6683531E+00
   5.7329637E-04   5.5599233E+04   -1.6678388E+00
   5.7594391E-04   5.5173682E+04   -1.6673252E+00
   5.7860368E-04   5.4751517E+04   -1.6668125E+00
   5.8127573E-04   5.4332712E+04   -1.6663005E+00
   5.8396012E-04   5.3917237E+04   -1.6657893E+00
   5.8665691E-04   5.3505064E+04   -1.6652789E+00
   5.8936616E-04   5.3096168E+04   -1.6647694E+00
   5.9208791E-04   5.2690520E+04   -1.6642606E+00
   5.9482223E-04   5.2288093E+04   -1.6637526E+00
   5.9756919E-04   5.1888861E+04   -1.6632454E+00
   6.0032882E-04   5.1492798E+04   -1.6627390E+00
   6.0310120E-04   5.1099877E+04   -1.6622334E+00
   6.0588639E-04   5.0710073E+04   -1.6617287E+00
   6.0868443E-04   5.0323358E+04   -1.6612247E+00
   6.1149540E-04   4.9939709E+04   -1.6607216E+00
   6.1431935E-04   4.9559100E+04   -1.6602193E+00
   6.1715634E-04   4.9181504E+04   -1.6597179E+00
   6.2000644E-04   4.8806899E+04   -1.6592173E+00
   6.2286969E-04   4.8435258E+04   -1.6587175E+00
