#        a       HoverH0(a)       dlogHdloga_of_a(a)
   1.0000000E-04   1.1928893E+06   -1.8876750E+00
   1.0046181E-04   1.1825603E+06   -1.8872732E+00
   1.0092575E-04   1.1723229E+06   -1.8868704E+00
   1.0139184E-04   1.1621764E+06   -1.8864665E+00
   1.0186008E-04   1.1521198E+06   -1.8860617E+00
   1.0233048E-04   1.1421523E+06   -1.8856558E+00
   1.0280305E-04   1.1322732E+06   -1.8852489E+00
   1.0327781E-04   1.1224817E+06   -1.8848410E+00
   1.0375475E-04   1.1127769E+06   -1.8844321E+00
   1.0423390E-04   1.1031581E+06   -1.8840222E+00
   1.0471527E-04   1.0936245E+06   -1.8836113E+00
   1.0519885E-04   1.0841754E+06   -1.8831993E+00
   1.0568467E-04   1.0748099E+06   -1.8827864E+00
   1.0617274E-04   1.0655274E+06   -1.8823724E+00
   1.0666305E-04   1.0563271E+06   -1.8819574E+00
   1.0715563E-04   1.0472082E+06   -1.8815414E+00
   1.0765049E-04   1.0381700E+06   -1.8811244E+00
   1.0814763E-04   1.0292118E+06   -1.8807064E+00
   1.0864707E-04   1.0203329E+06   -1.8802874E+00
   1.0914881E-04   1.0115326E+06   -1.8798673E+00
   1.0965287E-04   1.0028100E+06   -1.8794463E+00
   1.1015926E-04   9.9416466E+05   -1.8790242E+00
   1.1066799E-04   9.8559573E+05   -1.8786012E+00
   1.1117906E-04   9.7710257E+05   -1.8781771E+00
   1.1169250E-04   9.6868449E+05   -1.8777521E+00
   1.1220831E-04   9.6034082E+05   -1.8773260E+00
   1.1272650E-04   9.5207089E+05   -1.8768990E+00
   1.1324708E-04   9.4387403E+05   -1.8764709E+00
   1.1377007E-04   9.3574960E+05   -1.8760418E+00
   1.1429547E-04   9.2769693E+05   -1.8756118E+00
   1.1482330E-04   9.1971539E+05   -1.8751807E+00
   1.1535356E-04   9.1180432E+05   -1.8747487E+00
   1.1588628E-04   9.0396311E+05   -1.8743156E+00
   1.1642145E-04   8.9619112E+05   -1.8738816E+00
   1.1695910E-04   8.8848772E+05   -1.8734466E+00
   1.1749923E-04   8.8085232E+05   -1.8730105E+00
   1.1804185E-04   8.7328428E+05   -1.8725735E+00
   1.1858698E-04   8.6578301E+05   -1.8721355E+00
   1.1913463E-04   8.5834791E+05   -1.8716966E+00
   1.1968481E-04   8.5097838E+05   -1.8712566E+00
   1.2023752E-04   8.4367384E+05   -1.8708156E+00
   1.2079279E-04   8.3643370E+05   -1.8703737E+00
   1.2135063E-04   8.2925738E+05   -1.8699308E+00
   1.2191104E-04   8.2214432E+05   -1.8694869E+00
   1.2247403E-04   8.1509393E+05   -1.8690420E+00
   1.2303963E-04   8.0810567E+05   -1.8685961E+00
   1.2360784E-04   8.0117897E+05   -1.8681493E+00
   1.2417868E-04   7.9431327E+05   -1.8677015E+00
   1.2475215E-04   7.8750804E+05   -1.8672527E+00
   1.2532826E-04   7.8076273E+05   -1.8668029E+00
   1.2590704E-04   7.7407679E+05   -1.8663522E+00
   1.2648850E-04   7.6744971E+05   -1.8659005E+00
   1.2707263E-04   7.6088095E+05   -1.8654479E+00
   1.2765947E-04   7.5436999E+05   -1.8649943E+00
   1.2824901E-04   7.4791631E+05   -1.8645397E+00
   1.2884128E-04   7.4151940E+05   -1.8640841E+00
   1.2943628E-04   7.3517874E+05   -1.8636276E+00
   1.3003403E-04   7.2889384E+05   -1.8631702E+00
   1.3063454E-04   7.2266419E+05   -1.8627118E+00
   1.3123783E-04   7.1648929E+05   -1.8622524E+00
   1.3184390E-04   7.1036867E+05   -1.8617921E+00
   1.3245277E-04   7.0430182E+05   -1.8613308E+00
   1.3306445E-04   6.9828827E+05   -1.8608686E+00
   1.3367895E-04   6.9232755E+05   -1.8604054E+00
   1.3429630E-04   6.8641917E+05   -1.8599413E+00
   1.3491649E-04   6.8056267E+05   -1.8594763E+00
   1.3553955E-04   6.7475759E+05   -1.8590103E+00
   1.3616548E-04   6.6900346E+05   -1.8585434E+00
   1.3679431E-04   6.6329983E+05   -1.8580755E+00
   1.3742604E-04   6.5764625E+05   -1.8576067E+00
   1.3806069E-04   6.5204226E+05   -1.8571370E+00
   1.3869827E-04   6.4648743E+05   -1.8566664E+00
   1.3933879E-04   6.4098131E+05   -1.8561948E+00
   1.3998227E-04   6.3552347E+05   -1.8557223E+00
   1.4062872E-04   6.3011347E+05   -1.8552489E+00
   1.4127816E-04   6.2475089E+05   -1.8547745E+00
   1.4193060E-04   6.1943531E+05   -1.8542993E+00
   1.4258605E-04   6.1416629E+05   -1.8538231E+00
   1.4324453E-04   6.0894343E+05   -1.8533460E+00
   1.4390605E-04   6.0376632E+05   -1.8528680E+00
   1.4457062E-04   5.9863454E+05   -1.8523891E+00
   1.4523826E-04   5.9354770E+05   -1.8519093E+00
   1.4590899E-04   5.8850537E+05   -1.8514286E+00
   1.4658281E-04   5.8350718E+05   -1.8509470E+00
   1.4725974E-04   5.7855272E+05   -1.8504645E+00
   1.4793981E-04   5.7364161E+05   -1.8499811E+00
   1.4862301E-04   5.6877345E+05   -1.8494968E+00
   1.4930936E-04   5.6394787E+05   -1.8490116E+00
   1.4999889E-04   5.5916447E+05   -1.8485255E+00
   1.5069160E-04   5.5442290E+05   -1.8480386E+00
   1.5138751E-04   5.4972276E+05   -1.8475507E+00
   1.5208663E-04   5.4506370E+05   -1.8470620E+00
   1.5278899E-04   5.4044534E+05   -1.8465724E+00
   1.5349458E-04   5.3586732E+05   -1.8460820E+00
   1.5420343E-04   5.3132929E+05   -1.8455907E+00
   1.5491556E-04   5.2683088E+05   -1.8450985E+00
   1.5563098E-04   5.2237174E+05   -1.8446054E+00
   1.5634970E-04   5.1795152E+05   -1.8441115E+00
   1.5707174E-04   5.1356987E+05   -1.8436167E+00
   1.5779711E-04   5.0922645E+05   -1.8431211E+00
   1.5852584E-04   5.0492092E+05   -1.8426246E+00
   1.5925792E-04   5.0065294E+05   -1.8421273E+00
   1.5999339E-04   4.9642217E+05   -1.8416291E+00
   1.6073226E-04   4.9222829E+05   -1.8411301E+00
   1.6147454E-04   4.8807095E+05   -1.8406302E+00
   1.6222024E-04   4.8394985E+05   -1.8401295E+00
   1.6296939E-04   4.7986466E+05   -1.8396280E+00
   1.6372200E-04   4.7581505E+05   -1.8391256E+00
   1.6447809E-04   4.7180070E+05   -1.8386225E+00
   1.6523767E-04   4.6782131E+05   -1.8381185E+00
   1.6600075E-04   4.6387657E+05   -1.8376136E+00
   1.6676736E-04   4.5996615E+05   -1.8371080E+00
   1.6753751E-04   4.5608976E+05   -1.8366015E+00
   1.6831122E-04   4.5224710E+05   -1.8360943E+00
   1.6908849E-04   4.4843786E+05   -1.8355862E+00
   1.6986936E-04   4.4466175E+05   -1.8350773E+00
   1.7065384E-04   4.4091847E+05   -1.8345677E+00
   1.7144193E-04   4.3720773E+05   -1.8340572E+00
   1.7223367E-04   4.3352924E+05   -1.8335459E+00
   1.7302906E-04   4.2988271E+05   -1.8330339E+00
   1.7382813E-04   4.2626786E+05   -1.8325211E+00
   1.7463089E-04   4.2268441E+05   -1.8320075E+00
   1.7543735E-04   4.1913208E+05   -1.8314931E+00
   1.7624754E-04   4.1561058E+05   -1.8309779E+00
   1.7706147E-04   4.1211965E+05   -1.8304620E+00
   1.7787916E-04   4.0865902E+05   -1.8299453E+00
   1.7870062E-04   4.0522841E+05   -1.8294278E+00
   1.7952588E-04   4.0182755E+05   -1.8289096E+00
   1.8035495E-04   3.9845619E+05   -1.8283907E+00
   1.8118785E-04   3.9511407E+05   -1.8278709E+00
   1.8202459E-04   3.9180091E+05   -1.8273505E+00
   1.8286520E-04   3.8851647E+05   -1.8268293E+00
   1.8370969E-04   3.8526049E+05   -1.8263073E+00
   1.8455808E-04   3.8203271E+05   -1.8257846E+00
   1.8541039E-04   3.7883289E+05   -1.8252612E+00
   1.8626663E-04   3.7566078E+05   -1.8247371E+00
   1.8712683E-04   3.7251613E+05   -1.8242122E+00
   1.8799100E-04   3.6939870E+05   -1.8236866E+00
   1.8885917E-04   3.6630824E+05   -1.8231603E+00
   1.8973134E-04   3.6324452E+05   -1.8226333E+00
   1.9060754E-04   3.6020730E+05   -1.8221056E+00
   1.9148778E-04   3.5719634E+05   -1.8215772E+00
   1.9237209E-04   3.5421141E+05   -1.8210481E+00
   1.9326049E-04   3.5125229E+05   -1.8205183E+00
   1.9415299E-04   3.4831874E+05   -1.8199878E+00
   1.9504960E-04   3.4541053E+05   -1.8194566E+00
   1.9595036E-04   3.4252744E+05   -1.8189247E+00
   1.9685528E-04   3.3966925E+05   -1.8183922E+00
   1.9776438E-04   3.3683574E+05   -1.8178590E+00
   1.9867768E-04   3.3402668E+05   -1.8173251E+00
   1.9959519E-04   3.3124187E+05   -1.8167906E+00
   2.0051694E-04   3.2848108E+05   -1.8162554E+00
   2.0144295E-04   3.2574411E+05   -1.8157195E+00
   2.0237324E-04   3.2303074E+05   -1.8151830E+00
   2.0330782E-04   3.2034077E+05   -1.8146458E+00
   2.0424671E-04   3.1767398E+05   -1.8141081E+00
   2.0518995E-04   3.1503017E+05   -1.8135696E+00
   2.0613754E-04   3.1240914E+05   -1.8130306E+00
   2.0708950E-04   3.0981069E+05   -1.8124909E+00
   2.0804586E-04   3.0723461E+05   -1.8119506E+00
   2.0900664E-04   3.0468072E+05   -1.8114096E+00
   2.0997185E-04   3.0214880E+05   -1.8108681E+00
   2.1094152E-04   2.9963868E+05   -1.8103260E+00
   2.1191567E-04   2.9715015E+05   -1.8097832E+00
   2.1289432E-04   2.9468303E+05   -1.8092399E+00
   2.1387749E-04   2.9223712E+05   -1.8086959E+00
   2.1486520E-04   2.8981224E+05   -1.8081514E+00
   2.1585747E-04   2.8740820E+05   -1.8076063E+00
   2.1685432E-04   2.8502482E+05   -1.8070606E+00
   2.1785578E-04   2.8266191E+05   -1.8065143E+00
   2.1886186E-04   2.8031930E+05   -1.8059675E+00
   2.1987259E-04   2.7799681E+05   -1.8054201E+00
   2.2088798E-04   2.7569425E+05   -1.8048721E+00
   2.2190807E-04   2.7341146E+05   -1.8043236E+00
   2.2293286E-04   2.7114825E+05   -1.8037745E+00
   2.2396239E-04   2.6890446E+05   -1.8032249E+00
   2.2499667E-04   2.6667991E+05   -1.8026748E+00
   2.2603573E-04   2.6447444E+05   -1.8021241E+00
   2.2707958E-04   2.6228787E+05   -1.8015728E+00
   2.2812826E-04   2.6012003E+05   -1.8010211E+00
   2.2918178E-04   2.5797078E+05   -1.8004688E+00
   2.3024017E-04   2.5583993E+05   -1.7999161E+00
   2.3130344E-04   2.5372733E+05   -1.7993628E+00
   2.3237162E-04   2.5163281E+05   -1.7988090E+00
   2.3344474E-04   2.4955623E+05   -1.7982547E+00
   2.3452281E-04   2.4749741E+05   -1.7976999E+00
   2.3560586E-04   2.4545620E+05   -1.7971447E+00
   2.3669392E-04   2.4343246E+05   -1.7965889E+00
   2.3778699E-04   2.4142601E+05   -1.7960327E+00
   2.3888512E-04   2.3943672E+05   -1.7954760E+00
   2.3998831E-04   2.3746443E+05   -1.7949188E+00
   2.4109661E-04   2.3550899E+05   -1.7943612E+00
   2.4221001E-04   2.3357025E+05   -1.7938031E+00
   2.4332857E-04   2.3164807E+05   -1.7932445E+00
   2.4445228E-04   2.2974230E+05   -1.7926856E+00
   2.4558119E-04   2.2785280E+05   -1.7921261E+00
   2.4671531E-04   2.2597941E+05   -1.7915663E+00
   2.4785467E-04   2.2412201E+05   -1.7910060E+00
   2.4899928E-04   2.2228045E+05   -1.7904453E+00
   2.5014919E-04   2.2045459E+05   -1.7898841E+00
   2.5130440E-04   2.1864430E+05   -1.7893226E+00
   2.5246495E-04   2.1684943E+05   -1.7887606E+00
   2.5363086E-04   2.1506985E+05   -1.7881983E+00
   2.5480216E-04   2.1330543E+05   -1.7876355E+00
   2.5597886E-04   2.1155603E+05   -1.7870724E+00
   2.5716100E-04   2.0982153E+05   -1.7865088E+00
   2.5834859E-04   2.0810178E+05   -1.7859449E+00
   2.5954168E-04   2.0639667E+05   -1.7853807E+00
   2.6074027E-04   2.0470606E+05   -1.7848160E+00
   2.6194439E-04   2.0302983E+05   -1.7842510E+00
   2.6315408E-04   2.0136785E+05   -1.7836856E+00
   2.6436935E-04   1.9971999E+05   -1.7831199E+00
   2.6559024E-04   1.9808614E+05   -1.7825538E+00
   2.6681676E-04   1.9646616E+05   -1.7819874E+00
   2.6804895E-04   1.9485994E+05   -1.7814207E+00
   2.6928683E-04   1.9326736E+05   -1.7808536E+00
   2.7053042E-04   1.9168830E+05   -1.7802862E+00
   2.7177976E-04   1.9012263E+05   -1.7797185E+00
   2.7303487E-04   1.8857024E+05   -1.7791505E+00
   2.7429577E-04   1.8703102E+05   -1.7785821E+00
   2.7556250E-04   1.8550485E+05   -1.7780135E+00
   2.7683507E-04   1.8399162E+05   -1.7774446E+00
   2.7811353E-04   1.8249120E+05   -1.7768754E+00
   2.7939788E-04   1.8100350E+05   -1.7763059E+00
   2.8068817E-04   1.7952840E+05   -1.7757361E+00
   2.8198442E-04   1.7806579E+05   -1.7751661E+00
   2.8328665E-04   1.7661555E+05   -1.7745957E+00
   2.8459490E-04   1.7517759E+05   -1.7740252E+00
   2.8590919E-04   1.7375179E+05   -1.7734544E+00
   2.8722955E-04   1.7233805E+05   -1.7728833E+00
   2.8855600E-04   1.7093627E+05   -1.7723120E+00
   2.8988859E-04   1.6954633E+05   -1.7717404E+00
   2.9122732E-04   1.6816813E+05   -1.7711687E+00
   2.9257224E-04   1.6680158E+05   -1.7705967E+00
   2.9392337E-04   1.6544657E+05   -1.7700244E+00
   2.9528074E-04   1.6410300E+05   -1.7694520E+00
   2.9664438E-04   1.6277077E+05   -1.7688794E+00
   2.9801431E-04   1.6144979E+05   -1.7683066E+00
   2.9939057E-04   1.6013994E+05   -1.7677335E+00
   3.0077319E-04   1.5884114E+05   -1.7671603E+00
   3.0216219E-04   1.5755329E+05   -1.7665869E+00
   3.0355761E-04   1.5627630E+05   -1.7660133E+00
   3.0495947E-04   1.5501007E+05   -1.7654396E+00
   3.0636780E-04   1.5375450E+05   -1.7648657E+00
   3.0778264E-04   1.5250950E+05   -1.7642916E+00
   3.0920401E-04   1.5127499E+05   -1.7637174E+00
   3.1063195E-04   1.5005087E+05   -1.7631430E+00
   3.1206648E-04   1.4883704E+05   -1.7625685E+00
   3.1350764E-04   1.4763343E+05   -1.7619939E+00
   3.1495545E-04   1.4643994E+05   -1.7614191E+00
   3.1640994E-04   1.4525648E+05   -1.7608443E+00
   3.1787116E-04   1.4408296E+05   -1.7602693E+00
   3.1933912E-04   1.4291931E+05   -1.7596941E+00
   3.2081386E-04   1.4176543E+05   -1.7591189E+00
   3.2229541E-04   1.4062124E+05   -1.7585436E+00
   3.2378381E-04   1.3948665E+05   -1.7579682E+00
   3.2527908E-04   1.3836158E+05   -1.7573927E+00
   3.2678125E-04   1.3724596E+05   -1.7568172E+00
   3.2829036E-04   1.3613968E+05   -1.7562415E+00
   3.2980644E-04   1.3504269E+05   -1.7556658E+00
   3.3132952E-04   1.3395489E+05   -1.7550900E+00
   3.3285963E-04   1.3287620E+05   -1.7545142E+00
   3.3439681E-04   1.3180655E+05   -1.7539384E+00
   3.3594109E-04   1.3074586E+05   -1.7533624E+00
   3.3749250E-04   1.2969404E+05   -1.7527865E+00
   3.3905108E-04   1.2865104E+05   -1.7522105E+00
   3.4061685E-04   1.2761675E+05   -1.7516345E+00
   3.4218986E-04   1.2659112E+05   -1.7510585E+00
   3.4377013E-04   1.2557406E+05   -1.7504825E+00
   3.4535769E-04   1.2456551E+05   -1.7499064E+00
   3.4695259E-04   1.2356538E+05   -1.7493304E+00
   3.4855485E-04   1.2257361E+05   -1.7487543E+00
   3.5016452E-04   1.2159013E+05   -1.7481783E+00
   3.5178161E-04   1.2061485E+05   -1.7476023E+00
   3.5340618E-04   1.1964771E+05   -1.7470263E+00
   3.5503824E-04   1.1868865E+05   -1.7464504E+00
   3.5667785E-04   1.1773758E+05   -1.7458745E+00
   3.5832502E-04   1.1679444E+05   -1.7452986E+00
   3.5997981E-04   1.1585917E+05   -1.7447228E+00
   3.6164223E-04   1.1493169E+05   -1.7441470E+00
   3.6331233E-04   1.1401194E+05   -1.7435713E+00
   3.6499015E-04   1.1309985E+05   -1.7429957E+00
   3.6667571E-04   1.1219535E+05   -1.7424201E+00
   3.6836906E-04   1.1129838E+05   -1.7418447E+00
   3.7007022E-04   1.1040888E+05   -1.7412693E+00
   3.7177925E-04   1.0952677E+05   -1.7406940E+00
   3.7349616E-04   1.0865200E+05   -1.7401188E+00
   3.7522101E-04   1.0778451E+05   -1.7395437E+00
   3.7695382E-04   1.0692422E+05   -1.7389687E+00
   3.7869463E-04   1.0607108E+05   -1.7383938E+00
   3.8044348E-04   1.0522502E+05   -1.7378190E+00
   3.8220041E-04   1.0438599E+05   -1.7372444E+00
   3.8396545E-04   1.0355393E+05   -1.7366699E+00
   3.8573864E-04   1.0272877E+05   -1.7360956E+00
   3.8752002E-04   1.0191045E+05   -1.7355214E+00
   3.8930963E-04   1.0109892E+05   -1.7349473E+00
   3.9110750E-04   1.0029412E+05   -1.7343734E+00
   3.9291368E-04   9.9495986E+04   -1.7337997E+00
   3.9472820E-04   9.8704465E+04   -1.7332261E+00
   3.9655109E-04   9.7919499E+04   -1.7326527E+00
   3.9838241E-04   9.7141033E+04   -1.7320795E+00
   4.0022218E-04   9.6369010E+04   -1.7315065E+00
   4.0207045E-04   9.5603376E+04   -1.7309337E+00
   4.0392725E-04   9.4844074E+04   -1.7303611E+00
   4.0579263E-04   9.4091052E+04   -1.7297887E+00
   4.0766662E-04   9.3344254E+04   -1.7292165E+00
   4.0954927E-04   9.2603627E+04   -1.7286445E+00
   4.1144061E-04   9.1869119E+04   -1.7280728E+00
   4.1334068E-04   9.1140676E+04   -1.7275012E+00
   4.1524953E-04   9.0418248E+04   -1.7269299E+00
   4.1716720E-04   8.9701782E+04   -1.7263589E+00
   4.1909372E-04   8.8991228E+04   -1.7257881E+00
   4.2102914E-04   8.8286534E+04   -1.7252175E+00
   4.2297350E-04   8.7587650E+04   -1.7246473E+00
   4.2492683E-04   8.6894527E+04   -1.7240772E+00
   4.2688919E-04   8.6207116E+04   -1.7235075E+00
   4.2886061E-04   8.5525367E+04   -1.7229380E+00
   4.3084113E-04   8.4849232E+04   -1.7223688E+00
   4.3283080E-04   8.4178663E+04   -1.7217999E+00
   4.3482966E-04   8.3513613E+04   -1.7212313E+00
   4.3683775E-04   8.2854034E+04   -1.7206630E+00
   4.3885511E-04   8.2199879E+04   -1.7200950E+00
   4.4088179E-04   8.1551102E+04   -1.7195273E+00
   4.4291783E-04   8.0907657E+04   -1.7189600E+00
   4.4496327E-04   8.0269499E+04   -1.7183929E+00
   4.4701816E-04   7.9636583E+04   -1.7178262E+00
   4.4908253E-04   7.9008863E+04   -1.7172598E+00
   4.5115644E-04   7.8386295E+04   -1.7166938E+00
   4.5323993E-04   7.7768836E+04   -1.7161281E+00
   4.5533304E-04   7.7156442E+04   -1.7155627E+00
   4.5743582E-04   7.6549070E+04   -1.7149977E+00
   4.5954830E-04   7.5946676E+04   -1.7144331E+00
   4.6167054E-04   7.5349219E+04   -1.7138689E+00
   4.6380259E-04   7.4756656E+04   -1.7133050E+00
   4.6594448E-04   7.4168946E+04   -1.7127415E+00
   4.6809626E-04   7.3586047E+04   -1.7121784E+00
   4.7025797E-04   7.3007919E+04   -1.7116157E+00
   4.7242967E-04   7.2434520E+04   -1.7110533E+00
   4.7461140E-04   7.1865811E+04   -1.7104914E+00
   4.7680321E-04   7.1301751E+04   -1.7099299E+00
   4.7900514E-04   7.0742302E+04   -1.7093688E+00
   4.8121723E-04   7.0187423E+04   -1.7088081E+00
   4.8343954E-04   6.9637077E+04   -1.7082478E+00
   4.8567212E-04   6.9091225E+04   -1.7076880E+00
   4.8791500E-04   6.8549828E+04   -1.7071286E+00
   4.9016825E-04   6.8012848E+04   -1.7065697E+00
   4.9243189E-04   6.7480249E+04   -1.7060112E+00
   4.9470600E-04   6.6951992E+04   -1.7054531E+00
   4.9699060E-04   6.6428041E+04   -1.7048955E+00
   4.9928575E-04   6.5908361E+04   -1.7043384E+00
   5.0159151E-04   6.5392913E+04   -1.7037817E+00
   5.0390791E-04   6.4881663E+04   -1.7032255E+00
   5.0623501E-04   6.4374575E+04   -1.7026698E+00
   5.0857286E-04   6.3871613E+04   -1.7021146E+00
   5.1092150E-04   6.3372743E+04   -1.7015598E+00
   5.1328099E-04   6.2877931E+04   -1.7010056E+00
   5.1565137E-04   6.2387141E+04   -1.7004518E+00
   5.1803270E-04   6.1900340E+04   -1.6998986E+00
   5.2042503E-04   6.1417493E+04   -1.6993458E+00
   5.2282841E-04   6.0938568E+04   -1.6987936E+00
   5.2524289E-04   6.0463532E+04   -1.6982419E+00
   5.2766851E-04   5.9992351E+04   -1.6976907E+00
   5.3010534E-04   5.9524993E+04   -1.6971401E+00
   5.3255342E-04   5.9061426E+04   -1.6965900E+00
   5.3501281E-04   5.8601617E+04   -1.6960404E+00
   5.3748356E-04   5.8145535E+04   -1.6954913E+00
   5.3996571E-04   5.7693148E+04   -1.6949429E+00
   5.4245933E-04   5.7244426E+04   -1.6943949E+00
   5.4496446E-04   5.6799337E+04   -1.6938476E+00
   5.4748117E-04   5.6357851E+04   -1.6933008E+00
   5.5000949E-04   5.5919937E+04   -1.6927545E+00
   5.5254949E-04   5.5485566E+04   -1.6922089E+00
   5.5510123E-04   5.5054707E+04   -1.6916638E+00
   5.5766474E-04   5.4627331E+04   -1.6911193E+00
   5.6024010E-04   5.4203408E+04   -1.6905754E+00
   5.6282734E-04   5.3782910E+04   -1.6900321E+00
   5.6542654E-04   5.3365807E+04   -1.6894894E+00
   5.6803774E-04   5.2952072E+04   -1.6889473E+00
   5.7066099E-04   5.2541675E+04   -1.6884058E+00
   5.7329637E-04   5.2134589E+04   -1.6878649E+00
   5.7594391E-04   5.1730786E+04   -1.6873246E+00
   5.7860368E-04   5.1330238E+04   -1.6867850E+00
   5.8127573E-04   5.0932918E+04   -1.6862460E+00
   5.8396012E-04   5.0538799E+04   -1.6857076E+00
   5.8665691E-04   5.0147855E+04   -1.6851698E+00
   5.8936616E-04   4.9760057E+04   -1.6846327E+00
   5.9208791E-04   4.9375381E+04   -1.6840963E+00
   5.9482223E-04   4.8993799E+04   -1.6835605E+00
   5.9756919E-04   4.8615286E+04   -1.6830253E+00
   6.0032882E-04   4.8239816E+04   -1.6824908E+00
   6.0310120E-04   4.7867364E+04   -1.6819569E+00
   6.0588639E-04   4.7497905E+04   -1.6814238E+00
   6.0868443E-04   4.7131412E+04   -1.6808913E+00
   6.1149540E-04   4.6767862E+04   -1.6803595E+00
   6.1431935E-04   4.6407231E+04   -1.6798283E+00
   6.1715634E-04   4.6049492E+04   -1.6792979E+00
   6.2000644E-04   4.5694623E+04   -1.6787681E+00
   6.2286969E-04   4.5342600E+04   -1.6782390E+00
