#        a       HoverH0(a)       dlogHdloga_of_a(a)
   1.0000000E-04   1.0852968E+06   -1.8797948E+00
   1.0046181E-04   1.0759386E+06   -1.8793736E+00
   1.0092575E-04   1.0666631E+06   -1.8789514E+00
   1.0139184E-04   1.0574697E+06   -1.8785282E+00
   1.0186008E-04   1.0483575E+06   -1.8781039E+00
   1.0233048E-04   1.0393259E+06   -1.8776787E+00
   1.0280305E-04   1.0303741E+06   -1.8772525E+00
   1.0327781E-04   1.0215014E+06   -1.8768253E+00
   1.0375475E-04   1.0127072E+06   -1.8763970E+00
   1.0423390E-04   1.0039906E+06   -1.8759678E+00
   1.0471527E-04   9.9535101E+05   -1.8755376E+00
   1.0519885E-04   9.8678773E+05   -1.8751063E+00
   1.0568467E-04   9.7830007E+05   -1.8746741E+00
   1.0617274E-04   9.6988734E+05   -1.8742409E+00
   1.0666305E-04   9.6154889E+05   -1.8738067E+00
   1.0715563E-04   9.5328403E+05   -1.8733715E+00
   1.0765049E-04   9.4509211E+05   -1.8729353E+00
   1.0814763E-04   9.3697247E+05   -1.8724981E+00
   1.0864707E-04   9.2892446E+05   -1.8720600E+00
   1.0914881E-04   9.2094744E+05   -1.8716208E+00
   1.0965287E-04   9.1304077E+05   -1.8711807E+00
   1.1015926E-04   9.0520382E+05   -1.8707396E+00
   1.1066799E-04   8.9743597E+05   -1.8702975E+00
   1.1117906E-04   8.8973658E+05   -1.8698544E+00
   1.1169250E-04   8.8210506E+05   -1.8694103E+00
   1.1220831E-04   8.7454078E+05   -1.8689653E+00
   1.1272650E-04   8.6704315E+05   -1.8685192E+00
   1.1324708E-04   8.5961156E+05   -1.8680722E+00
   1.1377007E-04   8.5224544E+05   -1.8676243E+00
   1.1429547E-04   8.4494418E+05   -1.8671753E+00
   1.1482330E-04   8.3770720E+05   -1.8667254E+00
   1.1535356E-04   8.3053394E+05   -1.8662745E+00
   1.1588628E-04   8.2342381E+05   -1.8658227E+00
   1.1642145E-04   8.1637625E+05   -1.8653699E+00
   1.1695910E-04   8.0939069E+05   -1.8649161E+00
   1.1749923E-04   8.0246660E+05   -1.8644613E+00
   1.1804185E-04   7.9560340E+05   -1.8640056E+00
   1.1858698E-04   7.8880056E+05   -1.8635490E+00
   1.1913463E-04   7.8205754E+05   -1.8630913E+00
   1.1968481E-04   7.7537379E+05   -1.8626328E+00
   1.2023752E-04   7.6874879E+05   -1.8621732E+00
   1.2079279E-04   7.6218202E+05   -1.8617128E+00
   1.2135063E-04   7.5567294E+05   -1.8612513E+00
   1.2191104E-04   7.4922105E+05   -1.8607890E+00
   1.2247403E-04   7.4282583E+05   -1.8603256E+00
   1.2303963E-04   7.3648677E+05   -1.8598614E+00
   1.2360784E-04   7.3020336E+05   -1.8593962E+00
   1.2417868E-04   7.2397512E+05   -1.8589300E+00
   1.2475215E-04   7.1780155E+05   -1.8584630E+00
   1.2532826E-04   7.1168215E+05   -1.8579949E+00
   1.2590704E-04   7.0561644E+05   -1.8575260E+00
   1.2648850E-04   6.9960395E+05   -1.8570561E+00
   1.2707263E-04   6.9364419E+05   -1.8565853E+00
   1.2765947E-04   6.8773669E+05   -1.8561136E+00
   1.2824901E-04   6.8188099E+05   -1.8556409E+00
   1.2884128E-04   6.7607662E+05   -1.8551673E+00
   1.2943628E-04   6.7032313E+05   -1.8546928E+00
   1.3003403E-04   6.6462005E+05   -1.8542174E+00
   1.3063454E-04   6.5896694E+05   -1.8537411E+00
   1.3123783E-04   6.5336335E+05   -1.8532639E+00
   1.3184390E-04   6.4780883E+05   -1.8527857E+00
   1.3245277E-04   6.4230295E+05   -1.8523067E+00
   1.3306445E-04   6.3684527E+05   -1.8518267E+00
   1.3367895E-04   6.3143537E+05   -1.8513459E+00
   1.3429630E-04   6.2607281E+05   -1.8508641E+00
   1.3491649E-04   6.2075717E+05   -1.8503814E+00
   1.3553955E-04   6.1548803E+05   -1.8498979E+00
   1.3616548E-04   6.1026498E+05   -1.8494134E+00
   1.3679431E-04   6.0508761E+05   -1.8489281E+00
   1.3742604E-04   5.9995550E+05   -1.8484419E+00
   1.3806069E-04   5.9486826E+05   -1.8479548E+00
   1.3869827E-04   5.8982548E+05   -1.8474668E+00
   1.3933879E-04   5.8482676E+05   -1.8469780E+00
   1.3998227E-04   5.7987171E+05   -1.8464882E+00
   1.4062872E-04   5.7495994E+05   -1.8459976E+00
   1.4127816E-04   5.7009107E+05   -1.8455062E+00
   1.4193060E-04   5.6526470E+05   -1.8450138E+00
   1.4258605E-04   5.6048047E+05   -1.8445206E+00
   1.4324453E-04   5.5573800E+05   -1.8440266E+00
   1.4390605E-04   5.5103691E+05   -1.8435316E+00
   1.4457062E-04   5.4637684E+05   -1.8430359E+00
   1.4523826E-04   5.4175741E+05   -1.8425392E+00
   1.4590899E-04   5.3717827E+05   -1.8420418E+00
   1.4658281E-04   5.3263906E+05   -1.8415435E+00
   1.4725974E-04   5.2813942E+05   -1.8410443E+00
   1.4793981E-04   5.2367899E+05   -1.8405443E+00
   1.4862301E-04   5.1925743E+05   -1.8400435E+00
   1.4930936E-04   5.1487440E+05   -1.8395418E+00
   1.4999889E-04   5.1052954E+05   -1.8390393E+00
   1.5069160E-04   5.0622252E+05   -1.8385360E+00
   1.5138751E-04   5.0195300E+05   -1.8380319E+00
   1.5208663E-04   4.9772064E+05   -1.8375269E+00
   1.5278899E-04   4.9352512E+05   -1.8370211E+00
   1.5349458E-04   4.8936611E+05   -1.8365145E+00
   1.5420343E-04   4.8524329E+05   -1.8360071E+00
   1.5491556E-04   4.8115632E+05   -1.8354989E+00
   1.5563098E-04   4.7710489E+05   -1.8349899E+00
   1.5634970E-04   4.7308869E+05   -1.8344801E+00
   1.5707174E-04   4.6910739E+05   -1.8339695E+00
   1.5779711E-04   4.6516070E+05   -1.8334582E+00
   1.5852584E-04   4.6124830E+05   -1.8329460E+00
   1.5925792E-04   4.5736988E+05   -1.8324330E+00
   1.5999339E-04   4.5352515E+05   -1.8319193E+00
   1.6073226E-04   4.4971381E+05   -1.8314048E+00
   1.6147454E-04   4.4593555E+05   -1.8308895E+00
   1.6222024E-04   4.4219008E+05   -1.8303734E+00
   1.6296939E-04   4.3847712E+05   -1.8298566E+00
   1.6372200E-04   4.3479637E+05   -1.8293390E+00
   1.6447809E-04   4.3114755E+05   -1.8288207E+00
   1.6523767E-04   4.2753037E+05   -1.8283016E+00
   1.6600075E-04   4.2394455E+05   -1.8277818E+00
   1.6676736E-04   4.2038982E+05   -1.8272612E+00
   1.6753751E-04   4.1686589E+05   -1.8267398E+00
   1.6831122E-04   4.1337249E+05   -1.8262178E+00
   1.6908849E-04   4.0990936E+05   -1.8256950E+00
   1.6986936E-04   4.0647622E+05   -1.8251714E+00
   1.7065384E-04   4.0307280E+05   -1.8246472E+00
   1.7144193E-04   3.9969885E+05   -1.8241222E+00
   1.7223367E-04   3.9635410E+05   -1.8235965E+00
   1.7302906E-04   3.9303829E+05   -1.8230701E+00
   1.7382813E-04   3.8975117E+05   -1.8225430E+00
   1.7463089E-04   3.8649248E+05   -1.8220151E+00
   1.7543735E-04   3.8326197E+05   -1.8214866E+00
   1.7624754E-04   3.8005938E+05   -1.8209574E+00
   1.7706147E-04   3.7688448E+05   -1.8204275E+00
   1.7787916E-04   3.7373701E+05   -1.8198969E+00
   1.7870062E-04   3.7061673E+05   -1.8193656E+00
   1.7952588E-04   3.6752341E+05   -1.8188336E+00
   1.8035495E-04   3.6445679E+05   -1.8183009E+00
   1.8118785E-04   3.6141665E+05   -1.8177676E+00
   1.8202459E-04   3.5840276E+05   -1.8172336E+00
   1.8286520E-04   3.5541487E+05   -1.8166990E+00
   1.8370969E-04   3.5245276E+05   -1.8161637E+00
   1.8455808E-04   3.4951619E+05   -1.8156277E+00
   1.8541039E-04   3.4660496E+05   -1.8150911E+00
   1.8626663E-04   3.4371882E+05   -1.8145539E+00
   1.8712683E-04   3.4085755E+05   -1.8140160E+00
   1.8799100E-04   3.3802095E+05   -1.8134774E+00
   1.8885917E-04   3.3520878E+05   -1.8129383E+00
   1.8973134E-04   3.3242083E+05   -1.8123985E+00
   1.9060754E-04   3.2965690E+05   -1.8118581E+00
   1.9148778E-04   3.2691675E+05   -1.8113171E+00
   1.9237209E-04   3.2420020E+05   -1.8107754E+00
   1.9326049E-04   3.2150701E+05   -1.8102332E+00
   1.9415299E-04   3.1883700E+05   -1.8096904E+00
   1.9504960E-04   3.1618996E+05   -1.8091469E+00
   1.9595036E-04   3.1356567E+05   -1.8086029E+00
   1.9685528E-04   3.1096395E+05   -1.8080583E+00
   1.9776438E-04   3.0838458E+05   -1.8075131E+00
   1.9867768E-04   3.0582739E+05   -1.8069673E+00
   1.9959519E-04   3.0329215E+05   -1.8064209E+00
   2.0051694E-04   3.0077870E+05   -1.8058740E+00
   2.0144295E-04   2.9828682E+05   -1.8053265E+00
   2.0237324E-04   2.9581634E+05   -1.8047784E+00
   2.0330782E-04   2.9336706E+05   -1.8042298E+00
   2.0424671E-04   2.9093879E+05   -1.8036807E+00
   2.0518995E-04   2.8853135E+05   -1.8031310E+00
   2.0613754E-04   2.8614456E+05   -1.8025807E+00
   2.0708950E-04   2.8377823E+05   -1.8020300E+00
   2.0804586E-04   2.8143219E+05   -1.8014787E+00
   2.0900664E-04   2.7910625E+05   -1.8009269E+00
   2.0997185E-04   2.7680024E+05   -1.8003745E+00
   2.1094152E-04   2.7451398E+05   -1.7998217E+00
   2.1191567E-04   2.7224729E+05   -1.7992683E+00
   2.1289432E-04   2.7000002E+05   -1.7987144E+00
   2.1387749E-04   2.6777197E+05   -1.7981601E+00
   2.1486520E-04   2.6556299E+05   -1.7976052E+00
   2.1585747E-04   2.6337291E+05   -1.7970499E+00
   2.1685432E-04   2.6120155E+05   -1.7964940E+00
   2.1785578E-04   2.5904877E+05   -1.7959377E+00
   2.1886186E-04   2.5691438E+05   -1.7953810E+00
   2.1987259E-04   2.5479823E+05   -1.7948237E+00
   2.2088798E-04   2.5270017E+05   -1.7942660E+00
   2.2190807E-04   2.5062002E+05   -1.7937079E+00
   2.2293286E-04   2.4855763E+05   -1.7931493E+00
   2.2396239E-04   2.4651286E+05   -1.7925902E+00
   2.2499667E-04   2.4448553E+05   -1.7920307E+00
   2.2603573E-04   2.4247550E+05   -1.7914708E+00
   2.2707958E-04   2.4048262E+05   -1.7909105E+00
   2.2812826E-04   2.3850673E+05   -1.7903497E+00
   2.2918178E-04   2.3654769E+05   -1.7897885E+00
   2.3024017E-04   2.3460535E+05   -1.7892269E+00
   2.3130344E-04   2.3267955E+05   -1.7886649E+00
   2.3237162E-04   2.3077017E+05   -1.7881025E+00
   2.3344474E-04   2.2887704E+05   -1.7875396E+00
   2.3452281E-04   2.2700004E+05   -1.7869764E+00
   2.3560586E-04   2.2513901E+05   -1.7864129E+00
   2.3669392E-04   2.2329382E+05   -1.7858489E+00
   2.3778699E-04   2.2146433E+05   -1.7852846E+00
   2.3888512E-04   2.1965040E+05   -1.7847199E+00
   2.3998831E-04   2.1785189E+05   -1.7841548E+00
   2.4109661E-04   2.1606867E+05   -1.7835894E+00
   2.4221001E-04   2.1430061E+05   -1.7830236E+00
   2.4332857E-04   2.1254757E+05   -1.7824575E+00
   2.4445228E-04   2.1080942E+05   -1.7818910E+00
   2.4558119E-04   2.0908603E+05   -1.7813242E+00
   2.4671531E-04   2.0737727E+05   -1.7807571E+00
   2.4785467E-04   2.0568301E+05   -1.7801897E+00
   2.4899928E-04   2.0400313E+05   -1.7796219E+00
   2.5014919E-04   2.0233750E+05   -1.7790539E+00
   2.5130440E-04   2.0068599E+05   -1.7784855E+00
   2.5246495E-04   1.9904848E+05   -1.7779168E+00
   2.5363086E-04   1.9742486E+05   -1.7773479E+00
   2.5480216E-04   1.9581499E+05   -1.7767786E+00
   2.5597886E-04   1.9421875E+05   -1.7762091E+00
   2.5716100E-04   1.9263604E+05   -1.7756393E+00
   2.5834859E-04   1.9106672E+05   -1.7750692E+00
   2.5954168E-04   1.8951069E+05   -1.7744989E+00
   2.6074027E-04   1.8796782E+05   -1.7739283E+00
   2.6194439E-04   1.8643800E+05   -1.7733574E+00
   2.6315408E-04   1.8492112E+05   -1.7727863E+00
   2.6436935E-04   1.8341707E+05   -1.7722150E+00
   2.6559024E-04   1.8192573E+05   -1.7716434E+00
   2.6681676E-04   1.8044699E+05   -1.7710716E+00
   2.6804895E-04   1.7898074E+05   -1.7704996E+00
   2.6928683E-04   1.7752687E+05   -1.7699274E+00
   2.7053042E-04   1.7608528E+05   -1.7693549E+00
   2.7177976E-04   1.7465585E+05   -1.7687823E+00
   2.7303487E-04   1.7323848E+05   -1.7682094E+00
   2.7429577E-04   1.7183307E+05   -1.7676364E+00
   2.7556250E-04   1.7043952E+05   -1.7670631E+00
   2.7683507E-04   1.6905771E+05   -1.7664897E+00
   2.7811353E-04   1.6768754E+05   -1.7659161E+00
   2.7939788E-04   1.6632892E+05   -1.7653424E+00
   2.8068817E-04   1.6498175E+05   -1.7647684E+00
   2.8198442E-04   1.6364591E+05   -1.7641944E+00
   2.8328665E-04   1.6232133E+05   -1.7636201E+00
   2.8459490E-04   1.6100789E+05   -1.7630458E+00
   2.8590919E-04   1.5970550E+05   -1.7624713E+00
   2.8722955E-04   1.5841407E+05   -1.7618966E+00
   2.8855600E-04   1.5713349E+05   -1.7613218E+00
   2.8988859E-04   1.5586368E+05   -1.7607470E+00
   2.9122732E-04   1.5460454E+05   -1.7601719E+00
   2.9257224E-04   1.5335598E+05   -1.7595968E+00
   2.9392337E-04   1.5211791E+05   -1.7590216E+00
   2.9528074E-04   1.5089023E+05   -1.7584463E+00
   2.9664438E-04   1.4967285E+05   -1.7578709E+00
   2.9801431E-04   1.4846570E+05   -1.7572954E+00
   2.9939057E-04   1.4726866E+05   -1.7567199E+00
   3.0077319E-04   1.4608167E+05   -1.7561442E+00
   3.0216219E-04   1.4490463E+05   -1.7555685E+00
   3.0355761E-04   1.4373745E+05   -1.7549928E+00
   3.0495947E-04   1.4258005E+05   -1.7544169E+00
   3.0636780E-04   1.4143235E+05   -1.7538411E+00
   3.0778264E-04   1.4029426E+05   -1.7532652E+00
   3.0920401E-04   1.3916569E+05   -1.7526892E+00
   3.1063195E-04   1.3804657E+05   -1.7521133E+00
   3.1206648E-04   1.3693682E+05   -1.7515373E+00
   3.1350764E-04   1.3583634E+05   -1.7509613E+00
   3.1495545E-04   1.3474507E+05   -1.7503853E+00
   3.1640994E-04   1.3366292E+05   -1.7498092E+00
   3.1787116E-04   1.3258981E+05   -1.7492332E+00
   3.1933912E-04   1.3152566E+05   -1.7486572E+00
   3.2081386E-04   1.3047041E+05   -1.7480812E+00
   3.2229541E-04   1.2942396E+05   -1.7475052E+00
   3.2378381E-04   1.2838625E+05   -1.7469293E+00
   3.2527908E-04   1.2735719E+05   -1.7463533E+00
   3.2678125E-04   1.2633672E+05   -1.7457774E+00
   3.2829036E-04   1.2532476E+05   -1.7452016E+00
   3.2980644E-04   1.2432123E+05   -1.7446258E+00
   3.3132952E-04   1.2332606E+05   -1.7440501E+00
   3.3285963E-04   1.2233919E+05   -1.7434744E+00
   3.3439681E-04   1.2136054E+05   -1.7428988E+00
   3.3594109E-04   1.2039003E+05   -1.7423233E+00
   3.3749250E-04   1.1942760E+05   -1.7417478E+00
   3.3905108E-04   1.1847318E+05   -1.7411725E+00
   3.4061685E-04   1.1752670E+05   -1.7405972E+00
   3.4218986E-04   1.1658809E+05   -1.7400220E+00
   3.4377013E-04   1.1565728E+05   -1.7394470E+00
   3.4535769E-04   1.1473420E+05   -1.7388720E+00
   3.4695259E-04   1.1381880E+05   -1.7382972E+00
   3.4855485E-04   1.1291100E+05   -1.7377225E+00
   3.5016452E-04   1.1201073E+05   -1.7371479E+00
   3.5178161E-04   1.1111794E+05   -1.7365734E+00
   3.5340618E-04   1.1023255E+05   -1.7359991E+00
   3.5503824E-04   1.0935451E+05   -1.7354250E+00
   3.5667785E-04   1.0848375E+05   -1.7348510E+00
   3.5832502E-04   1.0762021E+05   -1.7342771E+00
   3.5997981E-04   1.0676382E+05   -1.7337034E+00
   3.6164223E-04   1.0591453E+05   -1.7331299E+00
   3.6331233E-04   1.0507227E+05   -1.7325566E+00
   3.6499015E-04   1.0423699E+05   -1.7319835E+00
   3.6667571E-04   1.0340862E+05   -1.7314105E+00
   3.6836906E-04   1.0258710E+05   -1.7308377E+00
   3.7007022E-04   1.0177237E+05   -1.7302652E+00
   3.7177925E-04   1.0096439E+05   -1.7296928E+00
   3.7349616E-04   1.0016308E+05   -1.7291207E+00
   3.7522101E-04   9.9368395E+04   -1.7285488E+00
   3.7695382E-04   9.8580274E+04   -1.7279771E+00
   3.7869463E-04   9.7798661E+04   -1.7274056E+00
   3.8044348E-04   9.7023501E+04   -1.7268344E+00
   3.8220041E-04   9.6254738E+04   -1.7262634E+00
   3.8396545E-04   9.5492318E+04   -1.7256927E+00
   3.8573864E-04   9.4736185E+04   -1.7251222E+00
   3.8752002E-04   9.3986287E+04   -1.7245520E+00
   3.8930963E-04   9.3242570E+04   -1.7239820E+00
   3.9110750E-04   9.2504981E+04   -1.7234123E+00
   3.9291368E-04   9.1773467E+04   -1.7228429E+00
   3.9472820E-04   9.1047976E+04   -1.7222738E+00
   3.9655109E-04   9.0328458E+04   -1.7217050E+00
   3.9838241E-04   8.9614860E+04   -1.7211364E+00
   4.0022218E-04   8.8907132E+04   -1.7205682E+00
   4.0207045E-04   8.8205225E+04   -1.7200003E+00
   4.0392725E-04   8.7509089E+04   -1.7194327E+00
   4.0579263E-04   8.6818673E+04   -1.7188654E+00
   4.0766662E-04   8.6133930E+04   -1.7182984E+00
   4.0954927E-04   8.5454810E+04   -1.7177318E+00
   4.1144061E-04   8.4781266E+04   -1.7171655E+00
   4.1334068E-04   8.4113250E+04   -1.7165995E+00
   4.1524953E-04   8.3450715E+04   -1.7160339E+00
   4.1716720E-04   8.2793615E+04   -1.7154686E+00
   4.1909372E-04   8.2141902E+04   -1.7149037E+00
   4.2102914E-04   8.1495532E+04   -1.7143392E+00
   4.2297350E-04   8.0854458E+04   -1.7137750E+00
   4.2492683E-04   8.0218635E+04   -1.7132113E+00
   4.2688919E-04   7.9588019E+04   -1.7126478E+00
   4.2886061E-04   7.8962565E+04   -1.7120848E+00
   4.3084113E-04   7.8342230E+04   -1.7115222E+00
   4.3283080E-04   7.7726970E+04   -1.7109600E+00
   4.3482966E-04   7.7116741E+04   -1.7103981E+00
   4.3683775E-04   7.6511501E+04   -1.7098367E+00
   4.3885511E-04   7.5911207E+04   -1.7092757E+00
   4.4088179E-04   7.5315818E+04   -1.7087151E+00
   4.4291783E-04   7.4725292E+04   -1.7081550E+00
   4.4496327E-04   7.4139586E+04   -1.7075952E+00
   4.4701816E-04   7.3558662E+04   -1.7070359E+00
   4.4908253E-04   7.2982477E+04   -1.7064771E+00
   4.5115644E-04   7.2410992E+04   -1.7059187E+00
   4.5323993E-04   7.1844166E+04   -1.7053607E+00
   4.5533304E-04   7.1281961E+04   -1.7048033E+00
   4.5743582E-04   7.0724337E+04   -1.7042462E+00
   4.5954830E-04   7.0171255E+04   -1.7036897E+00
   4.6167054E-04   6.9622677E+04   -1.7031336E+00
   4.6380259E-04   6.9078565E+04   -1.7025780E+00
   4.6594448E-04   6.8538880E+04   -1.7020228E+00
   4.6809626E-04   6.8003585E+04   -1.7014682E+00
   4.7025797E-04   6.7472643E+04   -1.7009141E+00
   4.7242967E-04   6.6946017E+04   -1.7003604E+00
   4.7461140E-04   6.6423672E+04   -1.6998073E+00
   4.7680321E-04   6.5905569E+04   -1.6992547E+00
   4.7900514E-04   6.5391674E+04   -1.6987026E+00
   4.8121723E-04   6.4881952E+04   -1.6981510E+00
   4.8343954E-04   6.4376366E+04   -1.6975999E+00
   4.8567212E-04   6.3874882E+04   -1.6970494E+00
   4.8791500E-04   6.3377465E+04   -1.6964994E+00
   4.9016825E-04   6.2884081E+04   -1.6959499E+00
   4.9243189E-04   6.2394696E+04   -1.6954010E+00
   4.9470600E-04   6.1909275E+04   -1.6948527E+00
   4.9699060E-04   6.1427787E+04   -1.6943049E+00
   4.9928575E-04   6.0950197E+04   -1.6937576E+00
   5.0159151E-04   6.0476472E+04   -1.6932110E+00
   5.0390791E-04   6.0006580E+04   -1.6926649E+00
   5.0623501E-04   5.9540489E+04   -1.6921193E+00
   5.0857286E-04   5.9078167E+04   -1.6915744E+00
   5.1092150E-04   5.8619582E+04   -1.6910300E+00
   5.1328099E-04   5.8164702E+04   -1.6904862E+00
   5.1565137E-04   5.7713497E+04   -1.6899431E+00
   5.1803270E-04   5.7265935E+04   -1.6894005E+00
   5.2042503E-04   5.6821986E+04   -1.6888585E+00
   5.2282841E-04   5.6381619E+04   -1.6883172E+00
   5.2524289E-04   5.5944805E+04   -1.6877764E+00
   5.2766851E-04   5.5511512E+04   -1.6872363E+00
   5.3010534E-04   5.5081713E+04   -1.6866968E+00
   5.3255342E-04   5.4655377E+04   -1.6861579E+00
   5.3501281E-04   5.4232476E+04   -1.6856196E+00
   5.3748356E-04   5.3812980E+04   -1.6850820E+00
   5.3996571E-04   5.3396861E+04   -1.6845451E+00
   5.4245933E-04   5.2984091E+04   -1.6840087E+00
   5.4496446E-04   5.2574642E+04   -1.6834731E+00
   5.4748117E-04   5.2168486E+04   -1.6829381E+00
   5.5000949E-04   5.1765595E+04   -1.6824037E+00
   5.5254949E-04   5.1365941E+04   -1.6818700E+00
   5.5510123E-04   5.0969499E+04   -1.6813370E+00
   5.5766474E-04   5.0576240E+04   -1.6808046E+00
   5.6024010E-04   5.0186138E+04   -1.6802730E+00
   5.6282734E-04   4.9799168E+04   -1.6797420E+00
   5.6542654E-04   4.9415302E+04   -1.6792117E+00
   5.6803774E-04   4.9034514E+04   -1.6786820E+00
   5.7066099E-04   4.8656780E+04   -1.6781531E+00
   5.7329637E-04   4.8282073E+04   -1.6776249E+00
   5.7594391E-04   4.7910368E+04   -1.6770974E+00
   5.7860368E-04   4.7541640E+04   -1.6765706E+00
   5.8127573E-04   4.7175865E+04   -1.6760445E+00
   5.8396012E-04   4.6813017E+04   -1.6755191E+00
   5.8665691E-04   4.6453072E+04   -1.6749944E+00
   5.8936616E-04   4.6096006E+04   -1.6744705E+00
   5.9208791E-04   4.5741795E+04   -1.6739472E+00
   5.9482223E-04   4.5390416E+04   -1.6734248E+00
   5.9756919E-04   4.5041844E+04   -1.6729030E+00
   6.0032882E-04   4.4696056E+04   -1.6723820E+00
   6.0310120E-04   4.4353029E+04   -1.6718617E+00
   6.0588639E-04   4.4012740E+04   -1.6713422E+00
   6.0868443E-04   4.3675166E+04   -1.6708234E+00
   6.1149540E-04   4.3340285E+04   -1.6703054E+00
   6.1431935E-04   4.3008075E+04   -1.6697882E+00
   6.1715634E-04   4.2678513E+04   -1.6692717E+00
   6.2000644E-04   4.2351576E+04   -1.6687560E+00
   6.2286969E-04   4.2027244E+04   -1.6682410E+00
