#        a       HoverH0(a)       dlogHdloga_of_a(a)
   1.0000000E-04   1.0561698E+06   -1.8541836E+00
   1.0046181E-04   1.0471864E+06   -1.8537072E+00
   1.0092575E-04   1.0382817E+06   -1.8532300E+00
   1.0139184E-04   1.0294550E+06   -1.8527518E+00
   1.0186008E-04   1.0207056E+06   -1.8522726E+00
   1.0233048E-04   1.0120328E+06   -1.8517926E+00
   1.0280305E-04   1.0034359E+06   -1.8513117E+00
   1.0327781E-04   9.9491419E+05   -1.8508299E+00
   1.0375475E-04   9.8646708E+05   -1.8503472E+00
   1.0423390E-04   9.7809387E+05   -1.8498636E+00
   1.0471527E-04   9.6979389E+05   -1.8493791E+00
   1.0519885E-04   9.6156649E+05   -1.8488937E+00
   1.0568467E-04   9.5341102E+05   -1.8484074E+00
   1.0617274E-04   9.4532684E+05   -1.8479203E+00
   1.0666305E-04   9.3731332E+05   -1.8474323E+00
   1.0715563E-04   9.2936982E+05   -1.8469433E+00
   1.0765049E-04   9.2149572E+05   -1.8464536E+00
   1.0814763E-04   9.1369039E+05   -1.8459629E+00
   1.0864707E-04   9.0595323E+05   -1.8454714E+00
   1.0914881E-04   8.9828362E+05   -1.8449790E+00
   1.0965287E-04   8.9068096E+05   -1.8444857E+00
   1.1015926E-04   8.8314466E+05   -1.8439916E+00
   1.1066799E-04   8.7567412E+05   -1.8434967E+00
   1.1117906E-04   8.6826875E+05   -1.8430008E+00
   1.1169250E-04   8.6092798E+05   -1.8425042E+00
   1.1220831E-04   8.5365123E+05   -1.8420066E+00
   1.1272650E-04   8.4643792E+05   -1.8415083E+00
   1.1324708E-04   8.3928749E+05   -1.8410091E+00
   1.1377007E-04   8.3219939E+05   -1.8405090E+00
   1.1429547E-04   8.2517305E+05   -1.8400082E+00
   1.1482330E-04   8.1820792E+05   -1.8395064E+00
   1.1535356E-04   8.1130346E+05   -1.8390039E+00
   1.1588628E-04   8.0445913E+05   -1.8385005E+00
   1.1642145E-04   7.9767439E+05   -1.8379964E+00
   1.1695910E-04   7.9094871E+05   -1.8374913E+00
   1.1749923E-04   7.8428156E+05   -1.8369855E+00
   1.1804185E-04   7.7767243E+05   -1.8364789E+00
   1.1858698E-04   7.7112080E+05   -1.8359715E+00
   1.1913463E-04   7.6462615E+05   -1.8354632E+00
   1.1968481E-04   7.5818797E+05   -1.8349542E+00
   1.2023752E-04   7.5180577E+05   -1.8344443E+00
   1.2079279E-04   7.4547905E+05   -1.8339337E+00
   1.2135063E-04   7.3920731E+05   -1.8334223E+00
   1.2191104E-04   7.3299006E+05   -1.8329100E+00
   1.2247403E-04   7.2682682E+05   -1.8323970E+00
   1.2303963E-04   7.2071711E+05   -1.8318833E+00
   1.2360784E-04   7.1466045E+05   -1.8313687E+00
   1.2417868E-04   7.0865637E+05   -1.8308534E+00
   1.2475215E-04   7.0270440E+05   -1.8303373E+00
   1.2532826E-04   6.9680408E+05   -1.8298204E+00
   1.2590704E-04   6.9095495E+05   -1.8293028E+00
   1.2648850E-04   6.8515655E+05   -1.8287844E+00
   1.2707263E-04   6.7940843E+05   -1.8282653E+00
   1.2765947E-04   6.7371015E+05   -1.8277454E+00
   1.2824901E-04   6.6806127E+05   -1.8272248E+00
   1.2884128E-04   6.6246134E+05   -1.8267034E+00
   1.2943628E-04   6.5690993E+05   -1.8261813E+00
   1.3003403E-04   6.5140661E+05   -1.8256585E+00
   1.3063454E-04   6.4595095E+05   -1.8251349E+00
   1.3123783E-04   6.4054253E+05   -1.8246106E+00
   1.3184390E-04   6.3518093E+05   -1.8240856E+00
   1.3245277E-04   6.2986573E+05   -1.8235598E+00
   1.3306445E-04   6.2459652E+05   -1.8230334E+00
   1.3367895E-04   6.1937290E+05   -1.8225062E+00
   1.3429630E-04   6.1419445E+05   -1.8219784E+00
   1.3491649E-04   6.0906078E+05   -1.8214498E+00
   1.3553955E-04   6.0397150E+05   -1.8209206E+00
   1.3616548E-04   5.9892620E+05   -1.8203906E+00
   1.3679431E-04   5.9392450E+05   -1.8198600E+00
   1.3742604E-04   5.8896601E+05   -1.8193286E+00
   1.3806069E-04   5.8405035E+05   -1.8187966E+00
   1.3869827E-04   5.7917713E+05   -1.8182640E+00
   1.3933879E-04   5.7434599E+05   -1.8177306E+00
   1.3998227E-04   5.6955655E+05   -1.8171966E+00
   1.4062872E-04   5.6480843E+05   -1.8166619E+00
   1.4127816E-04   5.6010128E+05   -1.8161266E+00
   1.4193060E-04   5.5543473E+05   -1.8155906E+00
   1.4258605E-04   5.5080842E+05   -1.8150540E+00
   1.4324453E-04   5.4622199E+05   -1.8145167E+00
   1.4390605E-04   5.4167510E+05   -1.8139788E+00
   1.4457062E-04   5.3716739E+05   -1.8134402E+00
   1.4523826E-04   5.3269851E+05   -1.8129010E+00
   1.4590899E-04   5.2826813E+05   -1.8123612E+00
   1.4658281E-04   5.2387589E+05   -1.8118208E+00
   1.4725974E-04   5.1952147E+05   -1.8112797E+00
   1.4793981E-04   5.1520453E+05   -1.8107381E+00
   1.4862301E-04   5.1092473E+05   -1.8101958E+00
   1.4930936E-04   5.0668175E+05   -1.8096529E+00
   1.4999889E-04   5.0247527E+05   -1.8091095E+00
   1.5069160E-04   4.9830496E+05   -1.8085654E+00
   1.5138751E-04   4.9417050E+05   -1.8080208E+00
   1.5208663E-04   4.9007157E+05   -1.8074755E+00
   1.5278899E-04   4.8600786E+05   -1.8069297E+00
   1.5349458E-04   4.8197906E+05   -1.8063833E+00
   1.5420343E-04   4.7798487E+05   -1.8058364E+00
   1.5491556E-04   4.7402497E+05   -1.8052889E+00
   1.5563098E-04   4.7009906E+05   -1.8047408E+00
   1.5634970E-04   4.6620684E+05   -1.8041922E+00
   1.5707174E-04   4.6234802E+05   -1.8036430E+00
   1.5779711E-04   4.5852230E+05   -1.8030933E+00
   1.5852584E-04   4.5472939E+05   -1.8025430E+00
   1.5925792E-04   4.5096899E+05   -1.8019923E+00
   1.5999339E-04   4.4724083E+05   -1.8014409E+00
   1.6073226E-04   4.4354462E+05   -1.8008891E+00
   1.6147454E-04   4.3988007E+05   -1.8003367E+00
   1.6222024E-04   4.3624691E+05   -1.7997839E+00
   1.6296939E-04   4.3264486E+05   -1.7992305E+00
   1.6372200E-04   4.2907365E+05   -1.7986766E+00
   1.6447809E-04   4.2553300E+05   -1.7981222E+00
   1.6523767E-04   4.2202265E+05   -1.7975674E+00
   1.6600075E-04   4.1854232E+05   -1.7970120E+00
   1.6676736E-04   4.1509176E+05   -1.7964562E+00
   1.6753751E-04   4.1167070E+05   -1.7958999E+00
   1.6831122E-04   4.0827889E+05   -1.7953431E+00
   1.6908849E-04   4.0491605E+05   -1.7947858E+00
   1.6986936E-04   4.0158195E+05   -1.7942281E+00
   1.7065384E-04   3.9827633E+05   -1.7936700E+00
   1.7144193E-04   3.9499893E+05   -1.7931113E+00
   1.7223367E-04   3.9174951E+05   -1.7925523E+00
   1.7302906E-04   3.8852782E+05   -1.7919928E+00
   1.7382813E-04   3.8533362E+05   -1.7914329E+00
   1.7463089E-04   3.8216667E+05   -1.7908725E+00
   1.7543735E-04   3.7902672E+05   -1.7903117E+00
   1.7624754E-04   3.7591355E+05   -1.7897505E+00
   1.7706147E-04   3.7282691E+05   -1.7891889E+00
   1.7787916E-04   3.6976657E+05   -1.7886269E+00
   1.7870062E-04   3.6673230E+05   -1.7880645E+00
   1.7952588E-04   3.6372387E+05   -1.7875017E+00
   1.8035495E-04   3.6074106E+05   -1.7869385E+00
   1.8118785E-04   3.5778364E+05   -1.7863749E+00
   1.8202459E-04   3.5485138E+05   -1.7858109E+00
   1.8286520E-04   3.5194408E+05   -1.7852466E+00
   1.8370969E-04   3.4906150E+05   -1.7846819E+00
   1.8455808E-04   3.4620343E+05   -1.7841168E+00
   1.8541039E-04   3.4336965E+05   -1.7835514E+00
   1.8626663E-04   3.4055996E+05   -1.7829856E+00
   1.8712683E-04   3.3777414E+05   -1.7824195E+00
   1.8799100E-04   3.3501199E+05   -1.7818530E+00
   1.8885917E-04   3.3227328E+05   -1.7812863E+00
   1.8973134E-04   3.2955783E+05   -1.7807191E+00
   1.9060754E-04   3.2686542E+05   -1.7801517E+00
   1.9148778E-04   3.2419586E+05   -1.7795840E+00
   1.9237209E-04   3.2154894E+05   -1.7790159E+00
   1.9326049E-04   3.1892447E+05   -1.7784475E+00
   1.9415299E-04   3.1632225E+05   -1.7778789E+00
   1.9504960E-04   3.1374208E+05   -1.7773099E+00
   1.9595036E-04   3.1118377E+05   -1.7767407E+00
   1.9685528E-04   3.0864714E+05   -1.7761712E+00
   1.9776438E-04   3.0613198E+05   -1.7756014E+00
   1.9867768E-04   3.0363812E+05   -1.7750313E+00
   1.9959519E-04   3.0116537E+05   -1.7744610E+00
   2.0051694E-04   2.9871354E+05   -1.7738904E+00
   2.0144295E-04   2.9628244E+05   -1.7733195E+00
   2.0237324E-04   2.9387191E+05   -1.7727484E+00
   2.0330782E-04   2.9148176E+05   -1.7721771E+00
   2.0424671E-04   2.8911180E+05   -1.7716056E+00
   2.0518995E-04   2.8676187E+05   -1.7710338E+00
   2.0613754E-04   2.8443179E+05   -1.7704618E+00
   2.0708950E-04   2.8212139E+05   -1.7698895E+00
   2.0804586E-04   2.7983050E+05   -1.7693171E+00
   2.0900664E-04   2.7755893E+05   -1.7687445E+00
   2.0997185E-04   2.7530654E+05   -1.7681716E+00
   2.1094152E-04   2.7307314E+05   -1.7675986E+00
   2.1191567E-04   2.7085858E+05   -1.7670254E+00
   2.1289432E-04   2.6866268E+05   -1.7664520E+00
   2.1387749E-04   2.6648530E+05   -1.7658784E+00
   2.1486520E-04   2.6432626E+05   -1.7653047E+00
   2.1585747E-04   2.6218540E+05   -1.7647308E+00
   2.1685432E-04   2.6006257E+05   -1.7641567E+00
   2.1785578E-04   2.5795761E+05   -1.7635825E+00
   2.1886186E-04   2.5587036E+05   -1.7630082E+00
   2.1987259E-04   2.5380068E+05   -1.7624337E+00
   2.2088798E-04   2.5174840E+05   -1.7618591E+00
   2.2190807E-04   2.4971339E+05   -1.7612843E+00
   2.2293286E-04   2.4769547E+05   -1.7607095E+00
   2.2396239E-04   2.4569452E+05   -1.7601345E+00
   2.2499667E-04   2.4371037E+05   -1.7595594E+00
   2.2603573E-04   2.4174289E+05   -1.7589842E+00
   2.2707958E-04   2.3979192E+05   -1.7584089E+00
   2.2812826E-04   2.3785734E+05   -1.7578335E+00
   2.2918178E-04   2.3593898E+05   -1.7572581E+00
   2.3024017E-04   2.3403672E+05   -1.7566825E+00
   2.3130344E-04   2.3215041E+05   -1.7561069E+00
   2.3237162E-04   2.3027991E+05   -1.7555313E+00
   2.3344474E-04   2.2842510E+05   -1.7549555E+00
   2.3452281E-04   2.2658582E+05   -1.7543798E+00
   2.3560586E-04   2.2476195E+05   -1.7538039E+00
   2.3669392E-04   2.2295335E+05   -1.7532281E+00
   2.3778699E-04   2.2115989E+05   -1.7526521E+00
   2.3888512E-04   2.1938144E+05   -1.7520762E+00
   2.3998831E-04   2.1761787E+05   -1.7515003E+00
   2.4109661E-04   2.1586905E+05   -1.7509243E+00
   2.4221001E-04   2.1413485E+05   -1.7503483E+00
   2.4332857E-04   2.1241515E+05   -1.7497723E+00
   2.4445228E-04   2.1070981E+05   -1.7491963E+00
   2.4558119E-04   2.0901873E+05   -1.7486204E+00
   2.4671531E-04   2.0734176E+05   -1.7480444E+00
   2.4785467E-04   2.0567880E+05   -1.7474684E+00
   2.4899928E-04   2.0402971E+05   -1.7468925E+00
   2.5014919E-04   2.0239438E+05   -1.7463167E+00
   2.5130440E-04   2.0077270E+05   -1.7457408E+00
   2.5246495E-04   1.9916453E+05   -1.7451650E+00
   2.5363086E-04   1.9756977E+05   -1.7445893E+00
   2.5480216E-04   1.9598830E+05   -1.7440136E+00
   2.5597886E-04   1.9442001E+05   -1.7434379E+00
   2.5716100E-04   1.9286477E+05   -1.7428624E+00
   2.5834859E-04   1.9132249E+05   -1.7422869E+00
   2.5954168E-04   1.8979304E+05   -1.7417115E+00
   2.6074027E-04   1.8827631E+05   -1.7411362E+00
   2.6194439E-04   1.8677221E+05   -1.7405610E+00
   2.6315408E-04   1.8528061E+05   -1.7399858E+00
   2.6436935E-04   1.8380140E+05   -1.7394108E+00
   2.6559024E-04   1.8233450E+05   -1.7388359E+00
   2.6681676E-04   1.8087977E+05   -1.7382611E+00
   2.6804895E-04   1.7943713E+05   -1.7376865E+00
   2.6928683E-04   1.7800647E+05   -1.7371119E+00
   2.7053042E-04   1.7658768E+05   -1.7365375E+00
   2.7177976E-04   1.7518066E+05   -1.7359633E+00
   2.7303487E-04   1.7378531E+05   -1.7353892E+00
   2.7429577E-04   1.7240153E+05   -1.7348152E+00
   2.7556250E-04   1.7102923E+05   -1.7342414E+00
   2.7683507E-04   1.6966829E+05   -1.7336678E+00
   2.7811353E-04   1.6831863E+05   -1.7330944E+00
   2.7939788E-04   1.6698015E+05   -1.7325211E+00
   2.8068817E-04   1.6565275E+05   -1.7319480E+00
   2.8198442E-04   1.6433633E+05   -1.7313751E+00
   2.8328665E-04   1.6303081E+05   -1.7308024E+00
   2.8459490E-04   1.6173608E+05   -1.7302299E+00
   2.8590919E-04   1.6045206E+05   -1.7296576E+00
   2.8722955E-04   1.5917865E+05   -1.7290855E+00
   2.8855600E-04   1.5791577E+05   -1.7285136E+00
   2.8988859E-04   1.5666331E+05   -1.7279420E+00
   2.9122732E-04   1.5542120E+05   -1.7273706E+00
   2.9257224E-04   1.5418935E+05   -1.7267994E+00
   2.9392337E-04   1.5296766E+05   -1.7262285E+00
   2.9528074E-04   1.5175605E+05   -1.7256579E+00
   2.9664438E-04   1.5055443E+05   -1.7250874E+00
   2.9801431E-04   1.4936272E+05   -1.7245173E+00
   2.9939057E-04   1.4818083E+05   -1.7239474E+00
   3.0077319E-04   1.4700867E+05   -1.7233778E+00
   3.0216219E-04   1.4584618E+05   -1.7228084E+00
   3.0355761E-04   1.4469325E+05   -1.7222394E+00
   3.0495947E-04   1.4354982E+05   -1.7216706E+00
   3.0636780E-04   1.4241579E+05   -1.7211022E+00
   3.0778264E-04   1.4129110E+05   -1.7205340E+00
   3.0920401E-04   1.4017565E+05   -1.7199662E+00
   3.1063195E-04   1.3906937E+05   -1.7193986E+00
   3.1206648E-04   1.3797218E+05   -1.7188314E+00
   3.1350764E-04   1.3688401E+05   -1.7182645E+00
   3.1495545E-04   1.3580477E+05   -1.7176979E+00
   3.1640994E-04   1.3473440E+05   -1.7171317E+00
   3.1787116E-04   1.3367281E+05   -1.7165658E+00
   3.1933912E-04   1.3261993E+05   -1.7160003E+00
   3.2081386E-04   1.3157569E+05   -1.7154351E+00
   3.2229541E-04   1.3054000E+05   -1.7148703E+00
   3.2378381E-04   1.2951281E+05   -1.7143058E+00
   3.2527908E-04   1.2849404E+05   -1.7137417E+00
   3.2678125E-04   1.2748360E+05   -1.7131780E+00
   3.2829036E-04   1.2648145E+05   -1.7126147E+00
   3.2980644E-04   1.2548749E+05   -1.7120518E+00
   3.3132952E-04   1.2450168E+05   -1.7114892E+00
   3.3285963E-04   1.2352392E+05   -1.7109271E+00
   3.3439681E-04   1.2255416E+05   -1.7103653E+00
   3.3594109E-04   1.2159233E+05   -1.7098040E+00
   3.3749250E-04   1.2063836E+05   -1.7092430E+00
   3.3905108E-04   1.1969218E+05   -1.7086825E+00
   3.4061685E-04   1.1875373E+05   -1.7081225E+00
   3.4218986E-04   1.1782295E+05   -1.7075628E+00
   3.4377013E-04   1.1689976E+05   -1.7070036E+00
   3.4535769E-04   1.1598410E+05   -1.7064449E+00
   3.4695259E-04   1.1507591E+05   -1.7058865E+00
   3.4855485E-04   1.1417512E+05   -1.7053287E+00
   3.5016452E-04   1.1328168E+05   -1.7047713E+00
   3.5178161E-04   1.1239552E+05   -1.7042143E+00
   3.5340618E-04   1.1151657E+05   -1.7036579E+00
   3.5503824E-04   1.1064479E+05   -1.7031019E+00
   3.5667785E-04   1.0978010E+05   -1.7025463E+00
   3.5832502E-04   1.0892244E+05   -1.7019913E+00
   3.5997981E-04   1.0807176E+05   -1.7014368E+00
   3.6164223E-04   1.0722800E+05   -1.7008827E+00
   3.6331233E-04   1.0639110E+05   -1.7003292E+00
   3.6499015E-04   1.0556100E+05   -1.6997761E+00
   3.6667571E-04   1.0473764E+05   -1.6992236E+00
   3.6836906E-04   1.0392097E+05   -1.6986716E+00
   3.7007022E-04   1.0311093E+05   -1.6981201E+00
   3.7177925E-04   1.0230746E+05   -1.6975691E+00
   3.7349616E-04   1.0151052E+05   -1.6970187E+00
   3.7522101E-04   1.0072003E+05   -1.6964688E+00
   3.7695382E-04   9.9935954E+04   -1.6959195E+00
   3.7869463E-04   9.9158232E+04   -1.6953706E+00
   3.8044348E-04   9.8386812E+04   -1.6948224E+00
   3.8220041E-04   9.7621639E+04   -1.6942747E+00
   3.8396545E-04   9.6862662E+04   -1.6937275E+00
   3.8573864E-04   9.6109827E+04   -1.6931810E+00
   3.8752002E-04   9.5363084E+04   -1.6926350E+00
   3.8930963E-04   9.4622380E+04   -1.6920895E+00
   3.9110750E-04   9.3887666E+04   -1.6915447E+00
   3.9291368E-04   9.3158890E+04   -1.6910004E+00
   3.9472820E-04   9.2436003E+04   -1.6904568E+00
   3.9655109E-04   9.1718954E+04   -1.6899137E+00
   3.9838241E-04   9.1007696E+04   -1.6893712E+00
   4.0022218E-04   9.0302178E+04   -1.6888294E+00
   4.0207045E-04   8.9602354E+04   -1.6882881E+00
   4.0392725E-04   8.8908175E+04   -1.6877475E+00
   4.0579263E-04   8.8219594E+04   -1.6872075E+00
   4.0766662E-04   8.7536563E+04   -1.6866681E+00
   4.0954927E-04   8.6859037E+04   -1.6861293E+00
   4.1144061E-04   8.6186968E+04   -1.6855912E+00
   4.1334068E-04   8.5520311E+04   -1.6850537E+00
   4.1524953E-04   8.4859020E+04   -1.6845168E+00
   4.1716720E-04   8.4203052E+04   -1.6839806E+00
   4.1909372E-04   8.3552360E+04   -1.6834450E+00
   4.2102914E-04   8.2906901E+04   -1.6829101E+00
   4.2297350E-04   8.2266631E+04   -1.6823759E+00
   4.2492683E-04   8.1631506E+04   -1.6818423E+00
   4.2688919E-04   8.1001484E+04   -1.6813094E+00
   4.2886061E-04   8.0376522E+04   -1.6807772E+00
   4.3084113E-04   7.9756577E+04   -1.6802456E+00
   4.3283080E-04   7.9141607E+04   -1.6797147E+00
   4.3482966E-04   7.8531571E+04   -1.6791845E+00
   4.3683775E-04   7.7926428E+04   -1.6786550E+00
   4.3885511E-04   7.7326136E+04   -1.6781262E+00
   4.4088179E-04   7.6730655E+04   -1.6775981E+00
   4.4291783E-04   7.6139945E+04   -1.6770707E+00
   4.4496327E-04   7.5553966E+04   -1.6765440E+00
   4.4701816E-04   7.4972678E+04   -1.6760181E+00
   4.4908253E-04   7.4396043E+04   -1.6754928E+00
   4.5115644E-04   7.3824022E+04   -1.6749683E+00
   4.5323993E-04   7.3256575E+04   -1.6744444E+00
   4.5533304E-04   7.2693666E+04   -1.6739213E+00
   4.5743582E-04   7.2135256E+04   -1.6733990E+00
   4.5954830E-04   7.1581308E+04   -1.6728774E+00
   4.6167054E-04   7.1031784E+04   -1.6723565E+00
   4.6380259E-04   7.0486648E+04   -1.6718363E+00
   4.6594448E-04   6.9945863E+04   -1.6713169E+00
   4.6809626E-04   6.9409392E+04   -1.6707983E+00
   4.7025797E-04   6.8877201E+04   -1.6702804E+00
   4.7242967E-04   6.8349254E+04   -1.6697633E+00
   4.7461140E-04   6.7825515E+04   -1.6692469E+00
   4.7680321E-04   6.7305949E+04   -1.6687313E+00
   4.7900514E-04   6.6790521E+04   -1.6682165E+00
   4.8121723E-04   6.6279198E+04   -1.6677025E+00
   4.8343954E-04   6.5771945E+04   -1.6671892E+00
   4.8567212E-04   6.5268728E+04   -1.6666767E+00
   4.8791500E-04   6.4769515E+04   -1.6661650E+00
   4.9016825E-04   6.4274271E+04   -1.6656541E+00
   4.9243189E-04   6.3782964E+04   -1.6651440E+00
   4.9470600E-04   6.3295561E+04   -1.6646346E+00
   4.9699060E-04   6.2812029E+04   -1.6641261E+00
   4.9928575E-04   6.2332338E+04   -1.6636184E+00
   5.0159151E-04   6.1856454E+04   -1.6631115E+00
   5.0390791E-04   6.1384347E+04   -1.6626054E+00
   5.0623501E-04   6.0915985E+04   -1.6621001E+00
   5.0857286E-04   6.0451337E+04   -1.6615956E+00
   5.1092150E-04   5.9990373E+04   -1.6610919E+00
   5.1328099E-04   5.9533062E+04   -1.6605891E+00
   5.1565137E-04   5.9079374E+04   -1.6600871E+00
   5.1803270E-04   5.8629279E+04   -1.6595859E+00
   5.2042503E-04   5.8182747E+04   -1.6590856E+00
   5.2282841E-04   5.7739749E+04   -1.6585861E+00
   5.2524289E-04   5.7300255E+04   -1.6580874E+00
   5.2766851E-04   5.6864238E+04   -1.6575896E+00
   5.3010534E-04   5.6431667E+04   -1.6570926E+00
   5.3255342E-04   5.6002515E+04   -1.6565965E+00
   5.3501281E-04   5.5576754E+04   -1.6561012E+00
   5.3748356E-04   5.5154356E+04   -1.6556068E+00
   5.3996571E-04   5.4735292E+04   -1.6551133E+00
   5.4245933E-04   5.4319535E+04   -1.6546206E+00
   5.4496446E-04   5.3907060E+04   -1.6541287E+00
   5.4748117E-04   5.3497837E+04   -1.6536378E+00
   5.5000949E-04   5.3091841E+04   -1.6531477E+00
   5.5254949E-04   5.2689045E+04   -1.6526584E+00
   5.5510123E-04   5.2289422E+04   -1.6521701E+00
   5.5766474E-04   5.1892947E+04   -1.6516826E+00
   5.6024010E-04   5.1499594E+04   -1.6511960E+00
   5.6282734E-04   5.1109337E+04   -1.6507103E+00
   5.6542654E-04   5.0722151E+04   -1.6502255E+00
   5.6803774E-04   5.0338010E+04   -1.6497416E+00
   5.7066099E-04   4.9956890E+04   -1.6492586E+00
   5.7329637E-04   4.9578766E+04   -1.6487764E+00
   5.7594391E-04   4.9203612E+04   -1.6482952E+00
   5.7860368E-04   4.8831406E+04   -1.6478148E+00
   5.8127573E-04   4.8462123E+04   -1.6473354E+00
   5.8396012E-04   4.8095738E+04   -1.6468569E+00
   5.8665691E-04   4.7732228E+04   -1.6463792E+00
   5.8936616E-04   4.7371570E+04   -1.6459025E+00
   5.9208791E-04   4.7013740E+04   -1.6454267E+00
   5.9482223E-04   4.6658716E+04   -1.6449518E+00
   5.9756919E-04   4.6306473E+04   -1.6444779E+00
   6.0032882E-04   4.5956990E+04   -1.6440048E+00
   6.0310120E-04   4.5610244E+04   -1.6435327E+00
   6.0588639E-04   4.5266212E+04   -1.6430615E+00
   6.0868443E-04   4.4924873E+04   -1.6425912E+00
   6.1149540E-04   4.4586205E+04   -1.6421219E+00
   6.1431935E-04   4.4250185E+04   -1.6416535E+00
   6.1715634E-04   4.3916792E+04   -1.6411860E+00
   6.2000644E-04   4.3586004E+04   -1.6407194E+00
   6.2286969E-04   4.3257802E+04   -1.6402538E+00
