#        a       HoverH0(a)       dlogHdloga_of_a(a)
   1.0000000E-04   1.1431838E+06   -1.8610566E+00
   1.0046181E-04   1.1334244E+06   -1.8605939E+00
   1.0092575E-04   1.1237507E+06   -1.8601301E+00
   1.0139184E-04   1.1141619E+06   -1.8596655E+00
   1.0186008E-04   1.1046573E+06   -1.8591999E+00
   1.0233048E-04   1.0952362E+06   -1.8587334E+00
   1.0280305E-04   1.0858977E+06   -1.8582659E+00
   1.0327781E-04   1.0766412E+06   -1.8577975E+00
   1.0375475E-04   1.0674659E+06   -1.8573282E+00
   1.0423390E-04   1.0583711E+06   -1.8568579E+00
   1.0471527E-04   1.0493561E+06   -1.8563867E+00
   1.0519885E-04   1.0404201E+06   -1.8559146E+00
   1.0568467E-04   1.0315624E+06   -1.8554416E+00
   1.0617274E-04   1.0227824E+06   -1.8549676E+00
   1.0666305E-04   1.0140793E+06   -1.8544927E+00
   1.0715563E-04   1.0054525E+06   -1.8540169E+00
   1.0765049E-04   9.9690125E+05   -1.8535402E+00
   1.0814763E-04   9.8842492E+05   -1.8530626E+00
   1.0864707E-04   9.8002281E+05   -1.8525841E+00
   1.0914881E-04   9.7169427E+05   -1.8521047E+00
   1.0965287E-04   9.6343864E+05   -1.8516243E+00
   1.1015926E-04   9.5525527E+05   -1.8511431E+00
   1.1066799E-04   9.4714351E+05   -1.8506610E+00
   1.1117906E-04   9.3910271E+05   -1.8501779E+00
   1.1169250E-04   9.3113226E+05   -1.8496940E+00
   1.1220831E-04   9.2323151E+05   -1.8492092E+00
   1.1272650E-04   9.1539984E+05   -1.8487235E+00
   1.1324708E-04   9.0763665E+05   -1.8482369E+00
   1.1377007E-04   8.9994131E+05   -1.8477495E+00
   1.1429547E-04   8.9231323E+05   -1.8472611E+00
   1.1482330E-04   8.8475179E+05   -1.8467719E+00
   1.1535356E-04   8.7725641E+05   -1.8462818E+00
   1.1588628E-04   8.6982649E+05   -1.8457909E+00
   1.1642145E-04   8.6246145E+05   -1.8452990E+00
   1.1695910E-04   8.5516072E+05   -1.8448063E+00
   1.1749923E-04   8.4792371E+05   -1.8443128E+00
   1.1804185E-04   8.4074985E+05   -1.8438184E+00
   1.1858698E-04   8.3363860E+05   -1.8433231E+00
   1.1913463E-04   8.2658938E+05   -1.8428270E+00
   1.1968481E-04   8.1960164E+05   -1.8423300E+00
   1.2023752E-04   8.1267484E+05   -1.8418322E+00
   1.2079279E-04   8.0580843E+05   -1.8413335E+00
   1.2135063E-04   7.9900187E+05   -1.8408340E+00
   1.2191104E-04   7.9225463E+05   -1.8403337E+00
   1.2247403E-04   7.8556618E+05   -1.8398325E+00
   1.2303963E-04   7.7893600E+05   -1.8393305E+00
   1.2360784E-04   7.7236357E+05   -1.8388277E+00
   1.2417868E-04   7.6584836E+05   -1.8383240E+00
   1.2475215E-04   7.5938988E+05   -1.8378196E+00
   1.2532826E-04   7.5298761E+05   -1.8373143E+00
   1.2590704E-04   7.4664106E+05   -1.8368082E+00
   1.2648850E-04   7.4034973E+05   -1.8363012E+00
   1.2707263E-04   7.3411313E+05   -1.8357935E+00
   1.2765947E-04   7.2793077E+05   -1.8352850E+00
   1.2824901E-04   7.2180216E+05   -1.8347757E+00
   1.2884128E-04   7.1572684E+05   -1.8342655E+00
   1.2943628E-04   7.0970432E+05   -1.8337546E+00
   1.3003403E-04   7.0373414E+05   -1.8332429E+00
   1.3063454E-04   6.9781582E+05   -1.8327304E+00
   1.3123783E-04   6.9194891E+05   -1.8322171E+00
   1.3184390E-04   6.8613295E+05   -1.8317031E+00
   1.3245277E-04   6.8036749E+05   -1.8311883E+00
   1.3306445E-04   6.7465207E+05   -1.8306727E+00
   1.3367895E-04   6.6898626E+05   -1.8301563E+00
   1.3429630E-04   6.6336961E+05   -1.8296392E+00
   1.3491649E-04   6.5780168E+05   -1.8291213E+00
   1.3553955E-04   6.5228205E+05   -1.8286026E+00
   1.3616548E-04   6.4681028E+05   -1.8280832E+00
   1.3679431E-04   6.4138594E+05   -1.8275631E+00
   1.3742604E-04   6.3600862E+05   -1.8270422E+00
   1.3806069E-04   6.3067790E+05   -1.8265206E+00
   1.3869827E-04   6.2539336E+05   -1.8259982E+00
   1.3933879E-04   6.2015460E+05   -1.8254751E+00
   1.3998227E-04   6.1496120E+05   -1.8249513E+00
   1.4062872E-04   6.0981277E+05   -1.8244267E+00
   1.4127816E-04   6.0470890E+05   -1.8239014E+00
   1.4193060E-04   5.9964920E+05   -1.8233755E+00
   1.4258605E-04   5.9463327E+05   -1.8228487E+00
   1.4324453E-04   5.8966074E+05   -1.8223213E+00
   1.4390605E-04   5.8473121E+05   -1.8217932E+00
   1.4457062E-04   5.7984430E+05   -1.8212644E+00
   1.4523826E-04   5.7499964E+05   -1.8207349E+00
   1.4590899E-04   5.7019685E+05   -1.8202047E+00
   1.4658281E-04   5.6543556E+05   -1.8196738E+00
   1.4725974E-04   5.6071539E+05   -1.8191423E+00
   1.4793981E-04   5.5603600E+05   -1.8186100E+00
   1.4862301E-04   5.5139700E+05   -1.8180771E+00
   1.4930936E-04   5.4679806E+05   -1.8175435E+00
   1.4999889E-04   5.4223880E+05   -1.8170093E+00
   1.5069160E-04   5.3771888E+05   -1.8164744E+00
   1.5138751E-04   5.3323796E+05   -1.8159388E+00
   1.5208663E-04   5.2879568E+05   -1.8154026E+00
   1.5278899E-04   5.2439171E+05   -1.8148657E+00
   1.5349458E-04   5.2002570E+05   -1.8143282E+00
   1.5420343E-04   5.1569732E+05   -1.8137900E+00
   1.5491556E-04   5.1140623E+05   -1.8132513E+00
   1.5563098E-04   5.0715211E+05   -1.8127119E+00
   1.5634970E-04   5.0293463E+05   -1.8121718E+00
   1.5707174E-04   4.9875347E+05   -1.8116312E+00
   1.5779711E-04   4.9460829E+05   -1.8110899E+00
   1.5852584E-04   4.9049880E+05   -1.8105480E+00
   1.5925792E-04   4.8642466E+05   -1.8100055E+00
   1.5999339E-04   4.8238556E+05   -1.8094625E+00
   1.6073226E-04   4.7838121E+05   -1.8089188E+00
   1.6147454E-04   4.7441128E+05   -1.8083745E+00
   1.6222024E-04   4.7047548E+05   -1.8078297E+00
   1.6296939E-04   4.6657350E+05   -1.8072842E+00
   1.6372200E-04   4.6270505E+05   -1.8067382E+00
   1.6447809E-04   4.5886983E+05   -1.8061916E+00
   1.6523767E-04   4.5506754E+05   -1.8056445E+00
   1.6600075E-04   4.5129790E+05   -1.8050968E+00
   1.6676736E-04   4.4756062E+05   -1.8045485E+00
   1.6753751E-04   4.4385540E+05   -1.8039997E+00
   1.6831122E-04   4.4018197E+05   -1.8034503E+00
   1.6908849E-04   4.3654006E+05   -1.8029004E+00
   1.6986936E-04   4.3292937E+05   -1.8023500E+00
   1.7065384E-04   4.2934963E+05   -1.8017990E+00
   1.7144193E-04   4.2580057E+05   -1.8012475E+00
   1.7223367E-04   4.2228193E+05   -1.8006955E+00
   1.7302906E-04   4.1879343E+05   -1.8001429E+00
   1.7382813E-04   4.1533480E+05   -1.7995899E+00
   1.7463089E-04   4.1190579E+05   -1.7990363E+00
   1.7543735E-04   4.0850613E+05   -1.7984822E+00
   1.7624754E-04   4.0513557E+05   -1.7979277E+00
   1.7706147E-04   4.0179384E+05   -1.7973726E+00
   1.7787916E-04   3.9848070E+05   -1.7968171E+00
   1.7870062E-04   3.9519588E+05   -1.7962611E+00
   1.7952588E-04   3.9193915E+05   -1.7957046E+00
   1.8035495E-04   3.8871026E+05   -1.7951477E+00
   1.8118785E-04   3.8550895E+05   -1.7945903E+00
   1.8202459E-04   3.8233499E+05   -1.7940324E+00
   1.8286520E-04   3.7918814E+05   -1.7934741E+00
   1.8370969E-04   3.7606816E+05   -1.7929153E+00
   1.8455808E-04   3.7297481E+05   -1.7923561E+00
   1.8541039E-04   3.6990785E+05   -1.7917964E+00
   1.8626663E-04   3.6686707E+05   -1.7912363E+00
   1.8712683E-04   3.6385222E+05   -1.7906758E+00
   1.8799100E-04   3.6086307E+05   -1.7901149E+00
   1.8885917E-04   3.5789941E+05   -1.7895535E+00
   1.8973134E-04   3.5496101E+05   -1.7889918E+00
   1.9060754E-04   3.5204764E+05   -1.7884296E+00
   1.9148778E-04   3.4915909E+05   -1.7878670E+00
   1.9237209E-04   3.4629513E+05   -1.7873041E+00
   1.9326049E-04   3.4345556E+05   -1.7867407E+00
   1.9415299E-04   3.4064016E+05   -1.7861770E+00
   1.9504960E-04   3.3784872E+05   -1.7856129E+00
   1.9595036E-04   3.3508102E+05   -1.7850484E+00
   1.9685528E-04   3.3233686E+05   -1.7844836E+00
   1.9776438E-04   3.2961603E+05   -1.7839184E+00
   1.9867768E-04   3.2691833E+05   -1.7833529E+00
   1.9959519E-04   3.2424355E+05   -1.7827870E+00
   2.0051694E-04   3.2159149E+05   -1.7822207E+00
   2.0144295E-04   3.1896196E+05   -1.7816542E+00
   2.0237324E-04   3.1635476E+05   -1.7810872E+00
   2.0330782E-04   3.1376969E+05   -1.7805200E+00
   2.0424671E-04   3.1120655E+05   -1.7799525E+00
   2.0518995E-04   3.0866516E+05   -1.7793846E+00
   2.0613754E-04   3.0614532E+05   -1.7788164E+00
   2.0708950E-04   3.0364685E+05   -1.7782480E+00
   2.0804586E-04   3.0116956E+05   -1.7776792E+00
   2.0900664E-04   2.9871327E+05   -1.7771101E+00
   2.0997185E-04   2.9627778E+05   -1.7765408E+00
   2.1094152E-04   2.9386292E+05   -1.7759711E+00
   2.1191567E-04   2.9146851E+05   -1.7754012E+00
   2.1289432E-04   2.8909437E+05   -1.7748311E+00
   2.1387749E-04   2.8674032E+05   -1.7742607E+00
   2.1486520E-04   2.8440619E+05   -1.7736900E+00
   2.1585747E-04   2.8209180E+05   -1.7731190E+00
   2.1685432E-04   2.7979698E+05   -1.7725479E+00
   2.1785578E-04   2.7752156E+05   -1.7719765E+00
   2.1886186E-04   2.7526536E+05   -1.7714048E+00
   2.1987259E-04   2.7302823E+05   -1.7708329E+00
   2.2088798E-04   2.7081000E+05   -1.7702608E+00
   2.2190807E-04   2.6861049E+05   -1.7696885E+00
   2.2293286E-04   2.6642956E+05   -1.7691160E+00
   2.2396239E-04   2.6426702E+05   -1.7685433E+00
   2.2499667E-04   2.6212273E+05   -1.7679704E+00
   2.2603573E-04   2.5999653E+05   -1.7673973E+00
   2.2707958E-04   2.5788826E+05   -1.7668240E+00
   2.2812826E-04   2.5579775E+05   -1.7662506E+00
   2.2918178E-04   2.5372486E+05   -1.7656769E+00
   2.3024017E-04   2.5166944E+05   -1.7651031E+00
   2.3130344E-04   2.4963132E+05   -1.7645292E+00
   2.3237162E-04   2.4761037E+05   -1.7639550E+00
   2.3344474E-04   2.4560643E+05   -1.7633808E+00
   2.3452281E-04   2.4361935E+05   -1.7628064E+00
   2.3560586E-04   2.4164899E+05   -1.7622318E+00
   2.3669392E-04   2.3969520E+05   -1.7616572E+00
   2.3778699E-04   2.3775783E+05   -1.7610824E+00
   2.3888512E-04   2.3583675E+05   -1.7605074E+00
   2.3998831E-04   2.3393181E+05   -1.7599324E+00
   2.4109661E-04   2.3204287E+05   -1.7593573E+00
   2.4221001E-04   2.3016979E+05   -1.7587821E+00
   2.4332857E-04   2.2831244E+05   -1.7582067E+00
   2.4445228E-04   2.2647068E+05   -1.7576313E+00
   2.4558119E-04   2.2464437E+05   -1.7570558E+00
   2.4671531E-04   2.2283338E+05   -1.7564803E+00
   2.4785467E-04   2.2103757E+05   -1.7559046E+00
   2.4899928E-04   2.1925682E+05   -1.7553289E+00
   2.5014919E-04   2.1749099E+05   -1.7547532E+00
   2.5130440E-04   2.1573996E+05   -1.7541774E+00
   2.5246495E-04   2.1400359E+05   -1.7536015E+00
   2.5363086E-04   2.1228176E+05   -1.7530256E+00
   2.5480216E-04   2.1057434E+05   -1.7524497E+00
   2.5597886E-04   2.0888121E+05   -1.7518737E+00
   2.5716100E-04   2.0720224E+05   -1.7512978E+00
   2.5834859E-04   2.0553731E+05   -1.7507218E+00
   2.5954168E-04   2.0388630E+05   -1.7501458E+00
   2.6074027E-04   2.0224909E+05   -1.7495698E+00
   2.6194439E-04   2.0062556E+05   -1.7489938E+00
   2.6315408E-04   1.9901559E+05   -1.7484178E+00
   2.6436935E-04   1.9741907E+05   -1.7478419E+00
   2.6559024E-04   1.9583587E+05   -1.7472659E+00
   2.6681676E-04   1.9426589E+05   -1.7466900E+00
   2.6804895E-04   1.9270900E+05   -1.7461141E+00
   2.6928683E-04   1.9116509E+05   -1.7455383E+00
   2.7053042E-04   1.8963406E+05   -1.7449625E+00
   2.7177976E-04   1.8811579E+05   -1.7443868E+00
   2.7303487E-04   1.8661017E+05   -1.7438111E+00
   2.7429577E-04   1.8511709E+05   -1.7432355E+00
   2.7556250E-04   1.8363644E+05   -1.7426599E+00
   2.7683507E-04   1.8216813E+05   -1.7420845E+00
   2.7811353E-04   1.8071202E+05   -1.7415091E+00
   2.7939788E-04   1.7926804E+05   -1.7409338E+00
   2.8068817E-04   1.7783606E+05   -1.7403586E+00
   2.8198442E-04   1.7641599E+05   -1.7397835E+00
   2.8328665E-04   1.7500772E+05   -1.7392085E+00
   2.8459490E-04   1.7361116E+05   -1.7386337E+00
   2.8590919E-04   1.7222619E+05   -1.7380589E+00
   2.8722955E-04   1.7085273E+05   -1.7374843E+00
   2.8855600E-04   1.6949067E+05   -1.7369098E+00
   2.8988859E-04   1.6813991E+05   -1.7363354E+00
   2.9122732E-04   1.6680036E+05   -1.7357612E+00
   2.9257224E-04   1.6547191E+05   -1.7351872E+00
   2.9392337E-04   1.6415449E+05   -1.7346132E+00
   2.9528074E-04   1.6284798E+05   -1.7340395E+00
   2.9664438E-04   1.6155229E+05   -1.7334659E+00
   2.9801431E-04   1.6026734E+05   -1.7328925E+00
   2.9939057E-04   1.5899303E+05   -1.7323193E+00
   3.0077319E-04   1.5772927E+05   -1.7317463E+00
   3.0216219E-04   1.5647597E+05   -1.7311734E+00
   3.0355761E-04   1.5523303E+05   -1.7306008E+00
   3.0495947E-04   1.5400037E+05   -1.7300283E+00
   3.0636780E-04   1.5277791E+05   -1.7294561E+00
   3.0778264E-04   1.5156555E+05   -1.7288841E+00
   3.0920401E-04   1.5036320E+05   -1.7283123E+00
   3.1063195E-04   1.4917079E+05   -1.7277408E+00
   3.1206648E-04   1.4798822E+05   -1.7271694E+00
   3.1350764E-04   1.4681541E+05   -1.7265983E+00
   3.1495545E-04   1.4565228E+05   -1.7260275E+00
   3.1640994E-04   1.4449875E+05   -1.7254569E+00
   3.1787116E-04   1.4335473E+05   -1.7248866E+00
   3.1933912E-04   1.4222013E+05   -1.7243165E+00
   3.2081386E-04   1.4109489E+05   -1.7237467E+00
   3.2229541E-04   1.3997892E+05   -1.7231772E+00
   3.2378381E-04   1.3887214E+05   -1.7226079E+00
   3.2527908E-04   1.3777448E+05   -1.7220390E+00
   3.2678125E-04   1.3668584E+05   -1.7214703E+00
   3.2829036E-04   1.3560617E+05   -1.7209019E+00
   3.2980644E-04   1.3453537E+05   -1.7203339E+00
   3.3132952E-04   1.3347338E+05   -1.7197661E+00
   3.3285963E-04   1.3242012E+05   -1.7191987E+00
   3.3439681E-04   1.3137551E+05   -1.7186315E+00
   3.3594109E-04   1.3033949E+05   -1.7180648E+00
   3.3749250E-04   1.2931197E+05   -1.7174983E+00
   3.3905108E-04   1.2829289E+05   -1.7169322E+00
   3.4061685E-04   1.2728217E+05   -1.7163664E+00
   3.4218986E-04   1.2627974E+05   -1.7158010E+00
   3.4377013E-04   1.2528554E+05   -1.7152359E+00
   3.4535769E-04   1.2429948E+05   -1.7146712E+00
   3.4695259E-04   1.2332151E+05   -1.7141069E+00
   3.4855485E-04   1.2235154E+05   -1.7135429E+00
   3.5016452E-04   1.2138953E+05   -1.7129793E+00
   3.5178161E-04   1.2043539E+05   -1.7124161E+00
   3.5340618E-04   1.1948905E+05   -1.7118533E+00
   3.5503824E-04   1.1855047E+05   -1.7112909E+00
   3.5667785E-04   1.1761956E+05   -1.7107288E+00
   3.5832502E-04   1.1669626E+05   -1.7101672E+00
   3.5997981E-04   1.1578051E+05   -1.7096060E+00
   3.6164223E-04   1.1487224E+05   -1.7090452E+00
   3.6331233E-04   1.1397139E+05   -1.7084849E+00
   3.6499015E-04   1.1307790E+05   -1.7079249E+00
   3.6667571E-04   1.1219170E+05   -1.7073654E+00
   3.6836906E-04   1.1131273E+05   -1.7068064E+00
   3.7007022E-04   1.1044094E+05   -1.7062478E+00
   3.7177925E-04   1.0957625E+05   -1.7056896E+00
   3.7349616E-04   1.0871862E+05   -1.7051319E+00
   3.7522101E-04   1.0786797E+05   -1.7045746E+00
   3.7695382E-04   1.0702425E+05   -1.7040178E+00
   3.7869463E-04   1.0618741E+05   -1.7034615E+00
   3.8044348E-04   1.0535738E+05   -1.7029057E+00
   3.8220041E-04   1.0453410E+05   -1.7023503E+00
   3.8396545E-04   1.0371752E+05   -1.7017954E+00
   3.8573864E-04   1.0290759E+05   -1.7012411E+00
   3.8752002E-04   1.0210424E+05   -1.7006872E+00
   3.8930963E-04   1.0130742E+05   -1.7001338E+00
   3.9110750E-04   1.0051707E+05   -1.6995809E+00
   3.9291368E-04   9.9733148E+04   -1.6990286E+00
   3.9472820E-04   9.8955588E+04   -1.6984767E+00
   3.9655109E-04   9.8184339E+04   -1.6979254E+00
   3.9838241E-04   9.7419349E+04   -1.6973746E+00
   4.0022218E-04   9.6660564E+04   -1.6968243E+00
   4.0207045E-04   9.5907932E+04   -1.6962746E+00
   4.0392725E-04   9.5161402E+04   -1.6957254E+00
   4.0579263E-04   9.4420922E+04   -1.6951768E+00
   4.0766662E-04   9.3686439E+04   -1.6946287E+00
   4.0954927E-04   9.2957905E+04   -1.6940812E+00
   4.1144061E-04   9.2235269E+04   -1.6935343E+00
   4.1334068E-04   9.1518481E+04   -1.6929879E+00
   4.1524953E-04   9.0807492E+04   -1.6924421E+00
   4.1716720E-04   9.0102252E+04   -1.6918968E+00
   4.1909372E-04   8.9402715E+04   -1.6913522E+00
   4.2102914E-04   8.8708831E+04   -1.6908081E+00
   4.2297350E-04   8.8020552E+04   -1.6902646E+00
   4.2492683E-04   8.7337833E+04   -1.6897218E+00
   4.2688919E-04   8.6660626E+04   -1.6891795E+00
   4.2886061E-04   8.5988884E+04   -1.6886378E+00
   4.3084113E-04   8.5322563E+04   -1.6880968E+00
   4.3283080E-04   8.4661615E+04   -1.6875563E+00
   4.3482966E-04   8.4005997E+04   -1.6870165E+00
   4.3683775E-04   8.3355663E+04   -1.6864773E+00
   4.3885511E-04   8.2710568E+04   -1.6859388E+00
   4.4088179E-04   8.2070670E+04   -1.6854008E+00
   4.4291783E-04   8.1435924E+04   -1.6848636E+00
   4.4496327E-04   8.0806287E+04   -1.6843269E+00
   4.4701816E-04   8.0181717E+04   -1.6837909E+00
   4.4908253E-04   7.9562170E+04   -1.6832556E+00
   4.5115644E-04   7.8947605E+04   -1.6827209E+00
   4.5323993E-04   7.8337980E+04   -1.6821869E+00
   4.5533304E-04   7.7733253E+04   -1.6816535E+00
   4.5743582E-04   7.7133385E+04   -1.6811208E+00
   4.5954830E-04   7.6538333E+04   -1.6805888E+00
   4.6167054E-04   7.5948058E+04   -1.6800575E+00
   4.6380259E-04   7.5362519E+04   -1.6795268E+00
   4.6594448E-04   7.4781677E+04   -1.6789969E+00
   4.6809626E-04   7.4205494E+04   -1.6784676E+00
   4.7025797E-04   7.3633929E+04   -1.6779390E+00
   4.7242967E-04   7.3066944E+04   -1.6774111E+00
   4.7461140E-04   7.2504502E+04   -1.6768840E+00
   4.7680321E-04   7.1946563E+04   -1.6763575E+00
   4.7900514E-04   7.1393091E+04   -1.6758318E+00
   4.8121723E-04   7.0844048E+04   -1.6753067E+00
   4.8343954E-04   7.0299398E+04   -1.6747824E+00
   4.8567212E-04   6.9759103E+04   -1.6742589E+00
   4.8791500E-04   6.9223128E+04   -1.6737360E+00
   4.9016825E-04   6.8691436E+04   -1.6732139E+00
   4.9243189E-04   6.8163992E+04   -1.6726925E+00
   4.9470600E-04   6.7640760E+04   -1.6721719E+00
   4.9699060E-04   6.7121706E+04   -1.6716520E+00
   4.9928575E-04   6.6606793E+04   -1.6711328E+00
   5.0159151E-04   6.6095989E+04   -1.6706144E+00
   5.0390791E-04   6.5589259E+04   -1.6700968E+00
   5.0623501E-04   6.5086569E+04   -1.6695799E+00
   5.0857286E-04   6.4587885E+04   -1.6690638E+00
   5.1092150E-04   6.4093174E+04   -1.6685485E+00
   5.1328099E-04   6.3602404E+04   -1.6680339E+00
   5.1565137E-04   6.3115541E+04   -1.6675201E+00
   5.1803270E-04   6.2632553E+04   -1.6670071E+00
   5.2042503E-04   6.2153408E+04   -1.6664949E+00
   5.2282841E-04   6.1678073E+04   -1.6659834E+00
   5.2524289E-04   6.1206519E+04   -1.6654728E+00
   5.2766851E-04   6.0738712E+04   -1.6649629E+00
   5.3010534E-04   6.0274622E+04   -1.6644538E+00
   5.3255342E-04   5.9814218E+04   -1.6639456E+00
   5.3501281E-04   5.9357470E+04   -1.6634381E+00
   5.3748356E-04   5.8904347E+04   -1.6629315E+00
   5.3996571E-04   5.8454820E+04   -1.6624256E+00
   5.4245933E-04   5.8008858E+04   -1.6619206E+00
   5.4496446E-04   5.7566433E+04   -1.6614164E+00
   5.4748117E-04   5.7127514E+04   -1.6609130E+00
   5.5000949E-04   5.6692074E+04   -1.6604105E+00
   5.5254949E-04   5.6260082E+04   -1.6599087E+00
   5.5510123E-04   5.5831512E+04   -1.6594078E+00
   5.5766474E-04   5.5406333E+04   -1.6589078E+00
   5.6024010E-04   5.4984520E+04   -1.6584085E+00
   5.6282734E-04   5.4566043E+04   -1.6579102E+00
   5.6542654E-04   5.4150875E+04   -1.6574126E+00
   5.6803774E-04   5.3738989E+04   -1.6569159E+00
   5.7066099E-04   5.3330358E+04   -1.6564201E+00
   5.7329637E-04   5.2924954E+04   -1.6559251E+00
   5.7594391E-04   5.2522753E+04   -1.6554310E+00
   5.7860368E-04   5.2123726E+04   -1.6549377E+00
   5.8127573E-04   5.1727849E+04   -1.6544453E+00
   5.8396012E-04   5.1335094E+04   -1.6539537E+00
   5.8665691E-04   5.0945437E+04   -1.6534630E+00
   5.8936616E-04   5.0558852E+04   -1.6529732E+00
   5.9208791E-04   5.0175313E+04   -1.6524843E+00
   5.9482223E-04   4.9794796E+04   -1.6519962E+00
   5.9756919E-04   4.9417276E+04   -1.6515091E+00
   6.0032882E-04   4.9042728E+04   -1.6510228E+00
   6.0310120E-04   4.8671128E+04   -1.6505374E+00
   6.0588639E-04   4.8302451E+04   -1.6500528E+00
   6.0868443E-04   4.7936673E+04   -1.6495692E+00
   6.1149540E-04   4.7573772E+04   -1.6490865E+00
   6.1431935E-04   4.7213723E+04   -1.6486046E+00
   6.1715634E-04   4.6856503E+04   -1.6481237E+00
   6.2000644E-04   4.6502088E+04   -1.6476436E+00
   6.2286969E-04   4.6150456E+04   -1.6471645E+00
