#        a       HoverH0(a)       dlogHdloga_of_a(a)
   1.0000000E-04   1.1667431E+06   -1.8793586E+00
   1.0046181E-04   1.1566849E+06   -1.8789364E+00
   1.0092575E-04   1.1467157E+06   -1.8785131E+00
   1.0139184E-04   1.1368346E+06   -1.8780889E+00
   1.0186008E-04   1.1270408E+06   -1.8776636E+00
   1.0233048E-04   1.1173336E+06   -1.8772374E+00
   1.0280305E-04   1.1077122E+06   -1.8768101E+00
   1.0327781E-04   1.0981758E+06   -1.8763818E+00
   1.0375475E-04   1.0887236E+06   -1.8759526E+00
   1.0423390E-04   1.0793550E+06   -1.8755223E+00
   1.0471527E-04   1.0700691E+06   -1.8750910E+00
   1.0519885E-04   1.0608651E+06   -1.8746588E+00
   1.0568467E-04   1.0517425E+06   -1.8742255E+00
   1.0617274E-04   1.0427004E+06   -1.8737913E+00
   1.0666305E-04   1.0337381E+06   -1.8733561E+00
   1.0715563E-04   1.0248548E+06   -1.8729198E+00
   1.0765049E-04   1.0160500E+06   -1.8724826E+00
   1.0814763E-04   1.0073228E+06   -1.8720444E+00
   1.0864707E-04   9.9867266E+05   -1.8716052E+00
   1.0914881E-04   9.9009876E+05   -1.8711651E+00
   1.0965287E-04   9.8160046E+05   -1.8707239E+00
   1.1015926E-04   9.7317709E+05   -1.8702818E+00
   1.1066799E-04   9.6482797E+05   -1.8698386E+00
   1.1117906E-04   9.5655244E+05   -1.8693945E+00
   1.1169250E-04   9.4834982E+05   -1.8689495E+00
   1.1220831E-04   9.4021948E+05   -1.8685034E+00
   1.1272650E-04   9.3216075E+05   -1.8680564E+00
   1.1324708E-04   9.2417301E+05   -1.8676084E+00
   1.1377007E-04   9.1625561E+05   -1.8671594E+00
   1.1429547E-04   9.0840791E+05   -1.8667094E+00
   1.1482330E-04   9.0062931E+05   -1.8662585E+00
   1.1535356E-04   8.9291916E+05   -1.8658066E+00
   1.1588628E-04   8.8527687E+05   -1.8653538E+00
   1.1642145E-04   8.7770181E+05   -1.8649000E+00
   1.1695910E-04   8.7019340E+05   -1.8644452E+00
   1.1749923E-04   8.6275103E+05   -1.8639895E+00
   1.1804185E-04   8.5537410E+05   -1.8635328E+00
   1.1858698E-04   8.4806204E+05   -1.8630751E+00
   1.1913463E-04   8.4081426E+05   -1.8626165E+00
   1.1968481E-04   8.3363018E+05   -1.8621569E+00
   1.2023752E-04   8.2650924E+05   -1.8616964E+00
   1.2079279E-04   8.1945087E+05   -1.8612350E+00
   1.2135063E-04   8.1245451E+05   -1.8607726E+00
   1.2191104E-04   8.0551960E+05   -1.8603092E+00
   1.2247403E-04   7.9864558E+05   -1.8598449E+00
   1.2303963E-04   7.9183193E+05   -1.8593797E+00
   1.2360784E-04   7.8507809E+05   -1.8589135E+00
   1.2417868E-04   7.7838353E+05   -1.8584464E+00
   1.2475215E-04   7.7174772E+05   -1.8579783E+00
   1.2532826E-04   7.6517013E+05   -1.8575094E+00
   1.2590704E-04   7.5865024E+05   -1.8570394E+00
   1.2648850E-04   7.5218754E+05   -1.8565686E+00
   1.2707263E-04   7.4578150E+05   -1.8560968E+00
   1.2765947E-04   7.3943164E+05   -1.8556242E+00
   1.2824901E-04   7.3313744E+05   -1.8551505E+00
   1.2884128E-04   7.2689841E+05   -1.8546760E+00
   1.2943628E-04   7.2071405E+05   -1.8542006E+00
   1.3003403E-04   7.1458387E+05   -1.8537242E+00
   1.3063454E-04   7.0850739E+05   -1.8532469E+00
   1.3123783E-04   7.0248412E+05   -1.8527688E+00
   1.3184390E-04   6.9651360E+05   -1.8522897E+00
   1.3245277E-04   6.9059535E+05   -1.8518097E+00
   1.3306445E-04   6.8472890E+05   -1.8513288E+00
   1.3367895E-04   6.7891379E+05   -1.8508470E+00
   1.3429630E-04   6.7314956E+05   -1.8503643E+00
   1.3491649E-04   6.6743575E+05   -1.8498807E+00
   1.3553955E-04   6.6177193E+05   -1.8493963E+00
   1.3616548E-04   6.5615763E+05   -1.8489109E+00
   1.3679431E-04   6.5059242E+05   -1.8484247E+00
   1.3742604E-04   6.4507586E+05   -1.8479375E+00
   1.3806069E-04   6.3960751E+05   -1.8474495E+00
   1.3869827E-04   6.3418694E+05   -1.8469606E+00
   1.3933879E-04   6.2881373E+05   -1.8464709E+00
   1.3998227E-04   6.2348745E+05   -1.8459802E+00
   1.4062872E-04   6.1820769E+05   -1.8454887E+00
   1.4127816E-04   6.1297402E+05   -1.8449964E+00
   1.4193060E-04   6.0778604E+05   -1.8445031E+00
   1.4258605E-04   6.0264335E+05   -1.8440090E+00
   1.4324453E-04   5.9754552E+05   -1.8435141E+00
   1.4390605E-04   5.9249218E+05   -1.8430183E+00
   1.4457062E-04   5.8748291E+05   -1.8425216E+00
   1.4523826E-04   5.8251733E+05   -1.8420241E+00
   1.4590899E-04   5.7759504E+05   -1.8415258E+00
   1.4658281E-04   5.7271567E+05   -1.8410266E+00
   1.4725974E-04   5.6787882E+05   -1.8405266E+00
   1.4793981E-04   5.6308411E+05   -1.8400257E+00
   1.4862301E-04   5.5833118E+05   -1.8395240E+00
   1.4930936E-04   5.5361965E+05   -1.8390215E+00
   1.4999889E-04   5.4894915E+05   -1.8385181E+00
   1.5069160E-04   5.4431932E+05   -1.8380140E+00
   1.5138751E-04   5.3972978E+05   -1.8375090E+00
   1.5208663E-04   5.3518019E+05   -1.8370032E+00
   1.5278899E-04   5.3067019E+05   -1.8364966E+00
   1.5349458E-04   5.2619943E+05   -1.8359892E+00
   1.5420343E-04   5.2176755E+05   -1.8354809E+00
   1.5491556E-04   5.1737421E+05   -1.8349719E+00
   1.5563098E-04   5.1301907E+05   -1.8344621E+00
   1.5634970E-04   5.0870178E+05   -1.8339514E+00
   1.5707174E-04   5.0442202E+05   -1.8334400E+00
   1.5779711E-04   5.0017944E+05   -1.8329278E+00
   1.5852584E-04   4.9597371E+05   -1.8324148E+00
   1.5925792E-04   4.9180451E+05   -1.8319011E+00
   1.5999339E-04   4.8767151E+05   -1.8313865E+00
   1.6073226E-04   4.8357439E+05   -1.8308712E+00
   1.6147454E-04   4.7951284E+05   -1.8303551E+00
   1.6222024E-04   4.7548652E+05   -1.8298383E+00
   1.6296939E-04   4.7149514E+05   -1.8293207E+00
   1.6372200E-04   4.6753838E+05   -1.8288023E+00
   1.6447809E-04   4.6361594E+05   -1.8282832E+00
   1.6523767E-04   4.5972750E+05   -1.8277633E+00
   1.6600075E-04   4.5587276E+05   -1.8272427E+00
   1.6676736E-04   4.5205144E+05   -1.8267214E+00
   1.6753751E-04   4.4826322E+05   -1.8261993E+00
   1.6831122E-04   4.4450782E+05   -1.8256764E+00
   1.6908849E-04   4.4078494E+05   -1.8251529E+00
   1.6986936E-04   4.3709430E+05   -1.8246286E+00
   1.7065384E-04   4.3343560E+05   -1.8241036E+00
   1.7144193E-04   4.2980857E+05   -1.8235779E+00
   1.7223367E-04   4.2621293E+05   -1.8230514E+00
   1.7302906E-04   4.2264839E+05   -1.8225243E+00
   1.7382813E-04   4.1911469E+05   -1.8219964E+00
   1.7463089E-04   4.1561153E+05   -1.8214679E+00
   1.7543735E-04   4.1213867E+05   -1.8209386E+00
   1.7624754E-04   4.0869582E+05   -1.8204087E+00
   1.7706147E-04   4.0528272E+05   -1.8198781E+00
   1.7787916E-04   4.0189911E+05   -1.8193467E+00
   1.7870062E-04   3.9854472E+05   -1.8188147E+00
   1.7952588E-04   3.9521930E+05   -1.8182821E+00
   1.8035495E-04   3.9192259E+05   -1.8177487E+00
   1.8118785E-04   3.8865433E+05   -1.8172147E+00
   1.8202459E-04   3.8541428E+05   -1.8166801E+00
   1.8286520E-04   3.8220218E+05   -1.8161447E+00
   1.8370969E-04   3.7901778E+05   -1.8156087E+00
   1.8455808E-04   3.7586085E+05   -1.8150721E+00
   1.8541039E-04   3.7273113E+05   -1.8145348E+00
   1.8626663E-04   3.6962839E+05   -1.8139969E+00
   1.8712683E-04   3.6655239E+05   -1.8134584E+00
   1.8799100E-04   3.6350288E+05   -1.8129192E+00
   1.8885917E-04   3.6047964E+05   -1.8123794E+00
   1.8973134E-04   3.5748244E+05   -1.8118390E+00
   1.9060754E-04   3.5451104E+05   -1.8112979E+00
   1.9148778E-04   3.5156522E+05   -1.8107563E+00
   1.9237209E-04   3.4864474E+05   -1.8102140E+00
   1.9326049E-04   3.4574939E+05   -1.8096711E+00
   1.9415299E-04   3.4287894E+05   -1.8091277E+00
   1.9504960E-04   3.4003317E+05   -1.8085836E+00
   1.9595036E-04   3.3721187E+05   -1.8080390E+00
   1.9685528E-04   3.3441482E+05   -1.8074937E+00
   1.9776438E-04   3.3164180E+05   -1.8069479E+00
   1.9867768E-04   3.2889261E+05   -1.8064016E+00
   1.9959519E-04   3.2616702E+05   -1.8058546E+00
   2.0051694E-04   3.2346484E+05   -1.8053071E+00
   2.0144295E-04   3.2078585E+05   -1.8047590E+00
   2.0237324E-04   3.1812986E+05   -1.8042104E+00
   2.0330782E-04   3.1549665E+05   -1.8036612E+00
   2.0424671E-04   3.1288603E+05   -1.8031115E+00
   2.0518995E-04   3.1029780E+05   -1.8025613E+00
   2.0613754E-04   3.0773176E+05   -1.8020105E+00
   2.0708950E-04   3.0518772E+05   -1.8014592E+00
   2.0804586E-04   3.0266548E+05   -1.8009073E+00
   2.0900664E-04   3.0016484E+05   -1.8003550E+00
   2.0997185E-04   2.9768563E+05   -1.7998021E+00
   2.1094152E-04   2.9522764E+05   -1.7992487E+00
   2.1191567E-04   2.9279069E+05   -1.7986948E+00
   2.1289432E-04   2.9037461E+05   -1.7981405E+00
   2.1387749E-04   2.8797919E+05   -1.7975856E+00
   2.1486520E-04   2.8560427E+05   -1.7970302E+00
   2.1585747E-04   2.8324966E+05   -1.7964744E+00
   2.1685432E-04   2.8091518E+05   -1.7959181E+00
   2.1785578E-04   2.7860065E+05   -1.7953613E+00
   2.1886186E-04   2.7630590E+05   -1.7948040E+00
   2.1987259E-04   2.7403076E+05   -1.7942463E+00
   2.2088798E-04   2.7177505E+05   -1.7936881E+00
   2.2190807E-04   2.6953861E+05   -1.7931295E+00
   2.2293286E-04   2.6732125E+05   -1.7925704E+00
   2.2396239E-04   2.6512282E+05   -1.7920109E+00
   2.2499667E-04   2.6294315E+05   -1.7914510E+00
   2.2603573E-04   2.6078207E+05   -1.7908906E+00
   2.2707958E-04   2.5863942E+05   -1.7903298E+00
   2.2812826E-04   2.5651503E+05   -1.7897686E+00
   2.2918178E-04   2.5440876E+05   -1.7892070E+00
   2.3024017E-04   2.5232043E+05   -1.7886450E+00
   2.3130344E-04   2.5024989E+05   -1.7880826E+00
   2.3237162E-04   2.4819699E+05   -1.7875197E+00
   2.3344474E-04   2.4616156E+05   -1.7869565E+00
   2.3452281E-04   2.4414347E+05   -1.7863929E+00
   2.3560586E-04   2.4214254E+05   -1.7858290E+00
   2.3669392E-04   2.4015864E+05   -1.7852646E+00
   2.3778699E-04   2.3819161E+05   -1.7846999E+00
   2.3888512E-04   2.3624131E+05   -1.7841348E+00
   2.3998831E-04   2.3430759E+05   -1.7835694E+00
   2.4109661E-04   2.3239030E+05   -1.7830036E+00
   2.4221001E-04   2.3048930E+05   -1.7824375E+00
   2.4332857E-04   2.2860445E+05   -1.7818710E+00
   2.4445228E-04   2.2673561E+05   -1.7813042E+00
   2.4558119E-04   2.2488262E+05   -1.7807371E+00
   2.4671531E-04   2.2304537E+05   -1.7801696E+00
   2.4785467E-04   2.2122370E+05   -1.7796019E+00
   2.4899928E-04   2.1941749E+05   -1.7790338E+00
   2.5014919E-04   2.1762660E+05   -1.7784654E+00
   2.5130440E-04   2.1585088E+05   -1.7778967E+00
   2.5246495E-04   2.1409022E+05   -1.7773278E+00
   2.5363086E-04   2.1234447E+05   -1.7767585E+00
   2.5480216E-04   2.1061351E+05   -1.7761890E+00
   2.5597886E-04   2.0889722E+05   -1.7756191E+00
   2.5716100E-04   2.0719545E+05   -1.7750491E+00
   2.5834859E-04   2.0550808E+05   -1.7744787E+00
   2.5954168E-04   2.0383499E+05   -1.7739081E+00
   2.6074027E-04   2.0217606E+05   -1.7733372E+00
   2.6194439E-04   2.0053115E+05   -1.7727661E+00
   2.6315408E-04   1.9890015E+05   -1.7721948E+00
   2.6436935E-04   1.9728293E+05   -1.7716232E+00
   2.6559024E-04   1.9567938E+05   -1.7710514E+00
   2.6681676E-04   1.9408938E+05   -1.7704794E+00
   2.6804895E-04   1.9251280E+05   -1.7699071E+00
   2.6928683E-04   1.9094953E+05   -1.7693347E+00
   2.7053042E-04   1.8939946E+05   -1.7687620E+00
   2.7177976E-04   1.8786246E+05   -1.7681892E+00
   2.7303487E-04   1.8633843E+05   -1.7676161E+00
   2.7429577E-04   1.8482725E+05   -1.7670429E+00
   2.7556250E-04   1.8332881E+05   -1.7664695E+00
   2.7683507E-04   1.8184300E+05   -1.7658959E+00
   2.7811353E-04   1.8036971E+05   -1.7653221E+00
   2.7939788E-04   1.7890883E+05   -1.7647482E+00
   2.8068817E-04   1.7746025E+05   -1.7641741E+00
   2.8198442E-04   1.7602386E+05   -1.7635999E+00
   2.8328665E-04   1.7459957E+05   -1.7630255E+00
   2.8459490E-04   1.7318725E+05   -1.7624510E+00
   2.8590919E-04   1.7178682E+05   -1.7618763E+00
   2.8722955E-04   1.7039816E+05   -1.7613015E+00
   2.8855600E-04   1.6902117E+05   -1.7607267E+00
   2.8988859E-04   1.6765575E+05   -1.7601516E+00
   2.9122732E-04   1.6630181E+05   -1.7595765E+00
   2.9257224E-04   1.6495924E+05   -1.7590013E+00
   2.9392337E-04   1.6362793E+05   -1.7584260E+00
   2.9528074E-04   1.6230781E+05   -1.7578506E+00
   2.9664438E-04   1.6099876E+05   -1.7572751E+00
   2.9801431E-04   1.5970069E+05   -1.7566995E+00
   2.9939057E-04   1.5841351E+05   -1.7561239E+00
   3.0077319E-04   1.5713712E+05   -1.7555482E+00
   3.0216219E-04   1.5587143E+05   -1.7549724E+00
   3.0355761E-04   1.5461634E+05   -1.7543966E+00
   3.0495947E-04   1.5337176E+05   -1.7538208E+00
   3.0636780E-04   1.5213761E+05   -1.7532449E+00
   3.0778264E-04   1.5091379E+05   -1.7526689E+00
   3.0920401E-04   1.4970021E+05   -1.7520929E+00
   3.1063195E-04   1.4849678E+05   -1.7515170E+00
   3.1206648E-04   1.4730342E+05   -1.7509410E+00
   3.1350764E-04   1.4612004E+05   -1.7503649E+00
   3.1495545E-04   1.4494655E+05   -1.7497889E+00
   3.1640994E-04   1.4378286E+05   -1.7492129E+00
   3.1787116E-04   1.4262890E+05   -1.7486369E+00
   3.1933912E-04   1.4148457E+05   -1.7480609E+00
   3.2081386E-04   1.4034980E+05   -1.7474849E+00
   3.2229541E-04   1.3922449E+05   -1.7469089E+00
   3.2378381E-04   1.3810858E+05   -1.7463330E+00
   3.2527908E-04   1.3700197E+05   -1.7457571E+00
   3.2678125E-04   1.3590459E+05   -1.7451813E+00
   3.2829036E-04   1.3481636E+05   -1.7446055E+00
   3.2980644E-04   1.3373720E+05   -1.7440298E+00
   3.3132952E-04   1.3266702E+05   -1.7434541E+00
   3.3285963E-04   1.3160576E+05   -1.7428785E+00
   3.3439681E-04   1.3055334E+05   -1.7423030E+00
   3.3594109E-04   1.2950967E+05   -1.7417275E+00
   3.3749250E-04   1.2847469E+05   -1.7411522E+00
   3.3905108E-04   1.2744832E+05   -1.7405769E+00
   3.4061685E-04   1.2643048E+05   -1.7400018E+00
   3.4218986E-04   1.2542111E+05   -1.7394267E+00
   3.4377013E-04   1.2442012E+05   -1.7388518E+00
   3.4535769E-04   1.2342745E+05   -1.7382769E+00
   3.4695259E-04   1.2244302E+05   -1.7377022E+00
   3.4855485E-04   1.2146676E+05   -1.7371276E+00
   3.5016452E-04   1.2049861E+05   -1.7365532E+00
   3.5178161E-04   1.1953849E+05   -1.7359789E+00
   3.5340618E-04   1.1858634E+05   -1.7354047E+00
   3.5503824E-04   1.1764208E+05   -1.7348307E+00
   3.5667785E-04   1.1670564E+05   -1.7342569E+00
   3.5832502E-04   1.1577697E+05   -1.7336832E+00
   3.5997981E-04   1.1485599E+05   -1.7331097E+00
   3.6164223E-04   1.1394264E+05   -1.7325364E+00
   3.6331233E-04   1.1303685E+05   -1.7319633E+00
   3.6499015E-04   1.1213856E+05   -1.7313903E+00
   3.6667571E-04   1.1124769E+05   -1.7308176E+00
   3.6836906E-04   1.1036420E+05   -1.7302450E+00
   3.7007022E-04   1.0948801E+05   -1.7296727E+00
   3.7177925E-04   1.0861907E+05   -1.7291005E+00
   3.7349616E-04   1.0775730E+05   -1.7285286E+00
   3.7522101E-04   1.0690266E+05   -1.7279569E+00
   3.7695382E-04   1.0605507E+05   -1.7273855E+00
   3.7869463E-04   1.0521448E+05   -1.7268143E+00
   3.8044348E-04   1.0438082E+05   -1.7262433E+00
   3.8220041E-04   1.0355405E+05   -1.7256726E+00
   3.8396545E-04   1.0273409E+05   -1.7251021E+00
   3.8573864E-04   1.0192089E+05   -1.7245319E+00
   3.8752002E-04   1.0111440E+05   -1.7239619E+00
   3.8930963E-04   1.0031455E+05   -1.7233923E+00
   3.9110750E-04   9.9521285E+04   -1.7228229E+00
   3.9291368E-04   9.8734556E+04   -1.7222538E+00
   3.9472820E-04   9.7954302E+04   -1.7216850E+00
   3.9655109E-04   9.7180469E+04   -1.7211164E+00
   3.9838241E-04   9.6413001E+04   -1.7205482E+00
   4.0022218E-04   9.5651845E+04   -1.7199803E+00
   4.0207045E-04   9.4896947E+04   -1.7194127E+00
   4.0392725E-04   9.4148252E+04   -1.7188454E+00
   4.0579263E-04   9.3405709E+04   -1.7182785E+00
   4.0766662E-04   9.2669264E+04   -1.7177119E+00
   4.0954927E-04   9.1938865E+04   -1.7171456E+00
   4.1144061E-04   9.1214460E+04   -1.7165796E+00
   4.1334068E-04   9.0496000E+04   -1.7160140E+00
   4.1524953E-04   8.9783432E+04   -1.7154488E+00
   4.1716720E-04   8.9076707E+04   -1.7148839E+00
   4.1909372E-04   8.8375775E+04   -1.7143194E+00
   4.2102914E-04   8.7680586E+04   -1.7137552E+00
   4.2297350E-04   8.6991092E+04   -1.7131914E+00
   4.2492683E-04   8.6307244E+04   -1.7126280E+00
   4.2688919E-04   8.5628995E+04   -1.7120650E+00
   4.2886061E-04   8.4956295E+04   -1.7115024E+00
   4.3084113E-04   8.4289099E+04   -1.7109402E+00
   4.3283080E-04   8.3627359E+04   -1.7103784E+00
   4.3482966E-04   8.2971029E+04   -1.7098170E+00
   4.3683775E-04   8.2320063E+04   -1.7092560E+00
   4.3885511E-04   8.1674415E+04   -1.7086954E+00
   4.4088179E-04   8.1034040E+04   -1.7081353E+00
   4.4291783E-04   8.0398894E+04   -1.7075756E+00
   4.4496327E-04   7.9768931E+04   -1.7070163E+00
   4.4701816E-04   7.9144108E+04   -1.7064575E+00
   4.4908253E-04   7.8524382E+04   -1.7058991E+00
   4.5115644E-04   7.7909708E+04   -1.7053412E+00
   4.5323993E-04   7.7300045E+04   -1.7047837E+00
   4.5533304E-04   7.6695350E+04   -1.7042267E+00
   4.5743582E-04   7.6095580E+04   -1.7036701E+00
   4.5954830E-04   7.5500694E+04   -1.7031141E+00
   4.6167054E-04   7.4910651E+04   -1.7025585E+00
   4.6380259E-04   7.4325408E+04   -1.7020034E+00
   4.6594448E-04   7.3744927E+04   -1.7014487E+00
   4.6809626E-04   7.3169166E+04   -1.7008946E+00
   4.7025797E-04   7.2598085E+04   -1.7003410E+00
   4.7242967E-04   7.2031646E+04   -1.6997879E+00
   4.7461140E-04   7.1469808E+04   -1.6992353E+00
   4.7680321E-04   7.0912532E+04   -1.6986832E+00
   4.7900514E-04   7.0359781E+04   -1.6981316E+00
   4.8121723E-04   6.9811516E+04   -1.6975806E+00
   4.8343954E-04   6.9267699E+04   -1.6970301E+00
   4.8567212E-04   6.8728293E+04   -1.6964801E+00
   4.8791500E-04   6.8193259E+04   -1.6959307E+00
   4.9016825E-04   6.7662562E+04   -1.6953818E+00
   4.9243189E-04   6.7136165E+04   -1.6948334E+00
   4.9470600E-04   6.6614031E+04   -1.6942857E+00
   4.9699060E-04   6.6096124E+04   -1.6937384E+00
   4.9928575E-04   6.5582410E+04   -1.6931918E+00
   5.0159151E-04   6.5072852E+04   -1.6926457E+00
   5.0390791E-04   6.4567415E+04   -1.6921002E+00
   5.0623501E-04   6.4066065E+04   -1.6915553E+00
   5.0857286E-04   6.3568768E+04   -1.6910109E+00
   5.1092150E-04   6.3075488E+04   -1.6904672E+00
   5.1328099E-04   6.2586194E+04   -1.6899240E+00
   5.1565137E-04   6.2100850E+04   -1.6893815E+00
   5.1803270E-04   6.1619424E+04   -1.6888395E+00
   5.2042503E-04   6.1141883E+04   -1.6882982E+00
   5.2282841E-04   6.0668194E+04   -1.6877575E+00
   5.2524289E-04   6.0198324E+04   -1.6872174E+00
   5.2766851E-04   5.9732242E+04   -1.6866779E+00
   5.3010534E-04   5.9269916E+04   -1.6861390E+00
   5.3255342E-04   5.8811315E+04   -1.6856008E+00
   5.3501281E-04   5.8356406E+04   -1.6850632E+00
   5.3748356E-04   5.7905159E+04   -1.6845263E+00
   5.3996571E-04   5.7457544E+04   -1.6839900E+00
   5.4245933E-04   5.7013530E+04   -1.6834543E+00
   5.4496446E-04   5.6573087E+04   -1.6829193E+00
   5.4748117E-04   5.6136184E+04   -1.6823850E+00
   5.5000949E-04   5.5702793E+04   -1.6818513E+00
   5.5254949E-04   5.5272883E+04   -1.6813183E+00
   5.5510123E-04   5.4846426E+04   -1.6807860E+00
   5.5766474E-04   5.4423392E+04   -1.6802544E+00
   5.6024010E-04   5.4003754E+04   -1.6797234E+00
   5.6282734E-04   5.3587482E+04   -1.6791931E+00
   5.6542654E-04   5.3174549E+04   -1.6786635E+00
   5.6803774E-04   5.2764927E+04   -1.6781346E+00
   5.7066099E-04   5.2358587E+04   -1.6776064E+00
   5.7329637E-04   5.1955503E+04   -1.6770789E+00
   5.7594391E-04   5.1555648E+04   -1.6765522E+00
   5.7860368E-04   5.1158994E+04   -1.6760261E+00
   5.8127573E-04   5.0765514E+04   -1.6755007E+00
   5.8396012E-04   5.0375183E+04   -1.6749761E+00
   5.8665691E-04   4.9987974E+04   -1.6744522E+00
   5.8936616E-04   4.9603861E+04   -1.6739290E+00
   5.9208791E-04   4.9222817E+04   -1.6734065E+00
   5.9482223E-04   4.8844819E+04   -1.6728848E+00
   5.9756919E-04   4.8469839E+04   -1.6723638E+00
   6.0032882E-04   4.8097854E+04   -1.6718436E+00
   6.0310120E-04   4.7728838E+04   -1.6713241E+00
   6.0588639E-04   4.7362766E+04   -1.6708053E+00
   6.0868443E-04   4.6999614E+04   -1.6702874E+00
   6.1149540E-04   4.6639358E+04   -1.6697701E+00
   6.1431935E-04   4.6281974E+04   -1.6692537E+00
   6.1715634E-04   4.5927437E+04   -1.6687380E+00
   6.2000644E-04   4.5575725E+04   -1.6682230E+00
   6.2286969E-04   4.5226813E+04   -1.6677089E+00
