#        a       HoverH0(a)       dlogHdloga_of_a(a)
   1.0000000E-04   1.1298348E+06   -1.8615508E+00
   1.0046181E-04   1.1201868E+06   -1.8610890E+00
   1.0092575E-04   1.1106235E+06   -1.8606263E+00
   1.0139184E-04   1.1011443E+06   -1.8601627E+00
   1.0186008E-04   1.0917482E+06   -1.8596981E+00
   1.0233048E-04   1.0824347E+06   -1.8592325E+00
   1.0280305E-04   1.0732029E+06   -1.8587661E+00
   1.0327781E-04   1.0640522E+06   -1.8582987E+00
   1.0375475E-04   1.0549817E+06   -1.8578303E+00
   1.0423390E-04   1.0459908E+06   -1.8573611E+00
   1.0471527E-04   1.0370788E+06   -1.8568909E+00
   1.0519885E-04   1.0282450E+06   -1.8564197E+00
   1.0568467E-04   1.0194886E+06   -1.8559477E+00
   1.0617274E-04   1.0108090E+06   -1.8554747E+00
   1.0666305E-04   1.0022055E+06   -1.8550008E+00
   1.0715563E-04   9.9367734E+05   -1.8545260E+00
   1.0765049E-04   9.8522393E+05   -1.8540503E+00
   1.0814763E-04   9.7684459E+05   -1.8535737E+00
   1.0864707E-04   9.6853864E+05   -1.8530961E+00
   1.0914881E-04   9.6030543E+05   -1.8526176E+00
   1.0965287E-04   9.5214431E+05   -1.8521383E+00
   1.1015926E-04   9.4405463E+05   -1.8516580E+00
   1.1066799E-04   9.3603576E+05   -1.8511768E+00
   1.1117906E-04   9.2808705E+05   -1.8506948E+00
   1.1169250E-04   9.2020790E+05   -1.8502118E+00
   1.1220831E-04   9.1239766E+05   -1.8497280E+00
   1.1272650E-04   9.0465574E+05   -1.8492432E+00
   1.1324708E-04   8.9698151E+05   -1.8487576E+00
   1.1377007E-04   8.8937438E+05   -1.8482711E+00
   1.1429547E-04   8.8183374E+05   -1.8477837E+00
   1.1482330E-04   8.7435900E+05   -1.8472954E+00
   1.1535356E-04   8.6694957E+05   -1.8468062E+00
   1.1588628E-04   8.5960487E+05   -1.8463162E+00
   1.1642145E-04   8.5232431E+05   -1.8458253E+00
   1.1695910E-04   8.4510733E+05   -1.8453335E+00
   1.1749923E-04   8.3795337E+05   -1.8448409E+00
   1.1804185E-04   8.3086185E+05   -1.8443474E+00
   1.1858698E-04   8.2383221E+05   -1.8438530E+00
   1.1913463E-04   8.1686392E+05   -1.8433578E+00
   1.1968481E-04   8.0995642E+05   -1.8428618E+00
   1.2023752E-04   8.0310916E+05   -1.8423649E+00
   1.2079279E-04   7.9632162E+05   -1.8418671E+00
   1.2135063E-04   7.8959325E+05   -1.8413685E+00
   1.2191104E-04   7.8292353E+05   -1.8408690E+00
   1.2247403E-04   7.7631195E+05   -1.8403688E+00
   1.2303963E-04   7.6975797E+05   -1.8398677E+00
   1.2360784E-04   7.6326108E+05   -1.8393657E+00
   1.2417868E-04   7.5682078E+05   -1.8388629E+00
   1.2475215E-04   7.5043657E+05   -1.8383593E+00
   1.2532826E-04   7.4410793E+05   -1.8378549E+00
   1.2590704E-04   7.3783438E+05   -1.8373497E+00
   1.2648850E-04   7.3161543E+05   -1.8368436E+00
   1.2707263E-04   7.2545059E+05   -1.8363368E+00
   1.2765947E-04   7.1933938E+05   -1.8358291E+00
   1.2824901E-04   7.1328132E+05   -1.8353206E+00
   1.2884128E-04   7.0727594E+05   -1.8348114E+00
   1.2943628E-04   7.0132276E+05   -1.8343013E+00
   1.3003403E-04   6.9542133E+05   -1.8337904E+00
   1.3063454E-04   6.8957118E+05   -1.8332788E+00
   1.3123783E-04   6.8377186E+05   -1.8327663E+00
   1.3184390E-04   6.7802292E+05   -1.8322531E+00
   1.3245277E-04   6.7232390E+05   -1.8317391E+00
   1.3306445E-04   6.6667436E+05   -1.8312243E+00
   1.3367895E-04   6.6107386E+05   -1.8307088E+00
   1.3429630E-04   6.5552197E+05   -1.8301925E+00
   1.3491649E-04   6.5001826E+05   -1.8296754E+00
   1.3553955E-04   6.4456228E+05   -1.8291576E+00
   1.3616548E-04   6.3915364E+05   -1.8286390E+00
   1.3679431E-04   6.3379189E+05   -1.8281196E+00
   1.3742604E-04   6.2847662E+05   -1.8275995E+00
   1.3806069E-04   6.2320743E+05   -1.8270787E+00
   1.3869827E-04   6.1798390E+05   -1.8265571E+00
   1.3933879E-04   6.1280562E+05   -1.8260348E+00
   1.3998227E-04   6.0767220E+05   -1.8255117E+00
   1.4062872E-04   6.0258323E+05   -1.8249880E+00
   1.4127816E-04   5.9753832E+05   -1.8244635E+00
   1.4193060E-04   5.9253709E+05   -1.8239382E+00
   1.4258605E-04   5.8757913E+05   -1.8234123E+00
   1.4324453E-04   5.8266407E+05   -1.8228857E+00
   1.4390605E-04   5.7779153E+05   -1.8223583E+00
   1.4457062E-04   5.7296113E+05   -1.8218302E+00
   1.4523826E-04   5.6817249E+05   -1.8213015E+00
   1.4590899E-04   5.6342526E+05   -1.8207720E+00
   1.4658281E-04   5.5871905E+05   -1.8202419E+00
   1.4725974E-04   5.5405350E+05   -1.8197110E+00
   1.4793981E-04   5.4942826E+05   -1.8191795E+00
   1.4862301E-04   5.4484296E+05   -1.8186473E+00
   1.4930936E-04   5.4029726E+05   -1.8181144E+00
   1.4999889E-04   5.3579080E+05   -1.8175809E+00
   1.5069160E-04   5.3132323E+05   -1.8170467E+00
   1.5138751E-04   5.2689421E+05   -1.8165118E+00
   1.5208663E-04   5.2250340E+05   -1.8159763E+00
   1.5278899E-04   5.1815046E+05   -1.8154401E+00
   1.5349458E-04   5.1383505E+05   -1.8149033E+00
   1.5420343E-04   5.0955685E+05   -1.8143659E+00
   1.5491556E-04   5.0531552E+05   -1.8138278E+00
   1.5563098E-04   5.0111073E+05   -1.8132890E+00
   1.5634970E-04   4.9694217E+05   -1.8127496E+00
   1.5707174E-04   4.9280951E+05   -1.8122097E+00
   1.5779711E-04   4.8871243E+05   -1.8116691E+00
   1.5852584E-04   4.8465063E+05   -1.8111278E+00
   1.5925792E-04   4.8062378E+05   -1.8105860E+00
   1.5999339E-04   4.7663158E+05   -1.8100436E+00
   1.6073226E-04   4.7267372E+05   -1.8095005E+00
   1.6147454E-04   4.6874990E+05   -1.8089569E+00
   1.6222024E-04   4.6485982E+05   -1.8084126E+00
   1.6296939E-04   4.6100318E+05   -1.8078678E+00
   1.6372200E-04   4.5717968E+05   -1.8073224E+00
   1.6447809E-04   4.5338904E+05   -1.8067765E+00
   1.6523767E-04   4.4963095E+05   -1.8062299E+00
   1.6600075E-04   4.4590514E+05   -1.8056828E+00
   1.6676736E-04   4.4221132E+05   -1.8051351E+00
   1.6753751E-04   4.3854921E+05   -1.8045869E+00
   1.6831122E-04   4.3491852E+05   -1.8040381E+00
   1.6908849E-04   4.3131898E+05   -1.8034888E+00
   1.6986936E-04   4.2775031E+05   -1.8029389E+00
   1.7065384E-04   4.2421225E+05   -1.8023885E+00
   1.7144193E-04   4.2070452E+05   -1.8018376E+00
   1.7223367E-04   4.1722685E+05   -1.8012861E+00
   1.7302906E-04   4.1377898E+05   -1.8007341E+00
   1.7382813E-04   4.1036065E+05   -1.8001816E+00
   1.7463089E-04   4.0697159E+05   -1.7996286E+00
   1.7543735E-04   4.0361156E+05   -1.7990751E+00
   1.7624754E-04   4.0028028E+05   -1.7985211E+00
   1.7706147E-04   3.9697752E+05   -1.7979665E+00
   1.7787916E-04   3.9370301E+05   -1.7974115E+00
   1.7870062E-04   3.9045651E+05   -1.7968560E+00
   1.7952588E-04   3.8723778E+05   -1.7963001E+00
   1.8035495E-04   3.8404656E+05   -1.7957436E+00
   1.8118785E-04   3.8088261E+05   -1.7951867E+00
   1.8202459E-04   3.7774571E+05   -1.7946293E+00
   1.8286520E-04   3.7463560E+05   -1.7940714E+00
   1.8370969E-04   3.7155205E+05   -1.7935132E+00
   1.8455808E-04   3.6849483E+05   -1.7929544E+00
   1.8541039E-04   3.6546371E+05   -1.7923952E+00
   1.8626663E-04   3.6245845E+05   -1.7918356E+00
   1.8712683E-04   3.5947884E+05   -1.7912755E+00
   1.8799100E-04   3.5652464E+05   -1.7907151E+00
   1.8885917E-04   3.5359563E+05   -1.7901541E+00
   1.8973134E-04   3.5069159E+05   -1.7895928E+00
   1.9060754E-04   3.4781230E+05   -1.7890311E+00
   1.9148778E-04   3.4495754E+05   -1.7884690E+00
   1.9237209E-04   3.4212710E+05   -1.7879064E+00
   1.9326049E-04   3.3932077E+05   -1.7873435E+00
   1.9415299E-04   3.3653832E+05   -1.7867802E+00
   1.9504960E-04   3.3377957E+05   -1.7862165E+00
   1.9595036E-04   3.3104428E+05   -1.7856524E+00
   1.9685528E-04   3.2833227E+05   -1.7850880E+00
   1.9776438E-04   3.2564332E+05   -1.7845232E+00
   1.9867768E-04   3.2297723E+05   -1.7839580E+00
   1.9959519E-04   3.2033380E+05   -1.7833925E+00
   2.0051694E-04   3.1771284E+05   -1.7828266E+00
   2.0144295E-04   3.1511414E+05   -1.7822604E+00
   2.0237324E-04   3.1253752E+05   -1.7816938E+00
   2.0330782E-04   3.0998277E+05   -1.7811269E+00
   2.0424671E-04   3.0744971E+05   -1.7805597E+00
   2.0518995E-04   3.0493814E+05   -1.7799922E+00
   2.0613754E-04   3.0244789E+05   -1.7794244E+00
   2.0708950E-04   2.9997875E+05   -1.7788562E+00
   2.0804586E-04   2.9753055E+05   -1.7782877E+00
   2.0900664E-04   2.9510311E+05   -1.7777190E+00
   2.0997185E-04   2.9269624E+05   -1.7771500E+00
   2.1094152E-04   2.9030975E+05   -1.7765806E+00
   2.1191567E-04   2.8794349E+05   -1.7760110E+00
   2.1289432E-04   2.8559726E+05   -1.7754411E+00
   2.1387749E-04   2.8327089E+05   -1.7748710E+00
   2.1486520E-04   2.8096421E+05   -1.7743006E+00
   2.1585747E-04   2.7867704E+05   -1.7737299E+00
   2.1685432E-04   2.7640922E+05   -1.7731590E+00
   2.1785578E-04   2.7416058E+05   -1.7725878E+00
   2.1886186E-04   2.7193094E+05   -1.7720164E+00
   2.1987259E-04   2.6972015E+05   -1.7714448E+00
   2.2088798E-04   2.6752804E+05   -1.7708730E+00
   2.2190807E-04   2.6535444E+05   -1.7703009E+00
   2.2293286E-04   2.6319920E+05   -1.7697286E+00
   2.2396239E-04   2.6106215E+05   -1.7691561E+00
   2.2499667E-04   2.5894313E+05   -1.7685834E+00
   2.2603573E-04   2.5684199E+05   -1.7680105E+00
   2.2707958E-04   2.5475858E+05   -1.7674374E+00
   2.2812826E-04   2.5269273E+05   -1.7668641E+00
   2.2918178E-04   2.5064430E+05   -1.7662907E+00
   2.3024017E-04   2.4861312E+05   -1.7657171E+00
   2.3130344E-04   2.4659906E+05   -1.7651433E+00
   2.3237162E-04   2.4460197E+05   -1.7645693E+00
   2.3344474E-04   2.4262168E+05   -1.7639952E+00
   2.3452281E-04   2.4065807E+05   -1.7634210E+00
   2.3560586E-04   2.3871098E+05   -1.7628466E+00
   2.3669392E-04   2.3678028E+05   -1.7622720E+00
   2.3778699E-04   2.3486580E+05   -1.7616974E+00
   2.3888512E-04   2.3296743E+05   -1.7611226E+00
   2.3998831E-04   2.3108501E+05   -1.7605477E+00
   2.4109661E-04   2.2921841E+05   -1.7599727E+00
   2.4221001E-04   2.2736749E+05   -1.7593975E+00
   2.4332857E-04   2.2553211E+05   -1.7588223E+00
   2.4445228E-04   2.2371214E+05   -1.7582470E+00
   2.4558119E-04   2.2190745E+05   -1.7576716E+00
   2.4671531E-04   2.2011789E+05   -1.7570961E+00
   2.4785467E-04   2.1834335E+05   -1.7565205E+00
   2.4899928E-04   2.1658369E+05   -1.7559449E+00
   2.5014919E-04   2.1483878E+05   -1.7553692E+00
   2.5130440E-04   2.1310850E+05   -1.7547934E+00
   2.5246495E-04   2.1139271E+05   -1.7542176E+00
   2.5363086E-04   2.0969129E+05   -1.7536418E+00
   2.5480216E-04   2.0800411E+05   -1.7530659E+00
   2.5597886E-04   2.0633106E+05   -1.7524900E+00
   2.5716100E-04   2.0467201E+05   -1.7519140E+00
   2.5834859E-04   2.0302684E+05   -1.7513381E+00
   2.5954168E-04   2.0139542E+05   -1.7507621E+00
   2.6074027E-04   1.9977765E+05   -1.7501861E+00
   2.6194439E-04   1.9817340E+05   -1.7496101E+00
   2.6315408E-04   1.9658255E+05   -1.7490341E+00
   2.6436935E-04   1.9500499E+05   -1.7484581E+00
   2.6559024E-04   1.9344060E+05   -1.7478821E+00
   2.6681676E-04   1.9188927E+05   -1.7473062E+00
   2.6804895E-04   1.9035089E+05   -1.7467303E+00
   2.6928683E-04   1.8882534E+05   -1.7461544E+00
   2.7053042E-04   1.8731252E+05   -1.7455786E+00
   2.7177976E-04   1.8581230E+05   -1.7450028E+00
   2.7303487E-04   1.8432460E+05   -1.7444270E+00
   2.7429577E-04   1.8284929E+05   -1.7438513E+00
   2.7556250E-04   1.8138626E+05   -1.7432757E+00
   2.7683507E-04   1.7993543E+05   -1.7427002E+00
   2.7811353E-04   1.7849667E+05   -1.7421247E+00
   2.7939788E-04   1.7706988E+05   -1.7415493E+00
   2.8068817E-04   1.7565496E+05   -1.7409740E+00
   2.8198442E-04   1.7425182E+05   -1.7403988E+00
   2.8328665E-04   1.7286033E+05   -1.7398237E+00
   2.8459490E-04   1.7148042E+05   -1.7392487E+00
   2.8590919E-04   1.7011197E+05   -1.7386738E+00
   2.8722955E-04   1.6875489E+05   -1.7380991E+00
   2.8855600E-04   1.6740908E+05   -1.7375245E+00
   2.8988859E-04   1.6607444E+05   -1.7369499E+00
   2.9122732E-04   1.6475087E+05   -1.7363756E+00
   2.9257224E-04   1.6343829E+05   -1.7358014E+00
   2.9392337E-04   1.6213659E+05   -1.7352273E+00
   2.9528074E-04   1.6084569E+05   -1.7346534E+00
   2.9664438E-04   1.5956549E+05   -1.7340796E+00
   2.9801431E-04   1.5829589E+05   -1.7335060E+00
   2.9939057E-04   1.5703681E+05   -1.7329326E+00
   3.0077319E-04   1.5578816E+05   -1.7323594E+00
   3.0216219E-04   1.5454984E+05   -1.7317863E+00
   3.0355761E-04   1.5332177E+05   -1.7312135E+00
   3.0495947E-04   1.5210386E+05   -1.7306408E+00
   3.0636780E-04   1.5089603E+05   -1.7300684E+00
   3.0778264E-04   1.4969818E+05   -1.7294961E+00
   3.0920401E-04   1.4851023E+05   -1.7289241E+00
   3.1063195E-04   1.4733209E+05   -1.7283523E+00
   3.1206648E-04   1.4616369E+05   -1.7277807E+00
   3.1350764E-04   1.4500493E+05   -1.7272093E+00
   3.1495545E-04   1.4385574E+05   -1.7266382E+00
   3.1640994E-04   1.4271603E+05   -1.7260674E+00
   3.1787116E-04   1.4158573E+05   -1.7254968E+00
   3.1933912E-04   1.4046474E+05   -1.7249264E+00
   3.2081386E-04   1.3935300E+05   -1.7243563E+00
   3.2229541E-04   1.3825042E+05   -1.7237865E+00
   3.2378381E-04   1.3715692E+05   -1.7232170E+00
   3.2527908E-04   1.3607243E+05   -1.7226477E+00
   3.2678125E-04   1.3499687E+05   -1.7220787E+00
   3.2829036E-04   1.3393016E+05   -1.7215100E+00
   3.2980644E-04   1.3287222E+05   -1.7209416E+00
   3.3132952E-04   1.3182299E+05   -1.7203735E+00
   3.3285963E-04   1.3078239E+05   -1.7198058E+00
   3.3439681E-04   1.2975034E+05   -1.7192383E+00
   3.3594109E-04   1.2872677E+05   -1.7186712E+00
   3.3749250E-04   1.2771161E+05   -1.7181044E+00
   3.3905108E-04   1.2670478E+05   -1.7175379E+00
   3.4061685E-04   1.2570623E+05   -1.7169717E+00
   3.4218986E-04   1.2471586E+05   -1.7164059E+00
   3.4377013E-04   1.2373362E+05   -1.7158405E+00
   3.4535769E-04   1.2275944E+05   -1.7152754E+00
   3.4695259E-04   1.2179324E+05   -1.7147106E+00
   3.4855485E-04   1.2083497E+05   -1.7141463E+00
   3.5016452E-04   1.1988454E+05   -1.7135823E+00
   3.5178161E-04   1.1894190E+05   -1.7130187E+00
   3.5340618E-04   1.1800697E+05   -1.7124554E+00
   3.5503824E-04   1.1707970E+05   -1.7118926E+00
   3.5667785E-04   1.1616002E+05   -1.7113301E+00
   3.5832502E-04   1.1524786E+05   -1.7107681E+00
   3.5997981E-04   1.1434316E+05   -1.7102064E+00
   3.6164223E-04   1.1344585E+05   -1.7096452E+00
   3.6331233E-04   1.1255588E+05   -1.7090844E+00
   3.6499015E-04   1.1167318E+05   -1.7085240E+00
   3.6667571E-04   1.1079768E+05   -1.7079640E+00
   3.6836906E-04   1.0992933E+05   -1.7074045E+00
   3.7007022E-04   1.0906807E+05   -1.7068454E+00
   3.7177925E-04   1.0821384E+05   -1.7062868E+00
   3.7349616E-04   1.0736657E+05   -1.7057286E+00
   3.7522101E-04   1.0652621E+05   -1.7051708E+00
   3.7695382E-04   1.0569270E+05   -1.7046135E+00
   3.7869463E-04   1.0486598E+05   -1.7040567E+00
   3.8044348E-04   1.0404599E+05   -1.7035003E+00
   3.8220041E-04   1.0323268E+05   -1.7029445E+00
   3.8396545E-04   1.0242599E+05   -1.7023891E+00
   3.8573864E-04   1.0162586E+05   -1.7018342E+00
   3.8752002E-04   1.0083224E+05   -1.7012797E+00
   3.8930963E-04   1.0004507E+05   -1.7007258E+00
   3.9110750E-04   9.9264305E+04   -1.7001724E+00
   3.9291368E-04   9.8489881E+04   -1.6996195E+00
   3.9472820E-04   9.7721748E+04   -1.6990671E+00
   3.9655109E-04   9.6959852E+04   -1.6985152E+00
   3.9838241E-04   9.6204141E+04   -1.6979639E+00
   4.0022218E-04   9.5454562E+04   -1.6974130E+00
   4.0207045E-04   9.4711064E+04   -1.6968627E+00
   4.0392725E-04   9.3973596E+04   -1.6963130E+00
   4.0579263E-04   9.3242106E+04   -1.6957638E+00
   4.0766662E-04   9.2516543E+04   -1.6952151E+00
   4.0954927E-04   9.1796859E+04   -1.6946670E+00
   4.1144061E-04   9.1083003E+04   -1.6941194E+00
   4.1334068E-04   9.0374926E+04   -1.6935724E+00
   4.1524953E-04   8.9672579E+04   -1.6930260E+00
   4.1716720E-04   8.8975914E+04   -1.6924801E+00
   4.1909372E-04   8.8284884E+04   -1.6919349E+00
   4.2102914E-04   8.7599441E+04   -1.6913902E+00
   4.2297350E-04   8.6919537E+04   -1.6908461E+00
   4.2492683E-04   8.6245127E+04   -1.6903026E+00
   4.2688919E-04   8.5576163E+04   -1.6897596E+00
   4.2886061E-04   8.4912601E+04   -1.6892173E+00
   4.3084113E-04   8.4254395E+04   -1.6886756E+00
   4.3283080E-04   8.3601499E+04   -1.6881345E+00
   4.3482966E-04   8.2953869E+04   -1.6875940E+00
   4.3683775E-04   8.2311461E+04   -1.6870542E+00
   4.3885511E-04   8.1674231E+04   -1.6865149E+00
   4.4088179E-04   8.1042136E+04   -1.6859763E+00
   4.4291783E-04   8.0415131E+04   -1.6854383E+00
   4.4496327E-04   7.9793176E+04   -1.6849010E+00
   4.4701816E-04   7.9176226E+04   -1.6843643E+00
   4.4908253E-04   7.8564241E+04   -1.6838283E+00
   4.5115644E-04   7.7957179E+04   -1.6832929E+00
   4.5323993E-04   7.7354998E+04   -1.6827582E+00
   4.5533304E-04   7.6757658E+04   -1.6822241E+00
   4.5743582E-04   7.6165118E+04   -1.6816907E+00
   4.5954830E-04   7.5577338E+04   -1.6811579E+00
   4.6167054E-04   7.4994277E+04   -1.6806259E+00
   4.6380259E-04   7.4415897E+04   -1.6800945E+00
   4.6594448E-04   7.3842159E+04   -1.6795638E+00
   4.6809626E-04   7.3273022E+04   -1.6790338E+00
   4.7025797E-04   7.2708450E+04   -1.6785045E+00
   4.7242967E-04   7.2148404E+04   -1.6779758E+00
   4.7461140E-04   7.1592846E+04   -1.6774479E+00
   4.7680321E-04   7.1041738E+04   -1.6769207E+00
   4.7900514E-04   7.0495044E+04   -1.6763942E+00
   4.8121723E-04   6.9952727E+04   -1.6758684E+00
   4.8343954E-04   6.9414749E+04   -1.6753433E+00
   4.8567212E-04   6.8881076E+04   -1.6748190E+00
   4.8791500E-04   6.8351670E+04   -1.6742953E+00
   4.9016825E-04   6.7826497E+04   -1.6737724E+00
   4.9243189E-04   6.7305522E+04   -1.6732503E+00
   4.9470600E-04   6.6788708E+04   -1.6727288E+00
   4.9699060E-04   6.6276022E+04   -1.6722081E+00
   4.9928575E-04   6.5767429E+04   -1.6716882E+00
   5.0159151E-04   6.5262895E+04   -1.6711690E+00
   5.0390791E-04   6.4762386E+04   -1.6706505E+00
   5.0623501E-04   6.4265869E+04   -1.6701328E+00
   5.0857286E-04   6.3773311E+04   -1.6696159E+00
   5.1092150E-04   6.3284679E+04   -1.6690997E+00
   5.1328099E-04   6.2799940E+04   -1.6685844E+00
   5.1565137E-04   6.2319062E+04   -1.6680697E+00
   5.1803270E-04   6.1842012E+04   -1.6675559E+00
   5.2042503E-04   6.1368760E+04   -1.6670428E+00
   5.2282841E-04   6.0899273E+04   -1.6665305E+00
   5.2524289E-04   6.0433520E+04   -1.6660190E+00
   5.2766851E-04   5.9971470E+04   -1.6655083E+00
   5.3010534E-04   5.9513093E+04   -1.6649984E+00
   5.3255342E-04   5.9058358E+04   -1.6644893E+00
   5.3501281E-04   5.8607235E+04   -1.6639810E+00
   5.3748356E-04   5.8159694E+04   -1.6634734E+00
   5.3996571E-04   5.7715706E+04   -1.6629667E+00
   5.4245933E-04   5.7275240E+04   -1.6624608E+00
   5.4496446E-04   5.6838268E+04   -1.6619558E+00
   5.4748117E-04   5.6404762E+04   -1.6614515E+00
   5.5000949E-04   5.5974692E+04   -1.6609480E+00
   5.5254949E-04   5.5548029E+04   -1.6604454E+00
   5.5510123E-04   5.5124746E+04   -1.6599436E+00
   5.5766474E-04   5.4704816E+04   -1.6594427E+00
   5.6024010E-04   5.4288209E+04   -1.6589426E+00
   5.6282734E-04   5.3874899E+04   -1.6584433E+00
   5.6542654E-04   5.3464858E+04   -1.6579448E+00
   5.6803774E-04   5.3058060E+04   -1.6574472E+00
   5.7066099E-04   5.2654478E+04   -1.6569505E+00
   5.7329637E-04   5.2254085E+04   -1.6564546E+00
   5.7594391E-04   5.1856856E+04   -1.6559595E+00
   5.7860368E-04   5.1462763E+04   -1.6554653E+00
   5.8127573E-04   5.1071781E+04   -1.6549720E+00
   5.8396012E-04   5.0683885E+04   -1.6544795E+00
   5.8665691E-04   5.0299050E+04   -1.6539879E+00
   5.8936616E-04   4.9917249E+04   -1.6534971E+00
   5.9208791E-04   4.9538458E+04   -1.6530073E+00
   5.9482223E-04   4.9162652E+04   -1.6525183E+00
   5.9756919E-04   4.8789807E+04   -1.6520302E+00
   6.0032882E-04   4.8419899E+04   -1.6515429E+00
   6.0310120E-04   4.8052902E+04   -1.6510566E+00
   6.0588639E-04   4.7688794E+04   -1.6505711E+00
   6.0868443E-04   4.7327551E+04   -1.6500865E+00
   6.1149540E-04   4.6969149E+04   -1.6496028E+00
   6.1431935E-04   4.6613565E+04   -1.6491200E+00
   6.1715634E-04   4.6260776E+04   -1.6486381E+00
   6.2000644E-04   4.5910759E+04   -1.6481571E+00
   6.2286969E-04   4.5563491E+04   -1.6476770E+00
