#        a       HoverH0(a)       dlogHdloga_of_a(a)
   1.0000000E-04   1.1279009E+06   -1.8614849E+00
   1.0046181E-04   1.1182698E+06   -1.8610230E+00
   1.0092575E-04   1.1087232E+06   -1.8605602E+00
   1.0139184E-04   1.0992605E+06   -1.8600964E+00
   1.0186008E-04   1.0898809E+06   -1.8596316E+00
   1.0233048E-04   1.0805836E+06   -1.8591660E+00
   1.0280305E-04   1.0713680E+06   -1.8586994E+00
   1.0327781E-04   1.0622332E+06   -1.8582319E+00
   1.0375475E-04   1.0531786E+06   -1.8577634E+00
   1.0423390E-04   1.0442034E+06   -1.8572940E+00
   1.0471527E-04   1.0353069E+06   -1.8568237E+00
   1.0519885E-04   1.0264885E+06   -1.8563524E+00
   1.0568467E-04   1.0177474E+06   -1.8558802E+00
   1.0617274E-04   1.0090829E+06   -1.8554071E+00
   1.0666305E-04   1.0004944E+06   -1.8549331E+00
   1.0715563E-04   9.9198111E+05   -1.8544581E+00
   1.0765049E-04   9.8354245E+05   -1.8539823E+00
   1.0814763E-04   9.7517771E+05   -1.8535055E+00
   1.0864707E-04   9.6688624E+05   -1.8530278E+00
   1.0914881E-04   9.5866738E+05   -1.8525492E+00
   1.0965287E-04   9.5052048E+05   -1.8520698E+00
   1.1015926E-04   9.4244489E+05   -1.8515894E+00
   1.1066799E-04   9.3443999E+05   -1.8511081E+00
   1.1117906E-04   9.2650513E+05   -1.8506259E+00
   1.1169250E-04   9.1863970E+05   -1.8501428E+00
   1.1220831E-04   9.1084306E+05   -1.8496588E+00
   1.1272650E-04   9.0311462E+05   -1.8491739E+00
   1.1324708E-04   8.9545375E+05   -1.8486882E+00
   1.1377007E-04   8.8785986E+05   -1.8482015E+00
   1.1429547E-04   8.8033234E+05   -1.8477140E+00
   1.1482330E-04   8.7287061E+05   -1.8472256E+00
   1.1535356E-04   8.6547407E+05   -1.8467363E+00
   1.1588628E-04   8.5814214E+05   -1.8462461E+00
   1.1642145E-04   8.5087425E+05   -1.8457551E+00
   1.1695910E-04   8.4366983E+05   -1.8452632E+00
   1.1749923E-04   8.3652830E+05   -1.8447705E+00
   1.1804185E-04   8.2944911E+05   -1.8442769E+00
   1.1858698E-04   8.2243170E+05   -1.8437824E+00
   1.1913463E-04   8.1547551E+05   -1.8432870E+00
   1.1968481E-04   8.0858001E+05   -1.8427909E+00
   1.2023752E-04   8.0174465E+05   -1.8422938E+00
   1.2079279E-04   7.9496890E+05   -1.8417959E+00
   1.2135063E-04   7.8825223E+05   -1.8412972E+00
   1.2191104E-04   7.8159410E+05   -1.8407977E+00
   1.2247403E-04   7.7499399E+05   -1.8402973E+00
   1.2303963E-04   7.6845139E+05   -1.8397960E+00
   1.2360784E-04   7.6196578E+05   -1.8392940E+00
   1.2417868E-04   7.5553666E+05   -1.8387911E+00
   1.2475215E-04   7.4916353E+05   -1.8382874E+00
   1.2532826E-04   7.4284588E+05   -1.8377828E+00
   1.2590704E-04   7.3658321E+05   -1.8372775E+00
   1.2648850E-04   7.3037505E+05   -1.8367713E+00
   1.2707263E-04   7.2422090E+05   -1.8362643E+00
   1.2765947E-04   7.1812029E+05   -1.8357565E+00
   1.2824901E-04   7.1207274E+05   -1.8352479E+00
   1.2884128E-04   7.0607777E+05   -1.8347386E+00
   1.2943628E-04   7.0013491E+05   -1.8342284E+00
   1.3003403E-04   6.9424371E+05   -1.8337174E+00
   1.3063454E-04   6.8840370E+05   -1.8332056E+00
   1.3123783E-04   6.8261443E+05   -1.8326931E+00
   1.3184390E-04   6.7687544E+05   -1.8321798E+00
   1.3245277E-04   6.7118629E+05   -1.8316656E+00
   1.3306445E-04   6.6554654E+05   -1.8311508E+00
   1.3367895E-04   6.5995574E+05   -1.8306351E+00
   1.3429630E-04   6.5441346E+05   -1.8301187E+00
   1.3491649E-04   6.4891928E+05   -1.8296015E+00
   1.3553955E-04   6.4347275E+05   -1.8290836E+00
   1.3616548E-04   6.3807346E+05   -1.8285649E+00
   1.3679431E-04   6.3272099E+05   -1.8280454E+00
   1.3742604E-04   6.2741492E+05   -1.8275252E+00
   1.3806069E-04   6.2215484E+05   -1.8270043E+00
   1.3869827E-04   6.1694034E+05   -1.8264826E+00
   1.3933879E-04   6.1177102E+05   -1.8259601E+00
   1.3998227E-04   6.0664647E+05   -1.8254370E+00
   1.4062872E-04   6.0156630E+05   -1.8249131E+00
   1.4127816E-04   5.9653012E+05   -1.8243885E+00
   1.4193060E-04   5.9153752E+05   -1.8238632E+00
   1.4258605E-04   5.8658813E+05   -1.8233371E+00
   1.4324453E-04   5.8168156E+05   -1.8228104E+00
   1.4390605E-04   5.7681744E+05   -1.8222829E+00
   1.4457062E-04   5.7199538E+05   -1.8217548E+00
   1.4523826E-04   5.6721502E+05   -1.8212259E+00
   1.4590899E-04   5.6247597E+05   -1.8206964E+00
   1.4658281E-04   5.5777789E+05   -1.8201661E+00
   1.4725974E-04   5.5312039E+05   -1.8196352E+00
   1.4793981E-04   5.4850313E+05   -1.8191036E+00
   1.4862301E-04   5.4392575E+05   -1.8185713E+00
   1.4930936E-04   5.3938789E+05   -1.8180383E+00
   1.4999889E-04   5.3488920E+05   -1.8175047E+00
   1.5069160E-04   5.3042933E+05   -1.8169704E+00
   1.5138751E-04   5.2600795E+05   -1.8164354E+00
   1.5208663E-04   5.2162471E+05   -1.8158998E+00
   1.5278899E-04   5.1727927E+05   -1.8153635E+00
   1.5349458E-04   5.1297130E+05   -1.8148266E+00
   1.5420343E-04   5.0870047E+05   -1.8142890E+00
   1.5491556E-04   5.0446645E+05   -1.8137509E+00
   1.5563098E-04   5.0026890E+05   -1.8132120E+00
   1.5634970E-04   4.9610752E+05   -1.8126726E+00
   1.5707174E-04   4.9198197E+05   -1.8121325E+00
   1.5779711E-04   4.8789195E+05   -1.8115918E+00
   1.5852584E-04   4.8383714E+05   -1.8110505E+00
   1.5925792E-04   4.7981722E+05   -1.8105086E+00
   1.5999339E-04   4.7583189E+05   -1.8099660E+00
   1.6073226E-04   4.7188084E+05   -1.8094229E+00
   1.6147454E-04   4.6796377E+05   -1.8088792E+00
   1.6222024E-04   4.6408038E+05   -1.8083349E+00
   1.6296939E-04   4.6023037E+05   -1.8077900E+00
   1.6372200E-04   4.5641344E+05   -1.8072445E+00
   1.6447809E-04   4.5262932E+05   -1.8066985E+00
   1.6523767E-04   4.4887769E+05   -1.8061518E+00
   1.6600075E-04   4.4515828E+05   -1.8056046E+00
   1.6676736E-04   4.4147081E+05   -1.8050569E+00
   1.6753751E-04   4.3781498E+05   -1.8045086E+00
   1.6831122E-04   4.3419053E+05   -1.8039597E+00
   1.6908849E-04   4.3059717E+05   -1.8034103E+00
   1.6986936E-04   4.2703463E+05   -1.8028604E+00
   1.7065384E-04   4.2350264E+05   -1.8023099E+00
   1.7144193E-04   4.2000093E+05   -1.8017589E+00
   1.7223367E-04   4.1652923E+05   -1.8012073E+00
   1.7302906E-04   4.1308727E+05   -1.8006553E+00
   1.7382813E-04   4.0967481E+05   -1.8001027E+00
   1.7463089E-04   4.0629156E+05   -1.7995496E+00
   1.7543735E-04   4.0293729E+05   -1.7989960E+00
   1.7624754E-04   3.9961173E+05   -1.7984419E+00
   1.7706147E-04   3.9631462E+05   -1.7978873E+00
   1.7787916E-04   3.9304572E+05   -1.7973322E+00
   1.7870062E-04   3.8980479E+05   -1.7967767E+00
   1.7952588E-04   3.8659157E+05   -1.7962206E+00
   1.8035495E-04   3.8340581E+05   -1.7956641E+00
   1.8118785E-04   3.8024729E+05   -1.7951071E+00
   1.8202459E-04   3.7711575E+05   -1.7945497E+00
   1.8286520E-04   3.7401096E+05   -1.7939918E+00
   1.8370969E-04   3.7093270E+05   -1.7934334E+00
   1.8455808E-04   3.6788071E+05   -1.7928746E+00
   1.8541039E-04   3.6485477E+05   -1.7923153E+00
   1.8626663E-04   3.6185466E+05   -1.7917556E+00
   1.8712683E-04   3.5888014E+05   -1.7911955E+00
   1.8799100E-04   3.5593099E+05   -1.7906350E+00
   1.8885917E-04   3.5300699E+05   -1.7900740E+00
   1.8973134E-04   3.5010791E+05   -1.7895126E+00
   1.9060754E-04   3.4723354E+05   -1.7889508E+00
   1.9148778E-04   3.4438366E+05   -1.7883887E+00
   1.9237209E-04   3.4155806E+05   -1.7878261E+00
   1.9326049E-04   3.3875652E+05   -1.7872631E+00
   1.9415299E-04   3.3597883E+05   -1.7866997E+00
   1.9504960E-04   3.3322478E+05   -1.7861360E+00
   1.9595036E-04   3.3049416E+05   -1.7855718E+00
   1.9685528E-04   3.2778677E+05   -1.7850073E+00
   1.9776438E-04   3.2510241E+05   -1.7844425E+00
   1.9867768E-04   3.2244087E+05   -1.7838772E+00
   1.9959519E-04   3.1980195E+05   -1.7833117E+00
   2.0051694E-04   3.1718546E+05   -1.7827458E+00
   2.0144295E-04   3.1459120E+05   -1.7821795E+00
   2.0237324E-04   3.1201896E+05   -1.7816129E+00
   2.0330782E-04   3.0946857E+05   -1.7810460E+00
   2.0424671E-04   3.0693982E+05   -1.7804787E+00
   2.0518995E-04   3.0443254E+05   -1.7799111E+00
   2.0613754E-04   3.0194652E+05   -1.7793432E+00
   2.0708950E-04   2.9948159E+05   -1.7787750E+00
   2.0804586E-04   2.9703756E+05   -1.7782065E+00
   2.0900664E-04   2.9461425E+05   -1.7776378E+00
   2.0997185E-04   2.9221148E+05   -1.7770687E+00
   2.1094152E-04   2.8982906E+05   -1.7764993E+00
   2.1191567E-04   2.8746681E+05   -1.7759297E+00
   2.1289432E-04   2.8512457E+05   -1.7753597E+00
   2.1387749E-04   2.8280216E+05   -1.7747896E+00
   2.1486520E-04   2.8049940E+05   -1.7742191E+00
   2.1585747E-04   2.7821613E+05   -1.7736484E+00
   2.1685432E-04   2.7595216E+05   -1.7730775E+00
   2.1785578E-04   2.7370734E+05   -1.7725063E+00
   2.1886186E-04   2.7148149E+05   -1.7719348E+00
   2.1987259E-04   2.6927445E+05   -1.7713632E+00
   2.2088798E-04   2.6708606E+05   -1.7707913E+00
   2.2190807E-04   2.6491616E+05   -1.7702192E+00
   2.2293286E-04   2.6276457E+05   -1.7696469E+00
   2.2396239E-04   2.6063115E+05   -1.7690743E+00
   2.2499667E-04   2.5851573E+05   -1.7685016E+00
   2.2603573E-04   2.5641816E+05   -1.7679287E+00
   2.2707958E-04   2.5433828E+05   -1.7673556E+00
   2.2812826E-04   2.5227593E+05   -1.7667823E+00
   2.2918178E-04   2.5023097E+05   -1.7662088E+00
   2.3024017E-04   2.4820324E+05   -1.7656351E+00
   2.3130344E-04   2.4619259E+05   -1.7650613E+00
   2.3237162E-04   2.4419888E+05   -1.7644873E+00
   2.3344474E-04   2.4222195E+05   -1.7639132E+00
   2.3452281E-04   2.4026167E+05   -1.7633389E+00
   2.3560586E-04   2.3831788E+05   -1.7627645E+00
   2.3669392E-04   2.3639044E+05   -1.7621900E+00
   2.3778699E-04   2.3447921E+05   -1.7616153E+00
   2.3888512E-04   2.3258404E+05   -1.7610405E+00
   2.3998831E-04   2.3070481E+05   -1.7604656E+00
   2.4109661E-04   2.2884137E+05   -1.7598905E+00
   2.4221001E-04   2.2699358E+05   -1.7593154E+00
   2.4332857E-04   2.2516130E+05   -1.7587402E+00
   2.4445228E-04   2.2334441E+05   -1.7581648E+00
   2.4558119E-04   2.2154277E+05   -1.7575894E+00
   2.4671531E-04   2.1975624E+05   -1.7570139E+00
   2.4785467E-04   2.1798469E+05   -1.7564383E+00
   2.4899928E-04   2.1622801E+05   -1.7558627E+00
   2.5014919E-04   2.1448604E+05   -1.7552870E+00
   2.5130440E-04   2.1275868E+05   -1.7547112E+00
   2.5246495E-04   2.1104578E+05   -1.7541354E+00
   2.5363086E-04   2.0934724E+05   -1.7535596E+00
   2.5480216E-04   2.0766291E+05   -1.7529837E+00
   2.5597886E-04   2.0599268E+05   -1.7524077E+00
   2.5716100E-04   2.0433643E+05   -1.7518318E+00
   2.5834859E-04   2.0269403E+05   -1.7512558E+00
   2.5954168E-04   2.0106537E+05   -1.7506798E+00
   2.6074027E-04   1.9945032E+05   -1.7501038E+00
   2.6194439E-04   1.9784877E+05   -1.7495278E+00
   2.6315408E-04   1.9626060E+05   -1.7489518E+00
   2.6436935E-04   1.9468570E+05   -1.7483759E+00
   2.6559024E-04   1.9312394E+05   -1.7477999E+00
   2.6681676E-04   1.9157523E+05   -1.7472240E+00
   2.6804895E-04   1.9003943E+05   -1.7466481E+00
   2.6928683E-04   1.8851645E+05   -1.7460722E+00
   2.7053042E-04   1.8700618E+05   -1.7454963E+00
   2.7177976E-04   1.8550849E+05   -1.7449206E+00
   2.7303487E-04   1.8402328E+05   -1.7443448E+00
   2.7429577E-04   1.8255045E+05   -1.7437692E+00
   2.7556250E-04   1.8108989E+05   -1.7431935E+00
   2.7683507E-04   1.7964149E+05   -1.7426180E+00
   2.7811353E-04   1.7820515E+05   -1.7420425E+00
   2.7939788E-04   1.7678076E+05   -1.7414672E+00
   2.8068817E-04   1.7536822E+05   -1.7408919E+00
   2.8198442E-04   1.7396743E+05   -1.7403167E+00
   2.8328665E-04   1.7257828E+05   -1.7397416E+00
   2.8459490E-04   1.7120069E+05   -1.7391666E+00
   2.8590919E-04   1.6983453E+05   -1.7385918E+00
   2.8722955E-04   1.6847973E+05   -1.7380170E+00
   2.8855600E-04   1.6713617E+05   -1.7374424E+00
   2.8988859E-04   1.6580377E+05   -1.7368679E+00
   2.9122732E-04   1.6448243E+05   -1.7362936E+00
   2.9257224E-04   1.6317205E+05   -1.7357194E+00
   2.9392337E-04   1.6187253E+05   -1.7351453E+00
   2.9528074E-04   1.6058379E+05   -1.7345714E+00
   2.9664438E-04   1.5930573E+05   -1.7339977E+00
   2.9801431E-04   1.5803826E+05   -1.7334241E+00
   2.9939057E-04   1.5678129E+05   -1.7328507E+00
   3.0077319E-04   1.5553473E+05   -1.7322775E+00
   3.0216219E-04   1.5429848E+05   -1.7317045E+00
   3.0355761E-04   1.5307247E+05   -1.7311317E+00
   3.0495947E-04   1.5185660E+05   -1.7305591E+00
   3.0636780E-04   1.5065078E+05   -1.7299866E+00
   3.0778264E-04   1.4945493E+05   -1.7294144E+00
   3.0920401E-04   1.4826897E+05   -1.7288424E+00
   3.1063195E-04   1.4709280E+05   -1.7282706E+00
   3.1206648E-04   1.4592635E+05   -1.7276991E+00
   3.1350764E-04   1.4476953E+05   -1.7271278E+00
   3.1495545E-04   1.4362226E+05   -1.7265567E+00
   3.1640994E-04   1.4248446E+05   -1.7259859E+00
   3.1787116E-04   1.4135604E+05   -1.7254153E+00
   3.1933912E-04   1.4023693E+05   -1.7248450E+00
   3.2081386E-04   1.3912704E+05   -1.7242749E+00
   3.2229541E-04   1.3802630E+05   -1.7237052E+00
   3.2378381E-04   1.3693462E+05   -1.7231357E+00
   3.2527908E-04   1.3585194E+05   -1.7225664E+00
   3.2678125E-04   1.3477817E+05   -1.7219975E+00
   3.2829036E-04   1.3371324E+05   -1.7214288E+00
   3.2980644E-04   1.3265707E+05   -1.7208605E+00
   3.3132952E-04   1.3160958E+05   -1.7202925E+00
   3.3285963E-04   1.3057071E+05   -1.7197247E+00
   3.3439681E-04   1.2954038E+05   -1.7191573E+00
   3.3594109E-04   1.2851852E+05   -1.7185902E+00
   3.3749250E-04   1.2750505E+05   -1.7180234E+00
   3.3905108E-04   1.2649990E+05   -1.7174570E+00
   3.4061685E-04   1.2550300E+05   -1.7168909E+00
   3.4218986E-04   1.2451429E+05   -1.7163252E+00
   3.4377013E-04   1.2353368E+05   -1.7157598E+00
   3.4535769E-04   1.2256112E+05   -1.7151947E+00
   3.4695259E-04   1.2159653E+05   -1.7146300E+00
   3.4855485E-04   1.2063984E+05   -1.7140657E+00
   3.5016452E-04   1.1969099E+05   -1.7135018E+00
   3.5178161E-04   1.1874992E+05   -1.7129382E+00
   3.5340618E-04   1.1781655E+05   -1.7123750E+00
   3.5503824E-04   1.1689082E+05   -1.7118123E+00
   3.5667785E-04   1.1597266E+05   -1.7112499E+00
   3.5832502E-04   1.1506201E+05   -1.7106879E+00
   3.5997981E-04   1.1415881E+05   -1.7101263E+00
   3.6164223E-04   1.1326300E+05   -1.7095651E+00
   3.6331233E-04   1.1237450E+05   -1.7090044E+00
   3.6499015E-04   1.1149326E+05   -1.7084440E+00
   3.6667571E-04   1.1061921E+05   -1.7078841E+00
   3.6836906E-04   1.0975231E+05   -1.7073246E+00
   3.7007022E-04   1.0889247E+05   -1.7067656E+00
   3.7177925E-04   1.0803965E+05   -1.7062070E+00
   3.7349616E-04   1.0719379E+05   -1.7056489E+00
   3.7522101E-04   1.0635482E+05   -1.7050912E+00
   3.7695382E-04   1.0552268E+05   -1.7045340E+00
   3.7869463E-04   1.0469733E+05   -1.7039772E+00
   3.8044348E-04   1.0387870E+05   -1.7034209E+00
   3.8220041E-04   1.0306674E+05   -1.7028651E+00
   3.8396545E-04   1.0226138E+05   -1.7023098E+00
   3.8573864E-04   1.0146257E+05   -1.7017550E+00
   3.8752002E-04   1.0067027E+05   -1.7012006E+00
   3.8930963E-04   9.9884402E+04   -1.7006468E+00
   3.9110750E-04   9.9104924E+04   -1.7000934E+00
   3.9291368E-04   9.8331779E+04   -1.6995406E+00
   3.9472820E-04   9.7564914E+04   -1.6989883E+00
   3.9655109E-04   9.6804276E+04   -1.6984365E+00
   3.9838241E-04   9.6049813E+04   -1.6978852E+00
   4.0022218E-04   9.5301471E+04   -1.6973344E+00
   4.0207045E-04   9.4559200E+04   -1.6967842E+00
   4.0392725E-04   9.3822947E+04   -1.6962345E+00
   4.0579263E-04   9.3092664E+04   -1.6956854E+00
   4.0766662E-04   9.2368297E+04   -1.6951368E+00
   4.0954927E-04   9.1649799E+04   -1.6945888E+00
   4.1144061E-04   9.0937119E+04   -1.6940413E+00
   4.1334068E-04   9.0230209E+04   -1.6934944E+00
   4.1524953E-04   8.9529019E+04   -1.6929480E+00
   4.1716720E-04   8.8833502E+04   -1.6924023E+00
   4.1909372E-04   8.8143609E+04   -1.6918571E+00
   4.2102914E-04   8.7459294E+04   -1.6913125E+00
   4.2297350E-04   8.6780509E+04   -1.6907684E+00
   4.2492683E-04   8.6107208E+04   -1.6902250E+00
   4.2688919E-04   8.5439345E+04   -1.6896822E+00
   4.2886061E-04   8.4776874E+04   -1.6891399E+00
   4.3084113E-04   8.4119750E+04   -1.6885983E+00
   4.3283080E-04   8.3467927E+04   -1.6880573E+00
   4.3482966E-04   8.2821362E+04   -1.6875169E+00
   4.3683775E-04   8.2180009E+04   -1.6869771E+00
   4.3885511E-04   8.1543825E+04   -1.6864380E+00
   4.4088179E-04   8.0912768E+04   -1.6858995E+00
   4.4291783E-04   8.0286793E+04   -1.6853616E+00
   4.4496327E-04   7.9665858E+04   -1.6848244E+00
   4.4701816E-04   7.9049921E+04   -1.6842878E+00
   4.4908253E-04   7.8438940E+04   -1.6837518E+00
   4.5115644E-04   7.7832873E+04   -1.6832165E+00
   4.5323993E-04   7.7231680E+04   -1.6826819E+00
   4.5533304E-04   7.6635319E+04   -1.6821479E+00
   4.5743582E-04   7.6043750E+04   -1.6816146E+00
   4.5954830E-04   7.5456932E+04   -1.6810819E+00
   4.6167054E-04   7.4874827E+04   -1.6805500E+00
   4.6380259E-04   7.4297394E+04   -1.6800187E+00
   4.6594448E-04   7.3724595E+04   -1.6794881E+00
   4.6809626E-04   7.3156390E+04   -1.6789582E+00
   4.7025797E-04   7.2592742E+04   -1.6784290E+00
   4.7242967E-04   7.2033612E+04   -1.6779004E+00
   4.7461140E-04   7.1478963E+04   -1.6773726E+00
   4.7680321E-04   7.0928757E+04   -1.6768455E+00
   4.7900514E-04   7.0382956E+04   -1.6763191E+00
   4.8121723E-04   6.9841525E+04   -1.6757934E+00
   4.8343954E-04   6.9304427E+04   -1.6752684E+00
   4.8567212E-04   6.8771625E+04   -1.6747442E+00
   4.8791500E-04   6.8243085E+04   -1.6742206E+00
   4.9016825E-04   6.7718769E+04   -1.6736978E+00
   4.9243189E-04   6.7198644E+04   -1.6731758E+00
   4.9470600E-04   6.6682674E+04   -1.6726544E+00
   4.9699060E-04   6.6170824E+04   -1.6721339E+00
   4.9928575E-04   6.5663061E+04   -1.6716140E+00
   5.0159151E-04   6.5159350E+04   -1.6710949E+00
   5.0390791E-04   6.4659657E+04   -1.6705766E+00
   5.0623501E-04   6.4163950E+04   -1.6700590E+00
   5.0857286E-04   6.3672195E+04   -1.6695422E+00
   5.1092150E-04   6.3184359E+04   -1.6690261E+00
   5.1328099E-04   6.2700409E+04   -1.6685108E+00
   5.1565137E-04   6.2220314E+04   -1.6679963E+00
   5.1803270E-04   6.1744042E+04   -1.6674826E+00
   5.2042503E-04   6.1271559E+04   -1.6669696E+00
   5.2282841E-04   6.0802836E+04   -1.6664575E+00
   5.2524289E-04   6.0337841E+04   -1.6659461E+00
   5.2766851E-04   5.9876543E+04   -1.6654355E+00
   5.3010534E-04   5.9418912E+04   -1.6649257E+00
   5.3255342E-04   5.8964916E+04   -1.6644167E+00
   5.3501281E-04   5.8514527E+04   -1.6639085E+00
   5.3748356E-04   5.8067713E+04   -1.6634011E+00
   5.3996571E-04   5.7624446E+04   -1.6628945E+00
   5.4245933E-04   5.7184696E+04   -1.6623887E+00
   5.4496446E-04   5.6748434E+04   -1.6618837E+00
   5.4748117E-04   5.6315631E+04   -1.6613796E+00
   5.5000949E-04   5.5886259E+04   -1.6608762E+00
   5.5254949E-04   5.5460289E+04   -1.6603737E+00
   5.5510123E-04   5.5037693E+04   -1.6598721E+00
   5.5766474E-04   5.4618443E+04   -1.6593712E+00
   5.6024010E-04   5.4202512E+04   -1.6588712E+00
   5.6282734E-04   5.3789872E+04   -1.6583721E+00
   5.6542654E-04   5.3380496E+04   -1.6578737E+00
   5.6803774E-04   5.2974358E+04   -1.6573763E+00
   5.7066099E-04   5.2571429E+04   -1.6568796E+00
   5.7329637E-04   5.2171685E+04   -1.6563838E+00
   5.7594391E-04   5.1775098E+04   -1.6558889E+00
   5.7860368E-04   5.1381644E+04   -1.6553948E+00
   5.8127573E-04   5.0991295E+04   -1.6549016E+00
   5.8396012E-04   5.0604027E+04   -1.6544093E+00
   5.8665691E-04   5.0219813E+04   -1.6539178E+00
   5.8936616E-04   4.9838630E+04   -1.6534272E+00
   5.9208791E-04   4.9460452E+04   -1.6529374E+00
   5.9482223E-04   4.9085254E+04   -1.6524485E+00
   5.9756919E-04   4.8713011E+04   -1.6519606E+00
   6.0032882E-04   4.8343700E+04   -1.6514734E+00
   6.0310120E-04   4.7977297E+04   -1.6509872E+00
   6.0588639E-04   4.7613777E+04   -1.6505019E+00
   6.0868443E-04   4.7253117E+04   -1.6500174E+00
   6.1149540E-04   4.6895294E+04   -1.6495338E+00
   6.1431935E-04   4.6540284E+04   -1.6490512E+00
   6.1715634E-04   4.6188064E+04   -1.6485694E+00
   6.2000644E-04   4.5838611E+04   -1.6480885E+00
   6.2286969E-04   4.5491903E+04   -1.6476085E+00
