#        a       HoverH0(a)       dlogHdloga_of_a(a)
   1.0000000E-04   1.0607287E+06   -1.8496775E+00
   1.0046181E-04   1.0517284E+06   -1.8491927E+00
   1.0092575E-04   1.0428068E+06   -1.8487070E+00
   1.0139184E-04   1.0339631E+06   -1.8482204E+00
   1.0186008E-04   1.0251968E+06   -1.8477329E+00
   1.0233048E-04   1.0165071E+06   -1.8472445E+00
   1.0280305E-04   1.0078934E+06   -1.8467553E+00
   1.0327781E-04   9.9935483E+05   -1.8462652E+00
   1.0375475E-04   9.9089088E+05   -1.8457742E+00
   1.0423390E-04   9.8250083E+05   -1.8452823E+00
   1.0471527E-04   9.7418404E+05   -1.8447896E+00
   1.0519885E-04   9.6593984E+05   -1.8442960E+00
   1.0568467E-04   9.5776759E+05   -1.8438016E+00
   1.0617274E-04   9.4966664E+05   -1.8433063E+00
   1.0666305E-04   9.4163636E+05   -1.8428101E+00
   1.0715563E-04   9.3367613E+05   -1.8423131E+00
   1.0765049E-04   9.2578531E+05   -1.8418153E+00
   1.0814763E-04   9.1796328E+05   -1.8413166E+00
   1.0864707E-04   9.1020944E+05   -1.8408171E+00
   1.0914881E-04   9.0252317E+05   -1.8403167E+00
   1.0965287E-04   8.9490387E+05   -1.8398155E+00
   1.1015926E-04   8.8735095E+05   -1.8393135E+00
   1.1066799E-04   8.7986380E+05   -1.8388106E+00
   1.1117906E-04   8.7244186E+05   -1.8383070E+00
   1.1169250E-04   8.6508453E+05   -1.8378025E+00
   1.1220831E-04   8.5779124E+05   -1.8372971E+00
   1.1272650E-04   8.5056142E+05   -1.8367910E+00
   1.1324708E-04   8.4339450E+05   -1.8362841E+00
   1.1377007E-04   8.3628994E+05   -1.8357763E+00
   1.1429547E-04   8.2924716E+05   -1.8352678E+00
   1.1482330E-04   8.2226561E+05   -1.8347584E+00
   1.1535356E-04   8.1534476E+05   -1.8342483E+00
   1.1588628E-04   8.0848407E+05   -1.8337373E+00
   1.1642145E-04   8.0168299E+05   -1.8332256E+00
   1.1695910E-04   7.9494100E+05   -1.8327131E+00
   1.1749923E-04   7.8825757E+05   -1.8321998E+00
   1.1804185E-04   7.8163218E+05   -1.8316857E+00
   1.1858698E-04   7.7506432E+05   -1.8311709E+00
   1.1913463E-04   7.6855346E+05   -1.8306552E+00
   1.1968481E-04   7.6209912E+05   -1.8301389E+00
   1.2023752E-04   7.5570077E+05   -1.8296217E+00
   1.2079279E-04   7.4935793E+05   -1.8291038E+00
   1.2135063E-04   7.4307011E+05   -1.8285851E+00
   1.2191104E-04   7.3683681E+05   -1.8280657E+00
   1.2247403E-04   7.3065754E+05   -1.8275455E+00
   1.2303963E-04   7.2453184E+05   -1.8270246E+00
   1.2360784E-04   7.1845922E+05   -1.8265030E+00
   1.2417868E-04   7.1243920E+05   -1.8259806E+00
   1.2475215E-04   7.0647133E+05   -1.8254575E+00
   1.2532826E-04   7.0055514E+05   -1.8249336E+00
   1.2590704E-04   6.9469018E+05   -1.8244090E+00
   1.2648850E-04   6.8887598E+05   -1.8238838E+00
   1.2707263E-04   6.8311209E+05   -1.8233577E+00
   1.2765947E-04   6.7739808E+05   -1.8228310E+00
   1.2824901E-04   6.7173349E+05   -1.8223036E+00
   1.2884128E-04   6.6611789E+05   -1.8217755E+00
   1.2943628E-04   6.6055085E+05   -1.8212466E+00
   1.3003403E-04   6.5503193E+05   -1.8207171E+00
   1.3063454E-04   6.4956071E+05   -1.8201869E+00
   1.3123783E-04   6.4413676E+05   -1.8196560E+00
   1.3184390E-04   6.3875966E+05   -1.8191244E+00
   1.3245277E-04   6.3342900E+05   -1.8185922E+00
   1.3306445E-04   6.2814437E+05   -1.8180592E+00
   1.3367895E-04   6.2290536E+05   -1.8175256E+00
   1.3429630E-04   6.1771157E+05   -1.8169913E+00
   1.3491649E-04   6.1256259E+05   -1.8164564E+00
   1.3553955E-04   6.0745802E+05   -1.8159208E+00
   1.3616548E-04   6.0239749E+05   -1.8153846E+00
   1.3679431E-04   5.9738059E+05   -1.8148477E+00
   1.3742604E-04   5.9240693E+05   -1.8143102E+00
   1.3806069E-04   5.8747614E+05   -1.8137720E+00
   1.3869827E-04   5.8258784E+05   -1.8132332E+00
   1.3933879E-04   5.7774165E+05   -1.8126938E+00
   1.3998227E-04   5.7293719E+05   -1.8121538E+00
   1.4062872E-04   5.6817410E+05   -1.8116131E+00
   1.4127816E-04   5.6345201E+05   -1.8110718E+00
   1.4193060E-04   5.5877057E+05   -1.8105299E+00
   1.4258605E-04   5.5412940E+05   -1.8099874E+00
   1.4324453E-04   5.4952816E+05   -1.8094443E+00
   1.4390605E-04   5.4496648E+05   -1.8089006E+00
   1.4457062E-04   5.4044404E+05   -1.8083564E+00
   1.4523826E-04   5.3596046E+05   -1.8078115E+00
   1.4590899E-04   5.3151542E+05   -1.8072660E+00
   1.4658281E-04   5.2710856E+05   -1.8067200E+00
   1.4725974E-04   5.2273957E+05   -1.8061734E+00
   1.4793981E-04   5.1840809E+05   -1.8056262E+00
   1.4862301E-04   5.1411379E+05   -1.8050785E+00
   1.4930936E-04   5.0985636E+05   -1.8045302E+00
   1.4999889E-04   5.0563546E+05   -1.8039814E+00
   1.5069160E-04   5.0145077E+05   -1.8034320E+00
   1.5138751E-04   4.9730198E+05   -1.8028821E+00
   1.5208663E-04   4.9318876E+05   -1.8023317E+00
   1.5278899E-04   4.8911080E+05   -1.8017807E+00
   1.5349458E-04   4.8506779E+05   -1.8012292E+00
   1.5420343E-04   4.8105943E+05   -1.8006771E+00
   1.5491556E-04   4.7708540E+05   -1.8001246E+00
   1.5563098E-04   4.7314541E+05   -1.7995715E+00
   1.5634970E-04   4.6923916E+05   -1.7990179E+00
   1.5707174E-04   4.6536634E+05   -1.7984639E+00
   1.5779711E-04   4.6152666E+05   -1.7979093E+00
   1.5852584E-04   4.5771983E+05   -1.7973542E+00
   1.5925792E-04   4.5394557E+05   -1.7967987E+00
   1.5999339E-04   4.5020357E+05   -1.7962427E+00
   1.6073226E-04   4.4649357E+05   -1.7956862E+00
   1.6147454E-04   4.4281528E+05   -1.7951292E+00
   1.6222024E-04   4.3916842E+05   -1.7945718E+00
   1.6296939E-04   4.3555271E+05   -1.7940139E+00
   1.6372200E-04   4.3196788E+05   -1.7934556E+00
   1.6447809E-04   4.2841366E+05   -1.7928968E+00
   1.6523767E-04   4.2488978E+05   -1.7923376E+00
   1.6600075E-04   4.2139597E+05   -1.7917779E+00
   1.6676736E-04   4.1793197E+05   -1.7912178E+00
   1.6753751E-04   4.1449751E+05   -1.7906573E+00
   1.6831122E-04   4.1109233E+05   -1.7900964E+00
   1.6908849E-04   4.0771619E+05   -1.7895350E+00
   1.6986936E-04   4.0436882E+05   -1.7889732E+00
   1.7065384E-04   4.0104996E+05   -1.7884111E+00
   1.7144193E-04   3.9775938E+05   -1.7878485E+00
   1.7223367E-04   3.9449682E+05   -1.7872855E+00
   1.7302906E-04   3.9126204E+05   -1.7867222E+00
   1.7382813E-04   3.8805479E+05   -1.7861585E+00
   1.7463089E-04   3.8487483E+05   -1.7855944E+00
   1.7543735E-04   3.8172192E+05   -1.7850299E+00
   1.7624754E-04   3.7859582E+05   -1.7844651E+00
   1.7706147E-04   3.7549630E+05   -1.7838999E+00
   1.7787916E-04   3.7242313E+05   -1.7833343E+00
   1.7870062E-04   3.6937607E+05   -1.7827684E+00
   1.7952588E-04   3.6635490E+05   -1.7822022E+00
   1.8035495E-04   3.6335939E+05   -1.7816356E+00
   1.8118785E-04   3.6038931E+05   -1.7810687E+00
   1.8202459E-04   3.5744444E+05   -1.7805014E+00
   1.8286520E-04   3.5452456E+05   -1.7799339E+00
   1.8370969E-04   3.5162946E+05   -1.7793660E+00
   1.8455808E-04   3.4875891E+05   -1.7787978E+00
   1.8541039E-04   3.4591270E+05   -1.7782294E+00
   1.8626663E-04   3.4309061E+05   -1.7776606E+00
   1.8712683E-04   3.4029244E+05   -1.7770915E+00
   1.8799100E-04   3.3751798E+05   -1.7765222E+00
   1.8885917E-04   3.3476701E+05   -1.7759526E+00
   1.8973134E-04   3.3203934E+05   -1.7753827E+00
   1.9060754E-04   3.2933476E+05   -1.7748125E+00
   1.9148778E-04   3.2665307E+05   -1.7742421E+00
   1.9237209E-04   3.2399407E+05   -1.7736714E+00
   1.9326049E-04   3.2135755E+05   -1.7731005E+00
   1.9415299E-04   3.1874333E+05   -1.7725293E+00
   1.9504960E-04   3.1615121E+05   -1.7719579E+00
   1.9595036E-04   3.1358099E+05   -1.7713862E+00
   1.9685528E-04   3.1103249E+05   -1.7708144E+00
   1.9776438E-04   3.0850551E+05   -1.7702423E+00
   1.9867768E-04   3.0599987E+05   -1.7696700E+00
   1.9959519E-04   3.0351539E+05   -1.7690975E+00
   2.0051694E-04   3.0105186E+05   -1.7685247E+00
   2.0144295E-04   2.9860912E+05   -1.7679518E+00
   2.0237324E-04   2.9618699E+05   -1.7673787E+00
   2.0330782E-04   2.9378527E+05   -1.7668055E+00
   2.0424671E-04   2.9140380E+05   -1.7662320E+00
   2.0518995E-04   2.8904240E+05   -1.7656584E+00
   2.0613754E-04   2.8670090E+05   -1.7650846E+00
   2.0708950E-04   2.8437911E+05   -1.7645106E+00
   2.0804586E-04   2.8207687E+05   -1.7639365E+00
   2.0900664E-04   2.7979401E+05   -1.7633622E+00
   2.0997185E-04   2.7753036E+05   -1.7627878E+00
   2.1094152E-04   2.7528575E+05   -1.7622133E+00
   2.1191567E-04   2.7306002E+05   -1.7616386E+00
   2.1289432E-04   2.7085300E+05   -1.7610639E+00
   2.1387749E-04   2.6866454E+05   -1.7604889E+00
   2.1486520E-04   2.6649446E+05   -1.7599139E+00
   2.1585747E-04   2.6434260E+05   -1.7593388E+00
   2.1685432E-04   2.6220882E+05   -1.7587636E+00
   2.1785578E-04   2.6009296E+05   -1.7581883E+00
   2.1886186E-04   2.5799485E+05   -1.7576129E+00
   2.1987259E-04   2.5591434E+05   -1.7570374E+00
   2.2088798E-04   2.5385128E+05   -1.7564618E+00
   2.2190807E-04   2.5180553E+05   -1.7558862E+00
   2.2293286E-04   2.4977692E+05   -1.7553105E+00
   2.2396239E-04   2.4776531E+05   -1.7547348E+00
   2.2499667E-04   2.4577056E+05   -1.7541590E+00
   2.2603573E-04   2.4379251E+05   -1.7535831E+00
   2.2707958E-04   2.4183103E+05   -1.7530072E+00
   2.2812826E-04   2.3988596E+05   -1.7524313E+00
   2.2918178E-04   2.3795716E+05   -1.7518554E+00
   2.3024017E-04   2.3604451E+05   -1.7512794E+00
   2.3130344E-04   2.3414784E+05   -1.7507035E+00
   2.3237162E-04   2.3226704E+05   -1.7501275E+00
   2.3344474E-04   2.3040195E+05   -1.7495515E+00
   2.3452281E-04   2.2855245E+05   -1.7489755E+00
   2.3560586E-04   2.2671839E+05   -1.7483995E+00
   2.3669392E-04   2.2489965E+05   -1.7478236E+00
   2.3778699E-04   2.2309609E+05   -1.7472477E+00
   2.3888512E-04   2.2130758E+05   -1.7466718E+00
   2.3998831E-04   2.1953399E+05   -1.7460959E+00
   2.4109661E-04   2.1777520E+05   -1.7455201E+00
   2.4221001E-04   2.1603106E+05   -1.7449443E+00
   2.4332857E-04   2.1430147E+05   -1.7443686E+00
   2.4445228E-04   2.1258628E+05   -1.7437929E+00
   2.4558119E-04   2.1088539E+05   -1.7432173E+00
   2.4671531E-04   2.0919865E+05   -1.7426418E+00
   2.4785467E-04   2.0752596E+05   -1.7420663E+00
   2.4899928E-04   2.0586719E+05   -1.7414910E+00
   2.5014919E-04   2.0422221E+05   -1.7409157E+00
   2.5130440E-04   2.0259092E+05   -1.7403405E+00
   2.5246495E-04   2.0097320E+05   -1.7397654E+00
   2.5363086E-04   1.9936891E+05   -1.7391905E+00
   2.5480216E-04   1.9777796E+05   -1.7386156E+00
   2.5597886E-04   1.9620022E+05   -1.7380409E+00
   2.5716100E-04   1.9463559E+05   -1.7374663E+00
   2.5834859E-04   1.9308394E+05   -1.7368918E+00
   2.5954168E-04   1.9154517E+05   -1.7363175E+00
   2.6074027E-04   1.9001917E+05   -1.7357433E+00
   2.6194439E-04   1.8850582E+05   -1.7351692E+00
   2.6315408E-04   1.8700502E+05   -1.7345953E+00
   2.6436935E-04   1.8551666E+05   -1.7340216E+00
   2.6559024E-04   1.8404063E+05   -1.7334481E+00
   2.6681676E-04   1.8257683E+05   -1.7328747E+00
   2.6804895E-04   1.8112514E+05   -1.7323015E+00
   2.6928683E-04   1.7968548E+05   -1.7317285E+00
   2.7053042E-04   1.7825773E+05   -1.7311557E+00
   2.7177976E-04   1.7684179E+05   -1.7305830E+00
   2.7303487E-04   1.7543756E+05   -1.7300106E+00
   2.7429577E-04   1.7404493E+05   -1.7294384E+00
   2.7556250E-04   1.7266382E+05   -1.7288664E+00
   2.7683507E-04   1.7129412E+05   -1.7282946E+00
   2.7811353E-04   1.6993574E+05   -1.7277231E+00
   2.7939788E-04   1.6858856E+05   -1.7271518E+00
   2.8068817E-04   1.6725251E+05   -1.7265807E+00
   2.8198442E-04   1.6592749E+05   -1.7260099E+00
   2.8328665E-04   1.6461339E+05   -1.7254393E+00
   2.8459490E-04   1.6331013E+05   -1.7248690E+00
   2.8590919E-04   1.6201761E+05   -1.7242990E+00
   2.8722955E-04   1.6073575E+05   -1.7237292E+00
   2.8855600E-04   1.5946445E+05   -1.7231597E+00
   2.8988859E-04   1.5820361E+05   -1.7225905E+00
   2.9122732E-04   1.5695316E+05   -1.7220216E+00
   2.9257224E-04   1.5571300E+05   -1.7214529E+00
   2.9392337E-04   1.5448304E+05   -1.7208846E+00
   2.9528074E-04   1.5326320E+05   -1.7203165E+00
   2.9664438E-04   1.5205338E+05   -1.7197488E+00
   2.9801431E-04   1.5085352E+05   -1.7191814E+00
   2.9939057E-04   1.4966351E+05   -1.7186143E+00
   3.0077319E-04   1.4848328E+05   -1.7180475E+00
   3.0216219E-04   1.4731274E+05   -1.7174811E+00
   3.0355761E-04   1.4615181E+05   -1.7169150E+00
   3.0495947E-04   1.4500040E+05   -1.7163493E+00
   3.0636780E-04   1.4385844E+05   -1.7157839E+00
   3.0778264E-04   1.4272585E+05   -1.7152188E+00
   3.0920401E-04   1.4160254E+05   -1.7146542E+00
   3.1063195E-04   1.4048844E+05   -1.7140898E+00
   3.1206648E-04   1.3938346E+05   -1.7135259E+00
   3.1350764E-04   1.3828754E+05   -1.7129624E+00
   3.1495545E-04   1.3720059E+05   -1.7123992E+00
   3.1640994E-04   1.3612254E+05   -1.7118364E+00
   3.1787116E-04   1.3505330E+05   -1.7112740E+00
   3.1933912E-04   1.3399281E+05   -1.7107120E+00
   3.2081386E-04   1.3294100E+05   -1.7101504E+00
   3.2229541E-04   1.3189778E+05   -1.7095893E+00
   3.2378381E-04   1.3086309E+05   -1.7090285E+00
   3.2527908E-04   1.2983684E+05   -1.7084682E+00
   3.2678125E-04   1.2881898E+05   -1.7079083E+00
   3.2829036E-04   1.2780943E+05   -1.7073488E+00
   3.2980644E-04   1.2680812E+05   -1.7067898E+00
   3.3132952E-04   1.2581497E+05   -1.7062312E+00
   3.3285963E-04   1.2482993E+05   -1.7056730E+00
   3.3439681E-04   1.2385291E+05   -1.7051154E+00
   3.3594109E-04   1.2288386E+05   -1.7045581E+00
   3.3749250E-04   1.2192270E+05   -1.7040014E+00
   3.3905108E-04   1.2096937E+05   -1.7034451E+00
   3.4061685E-04   1.2002380E+05   -1.7028893E+00
   3.4218986E-04   1.1908593E+05   -1.7023340E+00
   3.4377013E-04   1.1815569E+05   -1.7017791E+00
   3.4535769E-04   1.1723302E+05   -1.7012248E+00
   3.4695259E-04   1.1631784E+05   -1.7006709E+00
   3.4855485E-04   1.1541011E+05   -1.7001176E+00
   3.5016452E-04   1.1450975E+05   -1.6995648E+00
   3.5178161E-04   1.1361671E+05   -1.6990124E+00
   3.5340618E-04   1.1273091E+05   -1.6984606E+00
   3.5503824E-04   1.1185231E+05   -1.6979093E+00
   3.5667785E-04   1.1098083E+05   -1.6973586E+00
   3.5832502E-04   1.1011643E+05   -1.6968084E+00
   3.5997981E-04   1.0925903E+05   -1.6962587E+00
   3.6164223E-04   1.0840859E+05   -1.6957095E+00
   3.6331233E-04   1.0756504E+05   -1.6951610E+00
   3.6499015E-04   1.0672832E+05   -1.6946129E+00
   3.6667571E-04   1.0589837E+05   -1.6940654E+00
   3.6836906E-04   1.0507515E+05   -1.6935185E+00
   3.7007022E-04   1.0425858E+05   -1.6929722E+00
   3.7177925E-04   1.0344863E+05   -1.6924264E+00
   3.7349616E-04   1.0264522E+05   -1.6918812E+00
   3.7522101E-04   1.0184831E+05   -1.6913366E+00
   3.7695382E-04   1.0105784E+05   -1.6907926E+00
   3.7869463E-04   1.0027375E+05   -1.6902491E+00
   3.8044348E-04   9.9495999E+04   -1.6897063E+00
   3.8220041E-04   9.8724525E+04   -1.6891641E+00
   3.8396545E-04   9.7959279E+04   -1.6886225E+00
   3.8573864E-04   9.7200206E+04   -1.6880814E+00
   3.8752002E-04   9.6447256E+04   -1.6875411E+00
   3.8930963E-04   9.5700376E+04   -1.6870013E+00
   3.9110750E-04   9.4959516E+04   -1.6864621E+00
   3.9291368E-04   9.4224626E+04   -1.6859236E+00
   3.9472820E-04   9.3495654E+04   -1.6853857E+00
   3.9655109E-04   9.2772552E+04   -1.6848485E+00
   3.9838241E-04   9.2055271E+04   -1.6843119E+00
   4.0022218E-04   9.1343760E+04   -1.6837759E+00
   4.0207045E-04   9.0637973E+04   -1.6832406E+00
   4.0392725E-04   8.9937861E+04   -1.6827060E+00
   4.0579263E-04   8.9243377E+04   -1.6821720E+00
   4.0766662E-04   8.8554473E+04   -1.6816387E+00
   4.0954927E-04   8.7871103E+04   -1.6811061E+00
   4.1144061E-04   8.7193220E+04   -1.6805741E+00
   4.1334068E-04   8.6520778E+04   -1.6800428E+00
   4.1524953E-04   8.5853733E+04   -1.6795122E+00
   4.1716720E-04   8.5192038E+04   -1.6789823E+00
   4.1909372E-04   8.4535649E+04   -1.6784531E+00
   4.2102914E-04   8.3884522E+04   -1.6779245E+00
   4.2297350E-04   8.3238613E+04   -1.6773967E+00
   4.2492683E-04   8.2597878E+04   -1.6768696E+00
   4.2688919E-04   8.1962274E+04   -1.6763432E+00
   4.2886061E-04   8.1331759E+04   -1.6758175E+00
   4.3084113E-04   8.0706289E+04   -1.6752925E+00
   4.3283080E-04   8.0085823E+04   -1.6747682E+00
   4.3482966E-04   7.9470319E+04   -1.6742447E+00
   4.3683775E-04   7.8859735E+04   -1.6737219E+00
   4.3885511E-04   7.8254031E+04   -1.6731998E+00
   4.4088179E-04   7.7653166E+04   -1.6726785E+00
   4.4291783E-04   7.7057099E+04   -1.6721579E+00
   4.4496327E-04   7.6465791E+04   -1.6716381E+00
   4.4701816E-04   7.5879202E+04   -1.6711190E+00
   4.4908253E-04   7.5297293E+04   -1.6706006E+00
   4.5115644E-04   7.4720025E+04   -1.6700830E+00
   4.5323993E-04   7.4147360E+04   -1.6695662E+00
   4.5533304E-04   7.3579258E+04   -1.6690502E+00
   4.5743582E-04   7.3015683E+04   -1.6685349E+00
   4.5954830E-04   7.2456596E+04   -1.6680204E+00
   4.6167054E-04   7.1901960E+04   -1.6675066E+00
   4.6380259E-04   7.1351739E+04   -1.6669936E+00
   4.6594448E-04   7.0805896E+04   -1.6664815E+00
   4.6809626E-04   7.0264394E+04   -1.6659701E+00
   4.7025797E-04   6.9727197E+04   -1.6654595E+00
   4.7242967E-04   6.9194270E+04   -1.6649497E+00
   4.7461140E-04   6.8665577E+04   -1.6644407E+00
   4.7680321E-04   6.8141084E+04   -1.6639325E+00
   4.7900514E-04   6.7620755E+04   -1.6634251E+00
   4.8121723E-04   6.7104556E+04   -1.6629185E+00
   4.8343954E-04   6.6592453E+04   -1.6624127E+00
   4.8567212E-04   6.6084412E+04   -1.6619077E+00
   4.8791500E-04   6.5580399E+04   -1.6614036E+00
   4.9016825E-04   6.5080382E+04   -1.6609002E+00
   4.9243189E-04   6.4584326E+04   -1.6603977E+00
   4.9470600E-04   6.4092200E+04   -1.6598960E+00
   4.9699060E-04   6.3603970E+04   -1.6593952E+00
   4.9928575E-04   6.3119606E+04   -1.6588952E+00
   5.0159151E-04   6.2639074E+04   -1.6583960E+00
   5.0390791E-04   6.2162343E+04   -1.6578977E+00
   5.0623501E-04   6.1689382E+04   -1.6574002E+00
   5.0857286E-04   6.1220159E+04   -1.6569036E+00
   5.1092150E-04   6.0754645E+04   -1.6564078E+00
   5.1328099E-04   6.0292808E+04   -1.6559128E+00
   5.1565137E-04   5.9834618E+04   -1.6554188E+00
   5.1803270E-04   5.9380045E+04   -1.6549255E+00
   5.2042503E-04   5.8929059E+04   -1.6544332E+00
   5.2282841E-04   5.8481631E+04   -1.6539417E+00
   5.2524289E-04   5.8037732E+04   -1.6534511E+00
   5.2766851E-04   5.7597332E+04   -1.6529613E+00
   5.3010534E-04   5.7160402E+04   -1.6524725E+00
   5.3255342E-04   5.6726915E+04   -1.6519845E+00
   5.3501281E-04   5.6296842E+04   -1.6514973E+00
   5.3748356E-04   5.5870155E+04   -1.6510111E+00
   5.3996571E-04   5.5446825E+04   -1.6505258E+00
   5.4245933E-04   5.5026826E+04   -1.6500413E+00
   5.4496446E-04   5.4610131E+04   -1.6495577E+00
   5.4748117E-04   5.4196711E+04   -1.6490750E+00
   5.5000949E-04   5.3786541E+04   -1.6485933E+00
   5.5254949E-04   5.3379594E+04   -1.6481124E+00
   5.5510123E-04   5.2975842E+04   -1.6476324E+00
   5.5766474E-04   5.2575261E+04   -1.6471533E+00
   5.6024010E-04   5.2177824E+04   -1.6466751E+00
   5.6282734E-04   5.1783505E+04   -1.6461979E+00
   5.6542654E-04   5.1392279E+04   -1.6457215E+00
   5.6803774E-04   5.1004120E+04   -1.6452461E+00
   5.7066099E-04   5.0619004E+04   -1.6447716E+00
   5.7329637E-04   5.0236906E+04   -1.6442979E+00
   5.7594391E-04   4.9857800E+04   -1.6438253E+00
   5.7860368E-04   4.9481663E+04   -1.6433535E+00
   5.8127573E-04   4.9108471E+04   -1.6428827E+00
   5.8396012E-04   4.8738198E+04   -1.6424128E+00
   5.8665691E-04   4.8370823E+04   -1.6419438E+00
   5.8936616E-04   4.8006320E+04   -1.6414757E+00
   5.9208791E-04   4.7644666E+04   -1.6410086E+00
   5.9482223E-04   4.7285838E+04   -1.6405424E+00
   5.9756919E-04   4.6929814E+04   -1.6400772E+00
   6.0032882E-04   4.6576570E+04   -1.6396129E+00
   6.0310120E-04   4.6226083E+04   -1.6391496E+00
   6.0588639E-04   4.5878332E+04   -1.6386871E+00
   6.0868443E-04   4.5533294E+04   -1.6382257E+00
   6.1149540E-04   4.5190947E+04   -1.6377652E+00
   6.1431935E-04   4.4851269E+04   -1.6373056E+00
   6.1715634E-04   4.4514238E+04   -1.6368470E+00
   6.2000644E-04   4.4179833E+04   -1.6363893E+00
   6.2286969E-04   4.3848032E+04   -1.6359326E+00
