#        a       HoverH0(a)       dlogHdloga_of_a(a)
   1.0000000E-04   1.0324415E+06   -1.8870336E+00
   1.0046181E-04   1.0235048E+06   -1.8866302E+00
   1.0092575E-04   1.0146474E+06   -1.8862258E+00
   1.0139184E-04   1.0058685E+06   -1.8858203E+00
   1.0186008E-04   9.9716746E+05   -1.8854139E+00
   1.0233048E-04   9.8854352E+05   -1.8850064E+00
   1.0280305E-04   9.7999600E+05   -1.8845979E+00
   1.0327781E-04   9.7152422E+05   -1.8841884E+00
   1.0375475E-04   9.6312749E+05   -1.8837779E+00
   1.0423390E-04   9.5480515E+05   -1.8833663E+00
   1.0471527E-04   9.4655651E+05   -1.8829538E+00
   1.0519885E-04   9.3838092E+05   -1.8825402E+00
   1.0568467E-04   9.3027772E+05   -1.8821256E+00
   1.0617274E-04   9.2224625E+05   -1.8817100E+00
   1.0666305E-04   9.1428588E+05   -1.8812934E+00
   1.0715563E-04   9.0639596E+05   -1.8808758E+00
   1.0765049E-04   8.9857586E+05   -1.8804572E+00
   1.0814763E-04   8.9082495E+05   -1.8800376E+00
   1.0864707E-04   8.8314261E+05   -1.8796170E+00
   1.0914881E-04   8.7552821E+05   -1.8791953E+00
   1.0965287E-04   8.6798116E+05   -1.8787727E+00
   1.1015926E-04   8.6050084E+05   -1.8783490E+00
   1.1066799E-04   8.5308665E+05   -1.8779244E+00
   1.1117906E-04   8.4573799E+05   -1.8774987E+00
   1.1169250E-04   8.3845429E+05   -1.8770721E+00
   1.1220831E-04   8.3123495E+05   -1.8766444E+00
   1.1272650E-04   8.2407940E+05   -1.8762158E+00
   1.1324708E-04   8.1698706E+05   -1.8757861E+00
   1.1377007E-04   8.0995737E+05   -1.8753555E+00
   1.1429547E-04   8.0298976E+05   -1.8749238E+00
   1.1482330E-04   7.9608367E+05   -1.8744912E+00
   1.1535356E-04   7.8923856E+05   -1.8740575E+00
   1.1588628E-04   7.8245386E+05   -1.8736229E+00
   1.1642145E-04   7.7572905E+05   -1.8731873E+00
   1.1695910E-04   7.6906357E+05   -1.8727507E+00
   1.1749923E-04   7.6245691E+05   -1.8723131E+00
   1.1804185E-04   7.5590852E+05   -1.8718745E+00
   1.1858698E-04   7.4941790E+05   -1.8714349E+00
   1.1913463E-04   7.4298451E+05   -1.8709944E+00
   1.1968481E-04   7.3660784E+05   -1.8705528E+00
   1.2023752E-04   7.3028739E+05   -1.8701103E+00
   1.2079279E-04   7.2402266E+05   -1.8696668E+00
   1.2135063E-04   7.1781313E+05   -1.8692223E+00
   1.2191104E-04   7.1165832E+05   -1.8687769E+00
   1.2247403E-04   7.0555773E+05   -1.8683304E+00
   1.2303963E-04   6.9951087E+05   -1.8678830E+00
   1.2360784E-04   6.9351728E+05   -1.8674346E+00
   1.2417868E-04   6.8757645E+05   -1.8669853E+00
   1.2475215E-04   6.8168793E+05   -1.8665349E+00
   1.2532826E-04   6.7585125E+05   -1.8660836E+00
   1.2590704E-04   6.7006593E+05   -1.8656314E+00
   1.2648850E-04   6.6433153E+05   -1.8651781E+00
   1.2707263E-04   6.5864757E+05   -1.8647240E+00
   1.2765947E-04   6.5301361E+05   -1.8642688E+00
   1.2824901E-04   6.4742921E+05   -1.8638127E+00
   1.2884128E-04   6.4189391E+05   -1.8633556E+00
   1.2943628E-04   6.3640728E+05   -1.8628976E+00
   1.3003403E-04   6.3096888E+05   -1.8624386E+00
   1.3063454E-04   6.2557828E+05   -1.8619787E+00
   1.3123783E-04   6.2023504E+05   -1.8615178E+00
   1.3184390E-04   6.1493876E+05   -1.8610560E+00
   1.3245277E-04   6.0968899E+05   -1.8605932E+00
   1.3306445E-04   6.0448534E+05   -1.8601295E+00
   1.3367895E-04   5.9932737E+05   -1.8596648E+00
   1.3429630E-04   5.9421470E+05   -1.8591992E+00
   1.3491649E-04   5.8914690E+05   -1.8587327E+00
   1.3553955E-04   5.8412358E+05   -1.8582652E+00
   1.3616548E-04   5.7914434E+05   -1.8577968E+00
   1.3679431E-04   5.7420879E+05   -1.8573274E+00
   1.3742604E-04   5.6931653E+05   -1.8568571E+00
   1.3806069E-04   5.6446718E+05   -1.8563859E+00
   1.3869827E-04   5.5966035E+05   -1.8559138E+00
   1.3933879E-04   5.5489566E+05   -1.8554408E+00
   1.3998227E-04   5.5017273E+05   -1.8549668E+00
   1.4062872E-04   5.4549120E+05   -1.8544919E+00
   1.4127816E-04   5.4085068E+05   -1.8540161E+00
   1.4193060E-04   5.3625082E+05   -1.8535394E+00
   1.4258605E-04   5.3169125E+05   -1.8530618E+00
   1.4324453E-04   5.2717161E+05   -1.8525832E+00
   1.4390605E-04   5.2269155E+05   -1.8521038E+00
   1.4457062E-04   5.1825070E+05   -1.8516234E+00
   1.4523826E-04   5.1384872E+05   -1.8511422E+00
   1.4590899E-04   5.0948526E+05   -1.8506601E+00
   1.4658281E-04   5.0515998E+05   -1.8501770E+00
   1.4725974E-04   5.0087253E+05   -1.8496931E+00
   1.4793981E-04   4.9662258E+05   -1.8492083E+00
   1.4862301E-04   4.9240980E+05   -1.8487226E+00
   1.4930936E-04   4.8823384E+05   -1.8482360E+00
   1.4999889E-04   4.8409438E+05   -1.8477485E+00
   1.5069160E-04   4.7999110E+05   -1.8472601E+00
   1.5138751E-04   4.7592367E+05   -1.8467709E+00
   1.5208663E-04   4.7189177E+05   -1.8462808E+00
   1.5278899E-04   4.6789509E+05   -1.8457898E+00
   1.5349458E-04   4.6393331E+05   -1.8452980E+00
   1.5420343E-04   4.6000612E+05   -1.8448053E+00
   1.5491556E-04   4.5611320E+05   -1.8443117E+00
   1.5563098E-04   4.5225426E+05   -1.8438173E+00
   1.5634970E-04   4.4842900E+05   -1.8433220E+00
   1.5707174E-04   4.4463710E+05   -1.8428258E+00
   1.5779711E-04   4.4087827E+05   -1.8423289E+00
   1.5852584E-04   4.3715223E+05   -1.8418310E+00
   1.5925792E-04   4.3345866E+05   -1.8413323E+00
   1.5999339E-04   4.2979730E+05   -1.8408328E+00
   1.6073226E-04   4.2616784E+05   -1.8403325E+00
   1.6147454E-04   4.2257000E+05   -1.8398313E+00
   1.6222024E-04   4.1900351E+05   -1.8393293E+00
   1.6296939E-04   4.1546809E+05   -1.8388264E+00
   1.6372200E-04   4.1196345E+05   -1.8383227E+00
   1.6447809E-04   4.0848932E+05   -1.8378183E+00
   1.6523767E-04   4.0504543E+05   -1.8373129E+00
   1.6600075E-04   4.0163151E+05   -1.8368068E+00
   1.6676736E-04   3.9824729E+05   -1.8362999E+00
   1.6753751E-04   3.9489252E+05   -1.8357921E+00
   1.6831122E-04   3.9156692E+05   -1.8352836E+00
   1.6908849E-04   3.8827023E+05   -1.8347743E+00
   1.6986936E-04   3.8500221E+05   -1.8342641E+00
   1.7065384E-04   3.8176259E+05   -1.8337532E+00
   1.7144193E-04   3.7855112E+05   -1.8332415E+00
   1.7223367E-04   3.7536756E+05   -1.8327289E+00
   1.7302906E-04   3.7221164E+05   -1.8322157E+00
   1.7382813E-04   3.6908314E+05   -1.8317016E+00
   1.7463089E-04   3.6598180E+05   -1.8311867E+00
   1.7543735E-04   3.6290738E+05   -1.8306711E+00
   1.7624754E-04   3.5985964E+05   -1.8301547E+00
   1.7706147E-04   3.5683835E+05   -1.8296376E+00
   1.7787916E-04   3.5384326E+05   -1.8291197E+00
   1.7870062E-04   3.5087415E+05   -1.8286010E+00
   1.7952588E-04   3.4793079E+05   -1.8280816E+00
   1.8035495E-04   3.4501295E+05   -1.8275614E+00
   1.8118785E-04   3.4212039E+05   -1.8270405E+00
   1.8202459E-04   3.3925291E+05   -1.8265189E+00
   1.8286520E-04   3.3641026E+05   -1.8259965E+00
   1.8370969E-04   3.3359224E+05   -1.8254734E+00
   1.8455808E-04   3.3079862E+05   -1.8249495E+00
   1.8541039E-04   3.2802919E+05   -1.8244250E+00
   1.8626663E-04   3.2528373E+05   -1.8238997E+00
   1.8712683E-04   3.2256203E+05   -1.8233737E+00
   1.8799100E-04   3.1986388E+05   -1.8228469E+00
   1.8885917E-04   3.1718907E+05   -1.8223195E+00
   1.8973134E-04   3.1453739E+05   -1.8217914E+00
   1.9060754E-04   3.1190863E+05   -1.8212625E+00
   1.9148778E-04   3.0930261E+05   -1.8207330E+00
   1.9237209E-04   3.0671910E+05   -1.8202028E+00
   1.9326049E-04   3.0415792E+05   -1.8196719E+00
   1.9415299E-04   3.0161886E+05   -1.8191403E+00
   1.9504960E-04   2.9910173E+05   -1.8186080E+00
   1.9595036E-04   2.9660633E+05   -1.8180751E+00
   1.9685528E-04   2.9413248E+05   -1.8175415E+00
   1.9776438E-04   2.9167998E+05   -1.8170072E+00
   1.9867768E-04   2.8924864E+05   -1.8164723E+00
   1.9959519E-04   2.8683827E+05   -1.8159367E+00
   2.0051694E-04   2.8444869E+05   -1.8154005E+00
   2.0144295E-04   2.8207972E+05   -1.8148636E+00
   2.0237324E-04   2.7973117E+05   -1.8143260E+00
   2.0330782E-04   2.7740286E+05   -1.8137879E+00
   2.0424671E-04   2.7509461E+05   -1.8132491E+00
   2.0518995E-04   2.7280624E+05   -1.8127096E+00
   2.0613754E-04   2.7053759E+05   -1.8121696E+00
   2.0708950E-04   2.6828846E+05   -1.8116289E+00
   2.0804586E-04   2.6605870E+05   -1.8110876E+00
   2.0900664E-04   2.6384813E+05   -1.8105457E+00
   2.0997185E-04   2.6165658E+05   -1.8100032E+00
   2.1094152E-04   2.5948389E+05   -1.8094601E+00
   2.1191567E-04   2.5732987E+05   -1.8089164E+00
   2.1289432E-04   2.5519438E+05   -1.8083721E+00
   2.1387749E-04   2.5307725E+05   -1.8078272E+00
   2.1486520E-04   2.5097831E+05   -1.8072818E+00
   2.1585747E-04   2.4889740E+05   -1.8067357E+00
   2.1685432E-04   2.4683437E+05   -1.8061891E+00
   2.1785578E-04   2.4478905E+05   -1.8056420E+00
   2.1886186E-04   2.4276129E+05   -1.8050942E+00
   2.1987259E-04   2.4075094E+05   -1.8045459E+00
   2.2088798E-04   2.3875784E+05   -1.8039971E+00
   2.2190807E-04   2.3678185E+05   -1.8034477E+00
   2.2293286E-04   2.3482279E+05   -1.8028978E+00
   2.2396239E-04   2.3288054E+05   -1.8023473E+00
   2.2499667E-04   2.3095494E+05   -1.8017963E+00
   2.2603573E-04   2.2904584E+05   -1.8012448E+00
   2.2707958E-04   2.2715310E+05   -1.8006927E+00
   2.2812826E-04   2.2527658E+05   -1.8001401E+00
   2.2918178E-04   2.2341612E+05   -1.7995871E+00
   2.3024017E-04   2.2157160E+05   -1.7990335E+00
   2.3130344E-04   2.1974286E+05   -1.7984794E+00
   2.3237162E-04   2.1792978E+05   -1.7979248E+00
   2.3344474E-04   2.1613220E+05   -1.7973697E+00
   2.3452281E-04   2.1435001E+05   -1.7968142E+00
   2.3560586E-04   2.1258305E+05   -1.7962581E+00
   2.3669392E-04   2.1083120E+05   -1.7957016E+00
   2.3778699E-04   2.0909432E+05   -1.7951446E+00
   2.3888512E-04   2.0737228E+05   -1.7945872E+00
   2.3998831E-04   2.0566495E+05   -1.7940293E+00
   2.4109661E-04   2.0397221E+05   -1.7934709E+00
   2.4221001E-04   2.0229391E+05   -1.7929121E+00
   2.4332857E-04   2.0062995E+05   -1.7923529E+00
   2.4445228E-04   1.9898018E+05   -1.7917932E+00
   2.4558119E-04   1.9734449E+05   -1.7912331E+00
   2.4671531E-04   1.9572275E+05   -1.7906725E+00
   2.4785467E-04   1.9411484E+05   -1.7901116E+00
   2.4899928E-04   1.9252063E+05   -1.7895502E+00
   2.5014919E-04   1.9094001E+05   -1.7889884E+00
   2.5130440E-04   1.8937286E+05   -1.7884262E+00
   2.5246495E-04   1.8781906E+05   -1.7878636E+00
   2.5363086E-04   1.8627849E+05   -1.7873006E+00
   2.5480216E-04   1.8475104E+05   -1.7867373E+00
   2.5597886E-04   1.8323658E+05   -1.7861735E+00
   2.5716100E-04   1.8173502E+05   -1.7856094E+00
   2.5834859E-04   1.8024623E+05   -1.7850449E+00
   2.5954168E-04   1.7877009E+05   -1.7844800E+00
   2.6074027E-04   1.7730651E+05   -1.7839148E+00
   2.6194439E-04   1.7585537E+05   -1.7833492E+00
   2.6315408E-04   1.7441656E+05   -1.7827833E+00
   2.6436935E-04   1.7298998E+05   -1.7822170E+00
   2.6559024E-04   1.7157551E+05   -1.7816504E+00
   2.6681676E-04   1.7017305E+05   -1.7810835E+00
   2.6804895E-04   1.6878249E+05   -1.7805162E+00
   2.6928683E-04   1.6740374E+05   -1.7799486E+00
   2.7053042E-04   1.6603668E+05   -1.7793807E+00
   2.7177976E-04   1.6468122E+05   -1.7788125E+00
   2.7303487E-04   1.6333725E+05   -1.7782440E+00
   2.7429577E-04   1.6200467E+05   -1.7776752E+00
   2.7556250E-04   1.6068338E+05   -1.7771061E+00
   2.7683507E-04   1.5937329E+05   -1.7765367E+00
   2.7811353E-04   1.5807430E+05   -1.7759671E+00
   2.7939788E-04   1.5678631E+05   -1.7753971E+00
   2.8068817E-04   1.5550921E+05   -1.7748269E+00
   2.8198442E-04   1.5424293E+05   -1.7742565E+00
   2.8328665E-04   1.5298736E+05   -1.7736857E+00
   2.8459490E-04   1.5174241E+05   -1.7731148E+00
   2.8590919E-04   1.5050799E+05   -1.7725436E+00
   2.8722955E-04   1.4928400E+05   -1.7719721E+00
   2.8855600E-04   1.4807035E+05   -1.7714004E+00
   2.8988859E-04   1.4686696E+05   -1.7708285E+00
   2.9122732E-04   1.4567373E+05   -1.7702564E+00
   2.9257224E-04   1.4449058E+05   -1.7696841E+00
   2.9392337E-04   1.4331742E+05   -1.7691115E+00
   2.9528074E-04   1.4215415E+05   -1.7685388E+00
   2.9664438E-04   1.4100070E+05   -1.7679658E+00
   2.9801431E-04   1.3985698E+05   -1.7673927E+00
   2.9939057E-04   1.3872291E+05   -1.7668194E+00
   3.0077319E-04   1.3759839E+05   -1.7662459E+00
   3.0216219E-04   1.3648335E+05   -1.7656722E+00
   3.0355761E-04   1.3537770E+05   -1.7650983E+00
   3.0495947E-04   1.3428136E+05   -1.7645243E+00
   3.0636780E-04   1.3319426E+05   -1.7639502E+00
   3.0778264E-04   1.3211630E+05   -1.7633759E+00
   3.0920401E-04   1.3104742E+05   -1.7628014E+00
   3.1063195E-04   1.2998752E+05   -1.7622269E+00
   3.1206648E-04   1.2893654E+05   -1.7616521E+00
   3.1350764E-04   1.2789440E+05   -1.7610773E+00
   3.1495545E-04   1.2686102E+05   -1.7605024E+00
   3.1640994E-04   1.2583632E+05   -1.7599273E+00
   3.1787116E-04   1.2482023E+05   -1.7593521E+00
   3.1933912E-04   1.2381267E+05   -1.7587768E+00
   3.2081386E-04   1.2281357E+05   -1.7582015E+00
   3.2229541E-04   1.2182285E+05   -1.7576260E+00
   3.2378381E-04   1.2084045E+05   -1.7570505E+00
   3.2527908E-04   1.1986628E+05   -1.7564749E+00
   3.2678125E-04   1.1890029E+05   -1.7558992E+00
   3.2829036E-04   1.1794239E+05   -1.7553235E+00
   3.2980644E-04   1.1699252E+05   -1.7547477E+00
   3.3132952E-04   1.1605061E+05   -1.7541718E+00
   3.3285963E-04   1.1511659E+05   -1.7535959E+00
   3.3439681E-04   1.1419038E+05   -1.7530200E+00
   3.3594109E-04   1.1327193E+05   -1.7524440E+00
   3.3749250E-04   1.1236117E+05   -1.7518680E+00
   3.3905108E-04   1.1145802E+05   -1.7512920E+00
   3.4061685E-04   1.1056243E+05   -1.7507160E+00
   3.4218986E-04   1.0967432E+05   -1.7501399E+00
   3.4377013E-04   1.0879364E+05   -1.7495639E+00
   3.4535769E-04   1.0792032E+05   -1.7489879E+00
   3.4695259E-04   1.0705429E+05   -1.7484118E+00
   3.4855485E-04   1.0619549E+05   -1.7478358E+00
   3.5016452E-04   1.0534386E+05   -1.7472598E+00
   3.5178161E-04   1.0449934E+05   -1.7466839E+00
   3.5340618E-04   1.0366186E+05   -1.7461080E+00
   3.5503824E-04   1.0283137E+05   -1.7455321E+00
   3.5667785E-04   1.0200780E+05   -1.7449562E+00
   3.5832502E-04   1.0119109E+05   -1.7443805E+00
   3.5997981E-04   1.0038119E+05   -1.7438047E+00
   3.6164223E-04   9.9578041E+04   -1.7432291E+00
   3.6331233E-04   9.8781577E+04   -1.7426535E+00
   3.6499015E-04   9.7991742E+04   -1.7420780E+00
   3.6667571E-04   9.7208481E+04   -1.7415025E+00
   3.6836906E-04   9.6431736E+04   -1.7409272E+00
   3.7007022E-04   9.5661451E+04   -1.7403520E+00
   3.7177925E-04   9.4897570E+04   -1.7397768E+00
   3.7349616E-04   9.4140039E+04   -1.7392018E+00
   3.7522101E-04   9.3388802E+04   -1.7386269E+00
   3.7695382E-04   9.2643805E+04   -1.7380521E+00
   3.7869463E-04   9.1904996E+04   -1.7374774E+00
   3.8044348E-04   9.1172319E+04   -1.7369028E+00
   3.8220041E-04   9.0445723E+04   -1.7363284E+00
   3.8396545E-04   8.9725154E+04   -1.7357542E+00
   3.8573864E-04   8.9010562E+04   -1.7351801E+00
   3.8752002E-04   8.8301895E+04   -1.7346061E+00
   3.8930963E-04   8.7599101E+04   -1.7340323E+00
   3.9110750E-04   8.6902130E+04   -1.7334587E+00
   3.9291368E-04   8.6210933E+04   -1.7328852E+00
   3.9472820E-04   8.5525459E+04   -1.7323120E+00
   3.9655109E-04   8.4845659E+04   -1.7317389E+00
   3.9838241E-04   8.4171485E+04   -1.7311660E+00
   4.0022218E-04   8.3502889E+04   -1.7305933E+00
   4.0207045E-04   8.2839822E+04   -1.7300208E+00
   4.0392725E-04   8.2182237E+04   -1.7294485E+00
   4.0579263E-04   8.1530086E+04   -1.7288764E+00
   4.0766662E-04   8.0883324E+04   -1.7283046E+00
   4.0954927E-04   8.0241904E+04   -1.7277330E+00
   4.1144061E-04   7.9605780E+04   -1.7271616E+00
   4.1334068E-04   7.8974907E+04   -1.7265904E+00
   4.1524953E-04   7.8349240E+04   -1.7260195E+00
   4.1716720E-04   7.7728733E+04   -1.7254489E+00
   4.1909372E-04   7.7113344E+04   -1.7248785E+00
   4.2102914E-04   7.6503028E+04   -1.7243084E+00
   4.2297350E-04   7.5897741E+04   -1.7237385E+00
   4.2492683E-04   7.5297442E+04   -1.7231689E+00
   4.2688919E-04   7.4702086E+04   -1.7225996E+00
   4.2886061E-04   7.4111632E+04   -1.7220306E+00
   4.3084113E-04   7.3526038E+04   -1.7214619E+00
   4.3283080E-04   7.2945261E+04   -1.7208935E+00
   4.3482966E-04   7.2369262E+04   -1.7203253E+00
   4.3683775E-04   7.1797999E+04   -1.7197575E+00
   4.3885511E-04   7.1231432E+04   -1.7191900E+00
   4.4088179E-04   7.0669520E+04   -1.7186229E+00
   4.4291783E-04   7.0112224E+04   -1.7180560E+00
   4.4496327E-04   6.9559504E+04   -1.7174895E+00
   4.4701816E-04   6.9011322E+04   -1.7169233E+00
   4.4908253E-04   6.8467638E+04   -1.7163575E+00
   4.5115644E-04   6.7928415E+04   -1.7157920E+00
   4.5323993E-04   6.7393614E+04   -1.7152269E+00
   4.5533304E-04   6.6863198E+04   -1.7146621E+00
   4.5743582E-04   6.6337128E+04   -1.7140977E+00
   4.5954830E-04   6.5815369E+04   -1.7135337E+00
   4.6167054E-04   6.5297884E+04   -1.7129700E+00
   4.6380259E-04   6.4784635E+04   -1.7124067E+00
   4.6594448E-04   6.4275587E+04   -1.7118439E+00
   4.6809626E-04   6.3770704E+04   -1.7112814E+00
   4.7025797E-04   6.3269952E+04   -1.7107193E+00
   4.7242967E-04   6.2773293E+04   -1.7101576E+00
   4.7461140E-04   6.2280695E+04   -1.7095964E+00
   4.7680321E-04   6.1792121E+04   -1.7090355E+00
   4.7900514E-04   6.1307539E+04   -1.7084751E+00
   4.8121723E-04   6.0826914E+04   -1.7079151E+00
   4.8343954E-04   6.0350213E+04   -1.7073555E+00
   4.8567212E-04   5.9877402E+04   -1.7067964E+00
   4.8791500E-04   5.9408448E+04   -1.7062377E+00
   4.9016825E-04   5.8943319E+04   -1.7056795E+00
   4.9243189E-04   5.8481981E+04   -1.7051217E+00
   4.9470600E-04   5.8024404E+04   -1.7045644E+00
   4.9699060E-04   5.7570554E+04   -1.7040075E+00
   4.9928575E-04   5.7120401E+04   -1.7034511E+00
   5.0159151E-04   5.6673912E+04   -1.7028952E+00
   5.0390791E-04   5.6231058E+04   -1.7023398E+00
   5.0623501E-04   5.5791807E+04   -1.7017848E+00
   5.0857286E-04   5.5356129E+04   -1.7012304E+00
   5.1092150E-04   5.4923993E+04   -1.7006764E+00
   5.1328099E-04   5.4495370E+04   -1.7001230E+00
   5.1565137E-04   5.4070229E+04   -1.6995700E+00
   5.1803270E-04   5.3648542E+04   -1.6990176E+00
   5.2042503E-04   5.3230279E+04   -1.6984657E+00
   5.2282841E-04   5.2815411E+04   -1.6979143E+00
   5.2524289E-04   5.2403909E+04   -1.6973634E+00
   5.2766851E-04   5.1995746E+04   -1.6968131E+00
   5.3010534E-04   5.1590892E+04   -1.6962633E+00
   5.3255342E-04   5.1189320E+04   -1.6957141E+00
   5.3501281E-04   5.0791003E+04   -1.6951654E+00
   5.3748356E-04   5.0395912E+04   -1.6946172E+00
   5.3996571E-04   5.0004020E+04   -1.6940696E+00
   5.4245933E-04   4.9615302E+04   -1.6935226E+00
   5.4496446E-04   4.9229729E+04   -1.6929761E+00
   5.4748117E-04   4.8847276E+04   -1.6924303E+00
   5.5000949E-04   4.8467915E+04   -1.6918849E+00
   5.5254949E-04   4.8091622E+04   -1.6913402E+00
   5.5510123E-04   4.7718369E+04   -1.6907961E+00
   5.5766474E-04   4.7348133E+04   -1.6902525E+00
   5.6024010E-04   4.6980886E+04   -1.6897096E+00
   5.6282734E-04   4.6616604E+04   -1.6891672E+00
   5.6542654E-04   4.6255263E+04   -1.6886255E+00
   5.6803774E-04   4.5896837E+04   -1.6880844E+00
   5.7066099E-04   4.5541301E+04   -1.6875438E+00
   5.7329637E-04   4.5188632E+04   -1.6870039E+00
   5.7594391E-04   4.4838806E+04   -1.6864647E+00
   5.7860368E-04   4.4491799E+04   -1.6859260E+00
   5.8127573E-04   4.4147586E+04   -1.6853880E+00
   5.8396012E-04   4.3806146E+04   -1.6848507E+00
   5.8665691E-04   4.3467453E+04   -1.6843139E+00
   5.8936616E-04   4.3131486E+04   -1.6837779E+00
   5.9208791E-04   4.2798220E+04   -1.6832424E+00
   5.9482223E-04   4.2467635E+04   -1.6827077E+00
   5.9756919E-04   4.2139707E+04   -1.6821736E+00
   6.0032882E-04   4.1814414E+04   -1.6816401E+00
   6.0310120E-04   4.1491734E+04   -1.6811074E+00
   6.0588639E-04   4.1171645E+04   -1.6805753E+00
   6.0868443E-04   4.0854126E+04   -1.6800438E+00
   6.1149540E-04   4.0539154E+04   -1.6795131E+00
   6.1431935E-04   4.0226709E+04   -1.6789831E+00
   6.1715634E-04   3.9916770E+04   -1.6784537E+00
   6.2000644E-04   3.9609315E+04   -1.6779251E+00
   6.2286969E-04   3.9304324E+04   -1.6773971E+00
