#        a       HoverH0(a)       dlogHdloga_of_a(a)
   1.0000000E-04   1.1560258E+06   -1.8824610E+00
   1.0046181E-04   1.1460436E+06   -1.8820463E+00
   1.0092575E-04   1.1361497E+06   -1.8816305E+00
   1.0139184E-04   1.1263435E+06   -1.8812137E+00
   1.0186008E-04   1.1166240E+06   -1.8807959E+00
   1.0233048E-04   1.1069905E+06   -1.8803771E+00
   1.0280305E-04   1.0974423E+06   -1.8799573E+00
   1.0327781E-04   1.0879785E+06   -1.8795365E+00
   1.0375475E-04   1.0785984E+06   -1.8791146E+00
   1.0423390E-04   1.0693013E+06   -1.8786918E+00
   1.0471527E-04   1.0600864E+06   -1.8782680E+00
   1.0519885E-04   1.0509529E+06   -1.8778431E+00
   1.0568467E-04   1.0419002E+06   -1.8774173E+00
   1.0617274E-04   1.0329275E+06   -1.8769904E+00
   1.0666305E-04   1.0240341E+06   -1.8765626E+00
   1.0715563E-04   1.0152192E+06   -1.8761338E+00
   1.0765049E-04   1.0064822E+06   -1.8757039E+00
   1.0814763E-04   9.9782244E+05   -1.8752731E+00
   1.0864707E-04   9.8923911E+05   -1.8748412E+00
   1.0914881E-04   9.8073156E+05   -1.8744084E+00
   1.0965287E-04   9.7229912E+05   -1.8739746E+00
   1.1015926E-04   9.6394111E+05   -1.8735398E+00
   1.1066799E-04   9.5565687E+05   -1.8731040E+00
   1.1117906E-04   9.4744573E+05   -1.8726672E+00
   1.1169250E-04   9.3930703E+05   -1.8722294E+00
   1.1220831E-04   9.3124012E+05   -1.8717906E+00
   1.1272650E-04   9.2324436E+05   -1.8713509E+00
   1.1324708E-04   9.1531911E+05   -1.8709101E+00
   1.1377007E-04   9.0746374E+05   -1.8704684E+00
   1.1429547E-04   8.9967761E+05   -1.8700257E+00
   1.1482330E-04   8.9196012E+05   -1.8695820E+00
   1.1535356E-04   8.8431063E+05   -1.8691373E+00
   1.1588628E-04   8.7672855E+05   -1.8686917E+00
   1.1642145E-04   8.6921326E+05   -1.8682450E+00
   1.1695910E-04   8.6176417E+05   -1.8677974E+00
   1.1749923E-04   8.5438067E+05   -1.8673489E+00
   1.1804185E-04   8.4706219E+05   -1.8668993E+00
   1.1858698E-04   8.3980815E+05   -1.8664488E+00
   1.1913463E-04   8.3261795E+05   -1.8659973E+00
   1.1968481E-04   8.2549103E+05   -1.8655449E+00
   1.2023752E-04   8.1842683E+05   -1.8650915E+00
   1.2079279E-04   8.1142477E+05   -1.8646371E+00
   1.2135063E-04   8.0448431E+05   -1.8641818E+00
   1.2191104E-04   7.9760489E+05   -1.8637255E+00
   1.2247403E-04   7.9078596E+05   -1.8632682E+00
   1.2303963E-04   7.8402698E+05   -1.8628100E+00
   1.2360784E-04   7.7732741E+05   -1.8623509E+00
   1.2417868E-04   7.7068672E+05   -1.8618908E+00
   1.2475215E-04   7.6410439E+05   -1.8614297E+00
   1.2532826E-04   7.5757988E+05   -1.8609677E+00
   1.2590704E-04   7.5111269E+05   -1.8605047E+00
   1.2648850E-04   7.4470229E+05   -1.8600408E+00
   1.2707263E-04   7.3834819E+05   -1.8595760E+00
   1.2765947E-04   7.3204987E+05   -1.8591102E+00
   1.2824901E-04   7.2580684E+05   -1.8586435E+00
   1.2884128E-04   7.1961859E+05   -1.8581758E+00
   1.2943628E-04   7.1348465E+05   -1.8577072E+00
   1.3003403E-04   7.0740452E+05   -1.8572377E+00
   1.3063454E-04   7.0137772E+05   -1.8567673E+00
   1.3123783E-04   6.9540378E+05   -1.8562959E+00
   1.3184390E-04   6.8948222E+05   -1.8558236E+00
   1.3245277E-04   6.8361257E+05   -1.8553504E+00
   1.3306445E-04   6.7779437E+05   -1.8548762E+00
   1.3367895E-04   6.7202716E+05   -1.8544012E+00
   1.3429630E-04   6.6631048E+05   -1.8539252E+00
   1.3491649E-04   6.6064388E+05   -1.8534483E+00
   1.3553955E-04   6.5502691E+05   -1.8529705E+00
   1.3616548E-04   6.4945913E+05   -1.8524918E+00
   1.3679431E-04   6.4394010E+05   -1.8520122E+00
   1.3742604E-04   6.3846938E+05   -1.8515317E+00
   1.3806069E-04   6.3304654E+05   -1.8510503E+00
   1.3869827E-04   6.2767115E+05   -1.8505680E+00
   1.3933879E-04   6.2234279E+05   -1.8500848E+00
   1.3998227E-04   6.1706104E+05   -1.8496007E+00
   1.4062872E-04   6.1182548E+05   -1.8491157E+00
   1.4127816E-04   6.0663570E+05   -1.8486298E+00
   1.4193060E-04   6.0149129E+05   -1.8481430E+00
   1.4258605E-04   5.9639184E+05   -1.8476554E+00
   1.4324453E-04   5.9133696E+05   -1.8471669E+00
   1.4390605E-04   5.8632624E+05   -1.8466775E+00
   1.4457062E-04   5.8135929E+05   -1.8461872E+00
   1.4523826E-04   5.7643573E+05   -1.8456961E+00
   1.4590899E-04   5.7155515E+05   -1.8452041E+00
   1.4658281E-04   5.6671719E+05   -1.8447112E+00
   1.4725974E-04   5.6192145E+05   -1.8442175E+00
   1.4793981E-04   5.5716756E+05   -1.8437229E+00
   1.4862301E-04   5.5245515E+05   -1.8432274E+00
   1.4930936E-04   5.4778385E+05   -1.8427311E+00
   1.4999889E-04   5.4315329E+05   -1.8422340E+00
   1.5069160E-04   5.3856311E+05   -1.8417360E+00
   1.5138751E-04   5.3401295E+05   -1.8412372E+00
   1.5208663E-04   5.2950245E+05   -1.8407375E+00
   1.5278899E-04   5.2503125E+05   -1.8402370E+00
   1.5349458E-04   5.2059901E+05   -1.8397356E+00
   1.5420343E-04   5.1620539E+05   -1.8392335E+00
   1.5491556E-04   5.1185002E+05   -1.8387305E+00
   1.5563098E-04   5.0753259E+05   -1.8382266E+00
   1.5634970E-04   5.0325274E+05   -1.8377220E+00
   1.5707174E-04   4.9901014E+05   -1.8372165E+00
   1.5779711E-04   4.9480446E+05   -1.8367102E+00
   1.5852584E-04   4.9063537E+05   -1.8362032E+00
   1.5925792E-04   4.8650255E+05   -1.8356953E+00
   1.5999339E-04   4.8240566E+05   -1.8351866E+00
   1.6073226E-04   4.7834440E+05   -1.8346771E+00
   1.6147454E-04   4.7431845E+05   -1.8341668E+00
   1.6222024E-04   4.7032749E+05   -1.8336557E+00
   1.6296939E-04   4.6637120E+05   -1.8331438E+00
   1.6372200E-04   4.6244929E+05   -1.8326312E+00
   1.6447809E-04   4.5856144E+05   -1.8321177E+00
   1.6523767E-04   4.5470736E+05   -1.8316035E+00
   1.6600075E-04   4.5088674E+05   -1.8310885E+00
   1.6676736E-04   4.4709928E+05   -1.8305728E+00
   1.6753751E-04   4.4334468E+05   -1.8300563E+00
   1.6831122E-04   4.3962267E+05   -1.8295390E+00
   1.6908849E-04   4.3593294E+05   -1.8290209E+00
   1.6986936E-04   4.3227522E+05   -1.8285021E+00
   1.7065384E-04   4.2864920E+05   -1.8279826E+00
   1.7144193E-04   4.2505463E+05   -1.8274623E+00
   1.7223367E-04   4.2149120E+05   -1.8269412E+00
   1.7302906E-04   4.1795866E+05   -1.8264194E+00
   1.7382813E-04   4.1445672E+05   -1.8258969E+00
   1.7463089E-04   4.1098511E+05   -1.8253736E+00
   1.7543735E-04   4.0754356E+05   -1.8248497E+00
   1.7624754E-04   4.0413181E+05   -1.8243250E+00
   1.7706147E-04   4.0074959E+05   -1.8237995E+00
   1.7787916E-04   3.9739664E+05   -1.8232734E+00
   1.7870062E-04   3.9407270E+05   -1.8227465E+00
   1.7952588E-04   3.9077751E+05   -1.8222190E+00
   1.8035495E-04   3.8751081E+05   -1.8216907E+00
   1.8118785E-04   3.8427236E+05   -1.8211618E+00
   1.8202459E-04   3.8106191E+05   -1.8206321E+00
   1.8286520E-04   3.7787919E+05   -1.8201018E+00
   1.8370969E-04   3.7472398E+05   -1.8195707E+00
   1.8455808E-04   3.7159602E+05   -1.8190390E+00
   1.8541039E-04   3.6849508E+05   -1.8185066E+00
   1.8626663E-04   3.6542091E+05   -1.8179736E+00
   1.8712683E-04   3.6237327E+05   -1.8174398E+00
   1.8799100E-04   3.5935194E+05   -1.8169054E+00
   1.8885917E-04   3.5635668E+05   -1.8163704E+00
   1.8973134E-04   3.5338725E+05   -1.8158347E+00
   1.9060754E-04   3.5044344E+05   -1.8152983E+00
   1.9148778E-04   3.4752500E+05   -1.8147613E+00
   1.9237209E-04   3.4463173E+05   -1.8142237E+00
   1.9326049E-04   3.4176338E+05   -1.8136854E+00
   1.9415299E-04   3.3891975E+05   -1.8131465E+00
   1.9504960E-04   3.3610062E+05   -1.8126069E+00
   1.9595036E-04   3.3330577E+05   -1.8120668E+00
   1.9685528E-04   3.3053498E+05   -1.8115260E+00
   1.9776438E-04   3.2778804E+05   -1.8109846E+00
   1.9867768E-04   3.2506474E+05   -1.8104426E+00
   1.9959519E-04   3.2236487E+05   -1.8098999E+00
   2.0051694E-04   3.1968823E+05   -1.8093567E+00
   2.0144295E-04   3.1703460E+05   -1.8088129E+00
   2.0237324E-04   3.1440379E+05   -1.8082685E+00
   2.0330782E-04   3.1179559E+05   -1.8077235E+00
   2.0424671E-04   3.0920981E+05   -1.8071780E+00
   2.0518995E-04   3.0664624E+05   -1.8066318E+00
   2.0613754E-04   3.0410469E+05   -1.8060851E+00
   2.0708950E-04   3.0158497E+05   -1.8055378E+00
   2.0804586E-04   2.9908688E+05   -1.8049900E+00
   2.0900664E-04   2.9661023E+05   -1.8044416E+00
   2.0997185E-04   2.9415483E+05   -1.8038927E+00
   2.1094152E-04   2.9172049E+05   -1.8033432E+00
   2.1191567E-04   2.8930704E+05   -1.8027931E+00
   2.1289432E-04   2.8691428E+05   -1.8022426E+00
   2.1387749E-04   2.8454203E+05   -1.8016915E+00
   2.1486520E-04   2.8219011E+05   -1.8011398E+00
   2.1585747E-04   2.7985834E+05   -1.8005877E+00
   2.1685432E-04   2.7754655E+05   -1.8000350E+00
   2.1785578E-04   2.7525456E+05   -1.7994819E+00
   2.1886186E-04   2.7298219E+05   -1.7989282E+00
   2.1987259E-04   2.7072927E+05   -1.7983740E+00
   2.2088798E-04   2.6849563E+05   -1.7978194E+00
   2.2190807E-04   2.6628109E+05   -1.7972642E+00
   2.2293286E-04   2.6408550E+05   -1.7967086E+00
   2.2396239E-04   2.6190869E+05   -1.7961524E+00
   2.2499667E-04   2.5975048E+05   -1.7955958E+00
   2.2603573E-04   2.5761072E+05   -1.7950388E+00
   2.2707958E-04   2.5548924E+05   -1.7944813E+00
   2.2812826E-04   2.5338588E+05   -1.7939233E+00
   2.2918178E-04   2.5130049E+05   -1.7933648E+00
   2.3024017E-04   2.4923290E+05   -1.7928059E+00
   2.3130344E-04   2.4718295E+05   -1.7922466E+00
   2.3237162E-04   2.4515050E+05   -1.7916869E+00
   2.3344474E-04   2.4313539E+05   -1.7911267E+00
   2.3452281E-04   2.4113747E+05   -1.7905661E+00
   2.3560586E-04   2.3915658E+05   -1.7900050E+00
   2.3669392E-04   2.3719258E+05   -1.7894436E+00
   2.3778699E-04   2.3524532E+05   -1.7888817E+00
   2.3888512E-04   2.3331464E+05   -1.7883194E+00
   2.3998831E-04   2.3140041E+05   -1.7877568E+00
   2.4109661E-04   2.2950248E+05   -1.7871937E+00
   2.4221001E-04   2.2762071E+05   -1.7866303E+00
   2.4332857E-04   2.2575496E+05   -1.7860665E+00
   2.4445228E-04   2.2390508E+05   -1.7855023E+00
   2.4558119E-04   2.2207093E+05   -1.7849377E+00
   2.4671531E-04   2.2025238E+05   -1.7843728E+00
   2.4785467E-04   2.1844930E+05   -1.7838075E+00
   2.4899928E-04   2.1666154E+05   -1.7832419E+00
   2.5014919E-04   2.1488897E+05   -1.7826759E+00
   2.5130440E-04   2.1313145E+05   -1.7821095E+00
   2.5246495E-04   2.1138887E+05   -1.7815429E+00
   2.5363086E-04   2.0966108E+05   -1.7809759E+00
   2.5480216E-04   2.0794795E+05   -1.7804086E+00
   2.5597886E-04   2.0624936E+05   -1.7798409E+00
   2.5716100E-04   2.0456518E+05   -1.7792730E+00
   2.5834859E-04   2.0289529E+05   -1.7787047E+00
   2.5954168E-04   2.0123955E+05   -1.7781362E+00
   2.6074027E-04   1.9959785E+05   -1.7775673E+00
   2.6194439E-04   1.9797006E+05   -1.7769982E+00
   2.6315408E-04   1.9635606E+05   -1.7764287E+00
   2.6436935E-04   1.9475573E+05   -1.7758590E+00
   2.6559024E-04   1.9316895E+05   -1.7752891E+00
   2.6681676E-04   1.9159560E+05   -1.7747188E+00
   2.6804895E-04   1.9003557E+05   -1.7741483E+00
   2.6928683E-04   1.8848873E+05   -1.7735776E+00
   2.7053042E-04   1.8695498E+05   -1.7730065E+00
   2.7177976E-04   1.8543420E+05   -1.7724353E+00
   2.7303487E-04   1.8392626E+05   -1.7718638E+00
   2.7429577E-04   1.8243108E+05   -1.7712921E+00
   2.7556250E-04   1.8094852E+05   -1.7707202E+00
   2.7683507E-04   1.7947849E+05   -1.7701480E+00
   2.7811353E-04   1.7802086E+05   -1.7695756E+00
   2.7939788E-04   1.7657554E+05   -1.7690030E+00
   2.8068817E-04   1.7514242E+05   -1.7684303E+00
   2.8198442E-04   1.7372139E+05   -1.7678573E+00
   2.8328665E-04   1.7231234E+05   -1.7672841E+00
   2.8459490E-04   1.7091518E+05   -1.7667108E+00
   2.8590919E-04   1.6952978E+05   -1.7661372E+00
   2.8722955E-04   1.6815607E+05   -1.7655635E+00
   2.8855600E-04   1.6679392E+05   -1.7649897E+00
   2.8988859E-04   1.6544325E+05   -1.7644157E+00
   2.9122732E-04   1.6410395E+05   -1.7638415E+00
   2.9257224E-04   1.6277592E+05   -1.7632672E+00
   2.9392337E-04   1.6145906E+05   -1.7626927E+00
   2.9528074E-04   1.6015329E+05   -1.7621181E+00
   2.9664438E-04   1.5885849E+05   -1.7615434E+00
   2.9801431E-04   1.5757458E+05   -1.7609685E+00
   2.9939057E-04   1.5630146E+05   -1.7603936E+00
   3.0077319E-04   1.5503904E+05   -1.7598185E+00
   3.0216219E-04   1.5378722E+05   -1.7592433E+00
   3.0355761E-04   1.5254591E+05   -1.7586680E+00
   3.0495947E-04   1.5131502E+05   -1.7580927E+00
   3.0636780E-04   1.5009447E+05   -1.7575172E+00
   3.0778264E-04   1.4888415E+05   -1.7569417E+00
   3.0920401E-04   1.4768398E+05   -1.7563660E+00
   3.1063195E-04   1.4649388E+05   -1.7557904E+00
   3.1206648E-04   1.4531375E+05   -1.7552146E+00
   3.1350764E-04   1.4414352E+05   -1.7546388E+00
   3.1495545E-04   1.4298308E+05   -1.7540630E+00
   3.1640994E-04   1.4183237E+05   -1.7534871E+00
   3.1787116E-04   1.4069129E+05   -1.7529111E+00
   3.1933912E-04   1.3955976E+05   -1.7523352E+00
   3.2081386E-04   1.3843769E+05   -1.7517592E+00
   3.2229541E-04   1.3732502E+05   -1.7511832E+00
   3.2378381E-04   1.3622164E+05   -1.7506072E+00
   3.2527908E-04   1.3512750E+05   -1.7500311E+00
   3.2678125E-04   1.3404249E+05   -1.7494551E+00
   3.2829036E-04   1.3296655E+05   -1.7488791E+00
   3.2980644E-04   1.3189960E+05   -1.7483031E+00
   3.3132952E-04   1.3084155E+05   -1.7477271E+00
   3.3285963E-04   1.2979234E+05   -1.7471511E+00
   3.3439681E-04   1.2875188E+05   -1.7465752E+00
   3.3594109E-04   1.2772011E+05   -1.7459993E+00
   3.3749250E-04   1.2669693E+05   -1.7454234E+00
   3.3905108E-04   1.2568229E+05   -1.7448476E+00
   3.4061685E-04   1.2467610E+05   -1.7442718E+00
   3.4218986E-04   1.2367830E+05   -1.7436961E+00
   3.4377013E-04   1.2268881E+05   -1.7431205E+00
   3.4535769E-04   1.2170756E+05   -1.7425449E+00
   3.4695259E-04   1.2073447E+05   -1.7419694E+00
   3.4855485E-04   1.1976948E+05   -1.7413940E+00
   3.5016452E-04   1.1881252E+05   -1.7408187E+00
   3.5178161E-04   1.1786352E+05   -1.7402435E+00
   3.5340618E-04   1.1692241E+05   -1.7396684E+00
   3.5503824E-04   1.1598912E+05   -1.7390934E+00
   3.5667785E-04   1.1506359E+05   -1.7385185E+00
   3.5832502E-04   1.1414574E+05   -1.7379437E+00
   3.5997981E-04   1.1323552E+05   -1.7373691E+00
   3.6164223E-04   1.1233285E+05   -1.7367946E+00
   3.6331233E-04   1.1143767E+05   -1.7362202E+00
   3.6499015E-04   1.1054991E+05   -1.7356460E+00
   3.6667571E-04   1.0966952E+05   -1.7350719E+00
   3.6836906E-04   1.0879643E+05   -1.7344980E+00
   3.7007022E-04   1.0793057E+05   -1.7339243E+00
   3.7177925E-04   1.0707189E+05   -1.7333507E+00
   3.7349616E-04   1.0622032E+05   -1.7327773E+00
   3.7522101E-04   1.0537580E+05   -1.7322040E+00
   3.7695382E-04   1.0453828E+05   -1.7316310E+00
   3.7869463E-04   1.0370768E+05   -1.7310582E+00
   3.8044348E-04   1.0288395E+05   -1.7304855E+00
   3.8220041E-04   1.0206704E+05   -1.7299131E+00
   3.8396545E-04   1.0125688E+05   -1.7293408E+00
   3.8573864E-04   1.0045341E+05   -1.7287688E+00
   3.8752002E-04   9.9656583E+04   -1.7281970E+00
   3.8930963E-04   9.8866336E+04   -1.7276255E+00
   3.9110750E-04   9.8082614E+04   -1.7270542E+00
   3.9291368E-04   9.7305361E+04   -1.7264831E+00
   3.9472820E-04   9.6534521E+04   -1.7259122E+00
   3.9655109E-04   9.5770039E+04   -1.7253416E+00
   3.9838241E-04   9.5011861E+04   -1.7247713E+00
   4.0022218E-04   9.4259933E+04   -1.7242013E+00
   4.0207045E-04   9.3514201E+04   -1.7236315E+00
   4.0392725E-04   9.2774613E+04   -1.7230619E+00
   4.0579263E-04   9.2041116E+04   -1.7224927E+00
   4.0766662E-04   9.1313657E+04   -1.7219238E+00
   4.0954927E-04   9.0592185E+04   -1.7213551E+00
   4.1144061E-04   8.9876649E+04   -1.7207867E+00
   4.1334068E-04   8.9166998E+04   -1.7202187E+00
   4.1524953E-04   8.8463181E+04   -1.7196510E+00
   4.1716720E-04   8.7765150E+04   -1.7190835E+00
   4.1909372E-04   8.7072854E+04   -1.7185164E+00
   4.2102914E-04   8.6386244E+04   -1.7179497E+00
   4.2297350E-04   8.5705273E+04   -1.7173832E+00
   4.2492683E-04   8.5029891E+04   -1.7168171E+00
   4.2688919E-04   8.4360052E+04   -1.7162514E+00
   4.2886061E-04   8.3695707E+04   -1.7156860E+00
   4.3084113E-04   8.3036811E+04   -1.7151209E+00
   4.3283080E-04   8.2383316E+04   -1.7145562E+00
   4.3482966E-04   8.1735177E+04   -1.7139919E+00
   4.3683775E-04   8.1092347E+04   -1.7134280E+00
   4.3885511E-04   8.0454783E+04   -1.7128644E+00
   4.4088179E-04   7.9822438E+04   -1.7123012E+00
   4.4291783E-04   7.9195268E+04   -1.7117384E+00
   4.4496327E-04   7.8573230E+04   -1.7111760E+00
   4.4701816E-04   7.7956280E+04   -1.7106141E+00
   4.4908253E-04   7.7344374E+04   -1.7100525E+00
   4.5115644E-04   7.6737469E+04   -1.7094913E+00
   4.5323993E-04   7.6135524E+04   -1.7089305E+00
   4.5533304E-04   7.5538496E+04   -1.7083702E+00
   4.5743582E-04   7.4946342E+04   -1.7078103E+00
   4.5954830E-04   7.4359023E+04   -1.7072508E+00
   4.6167054E-04   7.3776496E+04   -1.7066918E+00
   4.6380259E-04   7.3198721E+04   -1.7061332E+00
   4.6594448E-04   7.2625657E+04   -1.7055751E+00
   4.6809626E-04   7.2057266E+04   -1.7050174E+00
   4.7025797E-04   7.1493506E+04   -1.7044602E+00
   4.7242967E-04   7.0934339E+04   -1.7039034E+00
   4.7461140E-04   7.0379726E+04   -1.7033472E+00
   4.7680321E-04   6.9829628E+04   -1.7027914E+00
   4.7900514E-04   6.9284007E+04   -1.7022360E+00
   4.8121723E-04   6.8742825E+04   -1.7016812E+00
   4.8343954E-04   6.8206045E+04   -1.7011269E+00
   4.8567212E-04   6.7673629E+04   -1.7005730E+00
   4.8791500E-04   6.7145540E+04   -1.7000197E+00
   4.9016825E-04   6.6621742E+04   -1.6994669E+00
   4.9243189E-04   6.6102199E+04   -1.6989145E+00
   4.9470600E-04   6.5586873E+04   -1.6983627E+00
   4.9699060E-04   6.5075731E+04   -1.6978115E+00
   4.9928575E-04   6.4568736E+04   -1.6972607E+00
   5.0159151E-04   6.4065853E+04   -1.6967105E+00
   5.0390791E-04   6.3567048E+04   -1.6961608E+00
   5.0623501E-04   6.3072287E+04   -1.6956117E+00
   5.0857286E-04   6.2581534E+04   -1.6950631E+00
   5.1092150E-04   6.2094757E+04   -1.6945151E+00
   5.1328099E-04   6.1611922E+04   -1.6939676E+00
   5.1565137E-04   6.1132995E+04   -1.6934207E+00
   5.1803270E-04   6.0657944E+04   -1.6928744E+00
   5.2042503E-04   6.0186735E+04   -1.6923286E+00
   5.2282841E-04   5.9719338E+04   -1.6917835E+00
   5.2524289E-04   5.9255718E+04   -1.6912389E+00
   5.2766851E-04   5.8795846E+04   -1.6906949E+00
   5.3010534E-04   5.8339688E+04   -1.6901514E+00
   5.3255342E-04   5.7887215E+04   -1.6896086E+00
   5.3501281E-04   5.7438394E+04   -1.6890664E+00
   5.3748356E-04   5.6993195E+04   -1.6885248E+00
   5.3996571E-04   5.6551589E+04   -1.6879838E+00
   5.4245933E-04   5.6113543E+04   -1.6874434E+00
   5.4496446E-04   5.5679030E+04   -1.6869037E+00
   5.4748117E-04   5.5248018E+04   -1.6863645E+00
   5.5000949E-04   5.4820479E+04   -1.6858260E+00
   5.5254949E-04   5.4396384E+04   -1.6852882E+00
   5.5510123E-04   5.3975702E+04   -1.6847509E+00
   5.5766474E-04   5.3558407E+04   -1.6842144E+00
   5.6024010E-04   5.3144469E+04   -1.6836784E+00
   5.6282734E-04   5.2733861E+04   -1.6831431E+00
   5.6542654E-04   5.2326554E+04   -1.6826085E+00
   5.6803774E-04   5.1922521E+04   -1.6820746E+00
   5.7066099E-04   5.1521734E+04   -1.6815413E+00
   5.7329637E-04   5.1124166E+04   -1.6810087E+00
   5.7594391E-04   5.0729790E+04   -1.6804767E+00
   5.7860368E-04   5.0338581E+04   -1.6799454E+00
   5.8127573E-04   4.9950510E+04   -1.6794149E+00
   5.8396012E-04   4.9565552E+04   -1.6788850E+00
   5.8665691E-04   4.9183681E+04   -1.6783558E+00
   5.8936616E-04   4.8804871E+04   -1.6778273E+00
   5.9208791E-04   4.8429096E+04   -1.6772995E+00
   5.9482223E-04   4.8056331E+04   -1.6767724E+00
   5.9756919E-04   4.7686551E+04   -1.6762460E+00
   6.0032882E-04   4.7319732E+04   -1.6757203E+00
   6.0310120E-04   4.6955847E+04   -1.6751953E+00
   6.0588639E-04   4.6594874E+04   -1.6746711E+00
   6.0868443E-04   4.6236787E+04   -1.6741476E+00
   6.1149540E-04   4.5881562E+04   -1.6736248E+00
   6.1431935E-04   4.5529177E+04   -1.6731028E+00
   6.1715634E-04   4.5179606E+04   -1.6725815E+00
   6.2000644E-04   4.4832827E+04   -1.6720609E+00
   6.2286969E-04   4.4488816E+04   -1.6715411E+00
