#        a       HoverH0(a)       dlogHdloga_of_a(a)
   1.0000000E-04   1.1004531E+06   -1.8887836E+00
   1.0046181E-04   1.0909189E+06   -1.8883846E+00
   1.0092575E-04   1.0814694E+06   -1.8879847E+00
   1.0139184E-04   1.0721036E+06   -1.8875837E+00
   1.0186008E-04   1.0628210E+06   -1.8871816E+00
   1.0233048E-04   1.0536206E+06   -1.8867786E+00
   1.0280305E-04   1.0445019E+06   -1.8863745E+00
   1.0327781E-04   1.0354640E+06   -1.8859694E+00
   1.0375475E-04   1.0265062E+06   -1.8855634E+00
   1.0423390E-04   1.0176278E+06   -1.8851562E+00
   1.0471527E-04   1.0088281E+06   -1.8847481E+00
   1.0519885E-04   1.0001064E+06   -1.8843390E+00
   1.0568467E-04   9.9146195E+05   -1.8839288E+00
   1.0617274E-04   9.8289408E+05   -1.8835177E+00
   1.0666305E-04   9.7440210E+05   -1.8831055E+00
   1.0715563E-04   9.6598533E+05   -1.8826923E+00
   1.0765049E-04   9.5764308E+05   -1.8822781E+00
   1.0814763E-04   9.4937470E+05   -1.8818629E+00
   1.0864707E-04   9.4117950E+05   -1.8814466E+00
   1.0914881E-04   9.3305684E+05   -1.8810294E+00
   1.0965287E-04   9.2500607E+05   -1.8806111E+00
   1.1015926E-04   9.1702652E+05   -1.8801919E+00
   1.1066799E-04   9.0911757E+05   -1.8797716E+00
   1.1117906E-04   9.0127858E+05   -1.8793504E+00
   1.1169250E-04   8.9350891E+05   -1.8789281E+00
   1.1220831E-04   8.8580795E+05   -1.8785048E+00
   1.1272650E-04   8.7817508E+05   -1.8780805E+00
   1.1324708E-04   8.7060969E+05   -1.8776552E+00
   1.1377007E-04   8.6311116E+05   -1.8772289E+00
   1.1429547E-04   8.5567891E+05   -1.8768017E+00
   1.1482330E-04   8.4831232E+05   -1.8763734E+00
   1.1535356E-04   8.4101081E+05   -1.8759441E+00
   1.1588628E-04   8.3377380E+05   -1.8755138E+00
   1.1642145E-04   8.2660071E+05   -1.8750825E+00
   1.1695910E-04   8.1949095E+05   -1.8746502E+00
   1.1749923E-04   8.1244397E+05   -1.8742170E+00
   1.1804185E-04   8.0545920E+05   -1.8737827E+00
   1.1858698E-04   7.9853607E+05   -1.8733475E+00
   1.1913463E-04   7.9167405E+05   -1.8729112E+00
   1.1968481E-04   7.8487256E+05   -1.8724740E+00
   1.2023752E-04   7.7813108E+05   -1.8720357E+00
   1.2079279E-04   7.7144907E+05   -1.8715965E+00
   1.2135063E-04   7.6482599E+05   -1.8711563E+00
   1.2191104E-04   7.5826130E+05   -1.8707152E+00
   1.2247403E-04   7.5175449E+05   -1.8702730E+00
   1.2303963E-04   7.4530504E+05   -1.8698298E+00
   1.2360784E-04   7.3891243E+05   -1.8693857E+00
   1.2417868E-04   7.3257615E+05   -1.8689406E+00
   1.2475215E-04   7.2629570E+05   -1.8684945E+00
   1.2532826E-04   7.2007057E+05   -1.8680475E+00
   1.2590704E-04   7.1390027E+05   -1.8675995E+00
   1.2648850E-04   7.0778430E+05   -1.8671505E+00
   1.2707263E-04   7.0172218E+05   -1.8667005E+00
   1.2765947E-04   6.9571343E+05   -1.8662495E+00
   1.2824901E-04   6.8975757E+05   -1.8657976E+00
   1.2884128E-04   6.8385412E+05   -1.8653448E+00
   1.2943628E-04   6.7800261E+05   -1.8648909E+00
   1.3003403E-04   6.7220258E+05   -1.8644361E+00
   1.3063454E-04   6.6645356E+05   -1.8639804E+00
   1.3123783E-04   6.6075510E+05   -1.8635236E+00
   1.3184390E-04   6.5510674E+05   -1.8630660E+00
   1.3245277E-04   6.4950804E+05   -1.8626073E+00
   1.3306445E-04   6.4395855E+05   -1.8621477E+00
   1.3367895E-04   6.3845782E+05   -1.8616872E+00
   1.3429630E-04   6.3300543E+05   -1.8612257E+00
   1.3491649E-04   6.2760094E+05   -1.8607633E+00
   1.3553955E-04   6.2224392E+05   -1.8602999E+00
   1.3616548E-04   6.1693394E+05   -1.8598356E+00
   1.3679431E-04   6.1167059E+05   -1.8593703E+00
   1.3742604E-04   6.0645344E+05   -1.8589041E+00
   1.3806069E-04   6.0128208E+05   -1.8584370E+00
   1.3869827E-04   5.9615611E+05   -1.8579689E+00
   1.3933879E-04   5.9107511E+05   -1.8574999E+00
   1.3998227E-04   5.8603868E+05   -1.8570300E+00
   1.4062872E-04   5.8104643E+05   -1.8565591E+00
   1.4127816E-04   5.7609795E+05   -1.8560873E+00
   1.4193060E-04   5.7119286E+05   -1.8556146E+00
   1.4258605E-04   5.6633077E+05   -1.8551410E+00
   1.4324453E-04   5.6151129E+05   -1.8546664E+00
   1.4390605E-04   5.5673405E+05   -1.8541910E+00
   1.4457062E-04   5.5199866E+05   -1.8537146E+00
   1.4523826E-04   5.4730475E+05   -1.8532373E+00
   1.4590899E-04   5.4265195E+05   -1.8527591E+00
   1.4658281E-04   5.3803989E+05   -1.8522800E+00
   1.4725974E-04   5.3346821E+05   -1.8518000E+00
   1.4793981E-04   5.2893654E+05   -1.8513191E+00
   1.4862301E-04   5.2444453E+05   -1.8508372E+00
   1.4930936E-04   5.1999183E+05   -1.8503545E+00
   1.4999889E-04   5.1557808E+05   -1.8498709E+00
   1.5069160E-04   5.1120293E+05   -1.8493864E+00
   1.5138751E-04   5.0686604E+05   -1.8489011E+00
   1.5208663E-04   5.0256707E+05   -1.8484148E+00
   1.5278899E-04   4.9830568E+05   -1.8479276E+00
   1.5349458E-04   4.9408153E+05   -1.8474396E+00
   1.5420343E-04   4.8989430E+05   -1.8469507E+00
   1.5491556E-04   4.8574364E+05   -1.8464609E+00
   1.5563098E-04   4.8162924E+05   -1.8459702E+00
   1.5634970E-04   4.7755077E+05   -1.8454787E+00
   1.5707174E-04   4.7350791E+05   -1.8449863E+00
   1.5779711E-04   4.6950035E+05   -1.8444931E+00
   1.5852584E-04   4.6552775E+05   -1.8439990E+00
   1.5925792E-04   4.6158983E+05   -1.8435040E+00
   1.5999339E-04   4.5768626E+05   -1.8430082E+00
   1.6073226E-04   4.5381674E+05   -1.8425115E+00
   1.6147454E-04   4.4998096E+05   -1.8420140E+00
   1.6222024E-04   4.4617863E+05   -1.8415156E+00
   1.6296939E-04   4.4240945E+05   -1.8410164E+00
   1.6372200E-04   4.3867312E+05   -1.8405163E+00
   1.6447809E-04   4.3496934E+05   -1.8400154E+00
   1.6523767E-04   4.3129784E+05   -1.8395137E+00
   1.6600075E-04   4.2765831E+05   -1.8390112E+00
   1.6676736E-04   4.2405048E+05   -1.8385078E+00
   1.6753751E-04   4.2047406E+05   -1.8380036E+00
   1.6831122E-04   4.1692877E+05   -1.8374986E+00
   1.6908849E-04   4.1341434E+05   -1.8369928E+00
   1.6986936E-04   4.0993048E+05   -1.8364861E+00
   1.7065384E-04   4.0647694E+05   -1.8359787E+00
   1.7144193E-04   4.0305344E+05   -1.8354704E+00
   1.7223367E-04   3.9965970E+05   -1.8349614E+00
   1.7302906E-04   3.9629547E+05   -1.8344515E+00
   1.7382813E-04   3.9296049E+05   -1.8339409E+00
   1.7463089E-04   3.8965448E+05   -1.8334295E+00
   1.7543735E-04   3.8637721E+05   -1.8329172E+00
   1.7624754E-04   3.8312840E+05   -1.8324042E+00
   1.7706147E-04   3.7990780E+05   -1.8318904E+00
   1.7787916E-04   3.7671518E+05   -1.8313759E+00
   1.7870062E-04   3.7355026E+05   -1.8308605E+00
   1.7952588E-04   3.7041282E+05   -1.8303444E+00
   1.8035495E-04   3.6730260E+05   -1.8298276E+00
   1.8118785E-04   3.6421937E+05   -1.8293099E+00
   1.8202459E-04   3.6116288E+05   -1.8287915E+00
   1.8286520E-04   3.5813289E+05   -1.8282724E+00
   1.8370969E-04   3.5512918E+05   -1.8277525E+00
   1.8455808E-04   3.5215150E+05   -1.8272319E+00
   1.8541039E-04   3.4919963E+05   -1.8267105E+00
   1.8626663E-04   3.4627334E+05   -1.8261884E+00
   1.8712683E-04   3.4337239E+05   -1.8256655E+00
   1.8799100E-04   3.4049657E+05   -1.8251419E+00
   1.8885917E-04   3.3764564E+05   -1.8246176E+00
   1.8973134E-04   3.3481940E+05   -1.8240926E+00
   1.9060754E-04   3.3201762E+05   -1.8235669E+00
   1.9148778E-04   3.2924008E+05   -1.8230404E+00
   1.9237209E-04   3.2648657E+05   -1.8225132E+00
   1.9326049E-04   3.2375688E+05   -1.8219854E+00
   1.9415299E-04   3.2105078E+05   -1.8214568E+00
   1.9504960E-04   3.1836809E+05   -1.8209275E+00
   1.9595036E-04   3.1570858E+05   -1.8203975E+00
   1.9685528E-04   3.1307205E+05   -1.8198669E+00
   1.9776438E-04   3.1045830E+05   -1.8193355E+00
   1.9867768E-04   3.0786713E+05   -1.8188035E+00
   1.9959519E-04   3.0529833E+05   -1.8182708E+00
   2.0051694E-04   3.0275170E+05   -1.8177375E+00
   2.0144295E-04   3.0022706E+05   -1.8172034E+00
   2.0237324E-04   2.9772421E+05   -1.8166687E+00
   2.0330782E-04   2.9524294E+05   -1.8161334E+00
   2.0424671E-04   2.9278308E+05   -1.8155974E+00
   2.0518995E-04   2.9034443E+05   -1.8150607E+00
   2.0613754E-04   2.8792681E+05   -1.8145234E+00
   2.0708950E-04   2.8553002E+05   -1.8139855E+00
   2.0804586E-04   2.8315389E+05   -1.8134469E+00
   2.0900664E-04   2.8079823E+05   -1.8129077E+00
   2.0997185E-04   2.7846286E+05   -1.8123679E+00
   2.1094152E-04   2.7614760E+05   -1.8118274E+00
   2.1191567E-04   2.7385227E+05   -1.8112864E+00
   2.1289432E-04   2.7157669E+05   -1.8107447E+00
   2.1387749E-04   2.6932070E+05   -1.8102024E+00
   2.1486520E-04   2.6708412E+05   -1.8096595E+00
   2.1585747E-04   2.6486677E+05   -1.8091160E+00
   2.1685432E-04   2.6266849E+05   -1.8085720E+00
   2.1785578E-04   2.6048911E+05   -1.8080273E+00
   2.1886186E-04   2.5832846E+05   -1.8074821E+00
   2.1987259E-04   2.5618637E+05   -1.8069362E+00
   2.2088798E-04   2.5406269E+05   -1.8063898E+00
   2.2190807E-04   2.5195725E+05   -1.8058429E+00
   2.2293286E-04   2.4986988E+05   -1.8052953E+00
   2.2396239E-04   2.4780043E+05   -1.8047472E+00
   2.2499667E-04   2.4574875E+05   -1.8041986E+00
   2.2603573E-04   2.4371466E+05   -1.8036494E+00
   2.2707958E-04   2.4169803E+05   -1.8030997E+00
   2.2812826E-04   2.3969869E+05   -1.8025494E+00
   2.2918178E-04   2.3771649E+05   -1.8019986E+00
   2.3024017E-04   2.3575128E+05   -1.8014472E+00
   2.3130344E-04   2.3380291E+05   -1.8008954E+00
   2.3237162E-04   2.3187123E+05   -1.8003430E+00
   2.3344474E-04   2.2995610E+05   -1.7997901E+00
   2.3452281E-04   2.2805737E+05   -1.7992367E+00
   2.3560586E-04   2.2617489E+05   -1.7986828E+00
   2.3669392E-04   2.2430852E+05   -1.7981284E+00
   2.3778699E-04   2.2245813E+05   -1.7975735E+00
   2.3888512E-04   2.2062356E+05   -1.7970181E+00
   2.3998831E-04   2.1880468E+05   -1.7964622E+00
   2.4109661E-04   2.1700135E+05   -1.7959059E+00
   2.4221001E-04   2.1521344E+05   -1.7953491E+00
   2.4332857E-04   2.1344081E+05   -1.7947918E+00
   2.4445228E-04   2.1168332E+05   -1.7942341E+00
   2.4558119E-04   2.0994084E+05   -1.7936759E+00
   2.4671531E-04   2.0821324E+05   -1.7931172E+00
   2.4785467E-04   2.0650039E+05   -1.7925581E+00
   2.4899928E-04   2.0480215E+05   -1.7919986E+00
   2.5014919E-04   2.0311841E+05   -1.7914387E+00
   2.5130440E-04   2.0144903E+05   -1.7908783E+00
   2.5246495E-04   1.9979389E+05   -1.7903175E+00
   2.5363086E-04   1.9815285E+05   -1.7897562E+00
   2.5480216E-04   1.9652581E+05   -1.7891946E+00
   2.5597886E-04   1.9491263E+05   -1.7886325E+00
   2.5716100E-04   1.9331319E+05   -1.7880701E+00
   2.5834859E-04   1.9172737E+05   -1.7875072E+00
   2.5954168E-04   1.9015506E+05   -1.7869440E+00
   2.6074027E-04   1.8859612E+05   -1.7863804E+00
   2.6194439E-04   1.8705046E+05   -1.7858164E+00
   2.6315408E-04   1.8551794E+05   -1.7852520E+00
   2.6436935E-04   1.8399846E+05   -1.7846873E+00
   2.6559024E-04   1.8249191E+05   -1.7841222E+00
   2.6681676E-04   1.8099815E+05   -1.7835567E+00
   2.6804895E-04   1.7951709E+05   -1.7829909E+00
   2.6928683E-04   1.7804862E+05   -1.7824248E+00
   2.7053042E-04   1.7659262E+05   -1.7818583E+00
   2.7177976E-04   1.7514898E+05   -1.7812915E+00
   2.7303487E-04   1.7371760E+05   -1.7807243E+00
   2.7429577E-04   1.7229836E+05   -1.7801569E+00
   2.7556250E-04   1.7089117E+05   -1.7795891E+00
   2.7683507E-04   1.6949591E+05   -1.7790210E+00
   2.7811353E-04   1.6811249E+05   -1.7784526E+00
   2.7939788E-04   1.6674079E+05   -1.7778839E+00
   2.8068817E-04   1.6538072E+05   -1.7773149E+00
   2.8198442E-04   1.6403218E+05   -1.7767456E+00
   2.8328665E-04   1.6269505E+05   -1.7761760E+00
   2.8459490E-04   1.6136925E+05   -1.7756062E+00
   2.8590919E-04   1.6005468E+05   -1.7750361E+00
   2.8722955E-04   1.5875123E+05   -1.7744657E+00
   2.8855600E-04   1.5745881E+05   -1.7738951E+00
   2.8988859E-04   1.5617732E+05   -1.7733242E+00
   2.9122732E-04   1.5490667E+05   -1.7727531E+00
   2.9257224E-04   1.5364676E+05   -1.7721817E+00
   2.9392337E-04   1.5239750E+05   -1.7716101E+00
   2.9528074E-04   1.5115879E+05   -1.7710383E+00
   2.9664438E-04   1.4993055E+05   -1.7704662E+00
   2.9801431E-04   1.4871268E+05   -1.7698940E+00
   2.9939057E-04   1.4750510E+05   -1.7693215E+00
   3.0077319E-04   1.4630770E+05   -1.7687488E+00
   3.0216219E-04   1.4512041E+05   -1.7681759E+00
   3.0355761E-04   1.4394313E+05   -1.7676029E+00
   3.0495947E-04   1.4277578E+05   -1.7670296E+00
   3.0636780E-04   1.4161827E+05   -1.7664562E+00
   3.0778264E-04   1.4047052E+05   -1.7658826E+00
   3.0920401E-04   1.3933244E+05   -1.7653088E+00
   3.1063195E-04   1.3820394E+05   -1.7647348E+00
   3.1206648E-04   1.3708494E+05   -1.7641607E+00
   3.1350764E-04   1.3597537E+05   -1.7635865E+00
   3.1495545E-04   1.3487513E+05   -1.7630121E+00
   3.1640994E-04   1.3378415E+05   -1.7624375E+00
   3.1787116E-04   1.3270235E+05   -1.7618629E+00
   3.1933912E-04   1.3162964E+05   -1.7612881E+00
   3.2081386E-04   1.3056595E+05   -1.7607132E+00
   3.2229541E-04   1.2951120E+05   -1.7601381E+00
   3.2378381E-04   1.2846531E+05   -1.7595630E+00
   3.2527908E-04   1.2742820E+05   -1.7589878E+00
   3.2678125E-04   1.2639980E+05   -1.7584124E+00
   3.2829036E-04   1.2538003E+05   -1.7578370E+00
   3.2980644E-04   1.2436882E+05   -1.7572615E+00
   3.3132952E-04   1.2336609E+05   -1.7566859E+00
   3.3285963E-04   1.2237178E+05   -1.7561102E+00
   3.3439681E-04   1.2138579E+05   -1.7555345E+00
   3.3594109E-04   1.2040807E+05   -1.7549587E+00
   3.3749250E-04   1.1943855E+05   -1.7543829E+00
   3.3905108E-04   1.1847714E+05   -1.7538070E+00
   3.4061685E-04   1.1752379E+05   -1.7532311E+00
   3.4218986E-04   1.1657841E+05   -1.7526551E+00
   3.4377013E-04   1.1564095E+05   -1.7520791E+00
   3.4535769E-04   1.1471133E+05   -1.7515031E+00
   3.4695259E-04   1.1378949E+05   -1.7509271E+00
   3.4855485E-04   1.1287535E+05   -1.7503511E+00
   3.5016452E-04   1.1196885E+05   -1.7497750E+00
   3.5178161E-04   1.1106993E+05   -1.7491990E+00
   3.5340618E-04   1.1017852E+05   -1.7486229E+00
   3.5503824E-04   1.0929455E+05   -1.7480469E+00
   3.5667785E-04   1.0841796E+05   -1.7474709E+00
   3.5832502E-04   1.0754869E+05   -1.7468949E+00
   3.5997981E-04   1.0668667E+05   -1.7463190E+00
   3.6164223E-04   1.0583184E+05   -1.7457431E+00
   3.6331233E-04   1.0498414E+05   -1.7451672E+00
   3.6499015E-04   1.0414351E+05   -1.7445914E+00
   3.6667571E-04   1.0330988E+05   -1.7440157E+00
   3.6836906E-04   1.0248319E+05   -1.7434400E+00
   3.7007022E-04   1.0166339E+05   -1.7428644E+00
   3.7177925E-04   1.0085042E+05   -1.7422888E+00
   3.7349616E-04   1.0004421E+05   -1.7417134E+00
   3.7522101E-04   9.9244709E+04   -1.7411380E+00
   3.7695382E-04   9.8451859E+04   -1.7405627E+00
   3.7869463E-04   9.7665602E+04   -1.7399875E+00
   3.8044348E-04   9.6885880E+04   -1.7394124E+00
   3.8220041E-04   9.6112639E+04   -1.7388375E+00
   3.8396545E-04   9.5345821E+04   -1.7382626E+00
   3.8573864E-04   9.4585371E+04   -1.7376879E+00
   3.8752002E-04   9.3831235E+04   -1.7371133E+00
   3.8930963E-04   9.3083358E+04   -1.7365388E+00
   3.9110750E-04   9.2341687E+04   -1.7359645E+00
   3.9291368E-04   9.1606167E+04   -1.7353903E+00
   3.9472820E-04   9.0876746E+04   -1.7348163E+00
   3.9655109E-04   9.0153372E+04   -1.7342425E+00
   3.9838241E-04   8.9435992E+04   -1.7336688E+00
   4.0022218E-04   8.8724555E+04   -1.7330952E+00
   4.0207045E-04   8.8019010E+04   -1.7325219E+00
   4.0392725E-04   8.7319306E+04   -1.7319487E+00
   4.0579263E-04   8.6625393E+04   -1.7313758E+00
   4.0766662E-04   8.5937222E+04   -1.7308030E+00
   4.0954927E-04   8.5254742E+04   -1.7302304E+00
   4.1144061E-04   8.4577905E+04   -1.7296580E+00
   4.1334068E-04   8.3906663E+04   -1.7290859E+00
   4.1524953E-04   8.3240968E+04   -1.7285140E+00
   4.1716720E-04   8.2580772E+04   -1.7279423E+00
   4.1909372E-04   8.1926027E+04   -1.7273708E+00
   4.2102914E-04   8.1276688E+04   -1.7267995E+00
   4.2297350E-04   8.0632707E+04   -1.7262285E+00
   4.2492683E-04   7.9994039E+04   -1.7256578E+00
   4.2688919E-04   7.9360639E+04   -1.7250873E+00
   4.2886061E-04   7.8732461E+04   -1.7245171E+00
   4.3084113E-04   7.8109460E+04   -1.7239471E+00
   4.3283080E-04   7.7491593E+04   -1.7233774E+00
   4.3482966E-04   7.6878815E+04   -1.7228080E+00
   4.3683775E-04   7.6271082E+04   -1.7222389E+00
   4.3885511E-04   7.5668353E+04   -1.7216700E+00
   4.4088179E-04   7.5070582E+04   -1.7211015E+00
   4.4291783E-04   7.4477729E+04   -1.7205333E+00
   4.4496327E-04   7.3889752E+04   -1.7199653E+00
   4.4701816E-04   7.3306608E+04   -1.7193977E+00
   4.4908253E-04   7.2728256E+04   -1.7188304E+00
   4.5115644E-04   7.2154656E+04   -1.7182634E+00
   4.5323993E-04   7.1585767E+04   -1.7176968E+00
   4.5533304E-04   7.1021549E+04   -1.7171305E+00
   4.5743582E-04   7.0461961E+04   -1.7165645E+00
   4.5954830E-04   6.9906965E+04   -1.7159989E+00
   4.6167054E-04   6.9356521E+04   -1.7154336E+00
   4.6380259E-04   6.8810590E+04   -1.7148687E+00
   4.6594448E-04   6.8269134E+04   -1.7143042E+00
   4.6809626E-04   6.7732114E+04   -1.7137400E+00
   4.7025797E-04   6.7199494E+04   -1.7131762E+00
   4.7242967E-04   6.6671235E+04   -1.7126128E+00
   4.7461140E-04   6.6147300E+04   -1.7120498E+00
   4.7680321E-04   6.5627653E+04   -1.7114871E+00
   4.7900514E-04   6.5112257E+04   -1.7109249E+00
   4.8121723E-04   6.4601076E+04   -1.7103631E+00
   4.8343954E-04   6.4094074E+04   -1.7098016E+00
   4.8567212E-04   6.3591215E+04   -1.7092406E+00
   4.8791500E-04   6.3092465E+04   -1.7086800E+00
   4.9016825E-04   6.2597788E+04   -1.7081199E+00
   4.9243189E-04   6.2107149E+04   -1.7075601E+00
   4.9470600E-04   6.1620515E+04   -1.7070008E+00
   4.9699060E-04   6.1137852E+04   -1.7064420E+00
   4.9928575E-04   6.0659125E+04   -1.7058836E+00
   5.0159151E-04   6.0184302E+04   -1.7053256E+00
   5.0390791E-04   5.9713349E+04   -1.7047681E+00
   5.0623501E-04   5.9246233E+04   -1.7042111E+00
   5.0857286E-04   5.8782922E+04   -1.7036545E+00
   5.1092150E-04   5.8323384E+04   -1.7030984E+00
   5.1328099E-04   5.7867587E+04   -1.7025428E+00
   5.1565137E-04   5.7415498E+04   -1.7019877E+00
   5.1803270E-04   5.6967087E+04   -1.7014330E+00
   5.2042503E-04   5.6522323E+04   -1.7008789E+00
   5.2282841E-04   5.6081174E+04   -1.7003253E+00
   5.2524289E-04   5.5643610E+04   -1.6997721E+00
   5.2766851E-04   5.5209601E+04   -1.6992195E+00
   5.3010534E-04   5.4779116E+04   -1.6986674E+00
   5.3255342E-04   5.4352126E+04   -1.6981158E+00
   5.3501281E-04   5.3928601E+04   -1.6975647E+00
   5.3748356E-04   5.3508513E+04   -1.6970142E+00
   5.3996571E-04   5.3091831E+04   -1.6964642E+00
   5.4245933E-04   5.2678528E+04   -1.6959147E+00
   5.4496446E-04   5.2268574E+04   -1.6953658E+00
   5.4748117E-04   5.1861942E+04   -1.6948175E+00
   5.5000949E-04   5.1458603E+04   -1.6942697E+00
   5.5254949E-04   5.1058530E+04   -1.6937224E+00
   5.5510123E-04   5.0661695E+04   -1.6931758E+00
   5.5766474E-04   5.0268070E+04   -1.6926296E+00
   5.6024010E-04   4.9877630E+04   -1.6920841E+00
   5.6282734E-04   4.9490346E+04   -1.6915392E+00
   5.6542654E-04   4.9106193E+04   -1.6909948E+00
   5.6803774E-04   4.8725143E+04   -1.6904510E+00
   5.7066099E-04   4.8347172E+04   -1.6899079E+00
   5.7329637E-04   4.7972253E+04   -1.6893653E+00
   5.7594391E-04   4.7600360E+04   -1.6888233E+00
   5.7860368E-04   4.7231468E+04   -1.6882819E+00
   5.8127573E-04   4.6865551E+04   -1.6877412E+00
   5.8396012E-04   4.6502585E+04   -1.6872011E+00
   5.8665691E-04   4.6142545E+04   -1.6866616E+00
   5.8936616E-04   4.5785407E+04   -1.6861227E+00
   5.9208791E-04   4.5431145E+04   -1.6855844E+00
   5.9482223E-04   4.5079736E+04   -1.6850468E+00
   5.9756919E-04   4.4731156E+04   -1.6845098E+00
   6.0032882E-04   4.4385381E+04   -1.6839735E+00
   6.0310120E-04   4.4042388E+04   -1.6834379E+00
   6.0588639E-04   4.3702153E+04   -1.6829028E+00
   6.0868443E-04   4.3364653E+04   -1.6823685E+00
   6.1149540E-04   4.3029866E+04   -1.6818348E+00
   6.1431935E-04   4.2697768E+04   -1.6813018E+00
   6.1715634E-04   4.2368338E+04   -1.6807694E+00
   6.2000644E-04   4.2041552E+04   -1.6802377E+00
   6.2286969E-04   4.1717388E+04   -1.6797068E+00
