#        a       HoverH0(a)       dlogHdloga_of_a(a)
   1.0000000E-04   1.0935527E+06   -1.8969461E+00
   1.0046181E-04   1.0840375E+06   -1.8965686E+00
   1.0092575E-04   1.0746070E+06   -1.8961901E+00
   1.0139184E-04   1.0652603E+06   -1.8958106E+00
   1.0186008E-04   1.0559968E+06   -1.8954301E+00
   1.0233048E-04   1.0468157E+06   -1.8950485E+00
   1.0280305E-04   1.0377163E+06   -1.8946659E+00
   1.0327781E-04   1.0286977E+06   -1.8942823E+00
   1.0375475E-04   1.0197594E+06   -1.8938977E+00
   1.0423390E-04   1.0109005E+06   -1.8935120E+00
   1.0471527E-04   1.0021203E+06   -1.8931254E+00
   1.0519885E-04   9.9341821E+05   -1.8927377E+00
   1.0568467E-04   9.8479342E+05   -1.8923490E+00
   1.0617274E-04   9.7624525E+05   -1.8919592E+00
   1.0666305E-04   9.6777303E+05   -1.8915685E+00
   1.0715563E-04   9.5937606E+05   -1.8911767E+00
   1.0765049E-04   9.5105367E+05   -1.8907839E+00
   1.0814763E-04   9.4280518E+05   -1.8903901E+00
   1.0864707E-04   9.3462993E+05   -1.8899952E+00
   1.0914881E-04   9.2652726E+05   -1.8895994E+00
   1.0965287E-04   9.1849650E+05   -1.8892025E+00
   1.1015926E-04   9.1053703E+05   -1.8888046E+00
   1.1066799E-04   9.0264818E+05   -1.8884057E+00
   1.1117906E-04   8.9482933E+05   -1.8880057E+00
   1.1169250E-04   8.8707984E+05   -1.8876048E+00
   1.1220831E-04   8.7939909E+05   -1.8872028E+00
   1.1272650E-04   8.7178646E+05   -1.8867998E+00
   1.1324708E-04   8.6424134E+05   -1.8863958E+00
   1.1377007E-04   8.5676312E+05   -1.8859908E+00
   1.1429547E-04   8.4935120E+05   -1.8855847E+00
   1.1482330E-04   8.4200497E+05   -1.8851777E+00
   1.1535356E-04   8.3472385E+05   -1.8847696E+00
   1.1588628E-04   8.2750725E+05   -1.8843605E+00
   1.1642145E-04   8.2035459E+05   -1.8839504E+00
   1.1695910E-04   8.1326529E+05   -1.8835393E+00
   1.1749923E-04   8.0623878E+05   -1.8831271E+00
   1.1804185E-04   7.9927450E+05   -1.8827140E+00
   1.1858698E-04   7.9237189E+05   -1.8822998E+00
   1.1913463E-04   7.8553039E+05   -1.8818847E+00
   1.1968481E-04   7.7874946E+05   -1.8814685E+00
   1.2023752E-04   7.7202854E+05   -1.8810513E+00
   1.2079279E-04   7.6536710E+05   -1.8806331E+00
   1.2135063E-04   7.5876460E+05   -1.8802139E+00
   1.2191104E-04   7.5222051E+05   -1.8797937E+00
   1.2247403E-04   7.4573431E+05   -1.8793725E+00
   1.2303963E-04   7.3930548E+05   -1.8789503E+00
   1.2360784E-04   7.3293349E+05   -1.8785270E+00
   1.2417868E-04   7.2661784E+05   -1.8781028E+00
   1.2475215E-04   7.2035802E+05   -1.8776776E+00
   1.2532826E-04   7.1415354E+05   -1.8772513E+00
   1.2590704E-04   7.0800388E+05   -1.8768241E+00
   1.2648850E-04   7.0190856E+05   -1.8763958E+00
   1.2707263E-04   6.9586709E+05   -1.8759666E+00
   1.2765947E-04   6.8987899E+05   -1.8755364E+00
   1.2824901E-04   6.8394378E+05   -1.8751051E+00
   1.2884128E-04   6.7806097E+05   -1.8746729E+00
   1.2943628E-04   6.7223011E+05   -1.8742397E+00
   1.3003403E-04   6.6645072E+05   -1.8738055E+00
   1.3063454E-04   6.6072234E+05   -1.8733703E+00
   1.3123783E-04   6.5504451E+05   -1.8729341E+00
   1.3184390E-04   6.4941678E+05   -1.8724969E+00
   1.3245277E-04   6.4383870E+05   -1.8720587E+00
   1.3306445E-04   6.3830982E+05   -1.8716195E+00
   1.3367895E-04   6.3282970E+05   -1.8711794E+00
   1.3429630E-04   6.2739791E+05   -1.8707382E+00
   1.3491649E-04   6.2201400E+05   -1.8702961E+00
   1.3553955E-04   6.1667755E+05   -1.8698530E+00
   1.3616548E-04   6.1138813E+05   -1.8694090E+00
   1.3679431E-04   6.0614533E+05   -1.8689639E+00
   1.3742604E-04   6.0094872E+05   -1.8685179E+00
   1.3806069E-04   5.9579788E+05   -1.8680709E+00
   1.3869827E-04   5.9069241E+05   -1.8676229E+00
   1.3933879E-04   5.8563190E+05   -1.8671739E+00
   1.3998227E-04   5.8061595E+05   -1.8667240E+00
   1.4062872E-04   5.7564415E+05   -1.8662731E+00
   1.4127816E-04   5.7071611E+05   -1.8658212E+00
   1.4193060E-04   5.6583144E+05   -1.8653684E+00
   1.4258605E-04   5.6098975E+05   -1.8649146E+00
   1.4324453E-04   5.5619065E+05   -1.8644599E+00
   1.4390605E-04   5.5143377E+05   -1.8640041E+00
   1.4457062E-04   5.4671872E+05   -1.8635475E+00
   1.4523826E-04   5.4204512E+05   -1.8630898E+00
   1.4590899E-04   5.3741261E+05   -1.8626312E+00
   1.4658281E-04   5.3282083E+05   -1.8621717E+00
   1.4725974E-04   5.2826939E+05   -1.8617112E+00
   1.4793981E-04   5.2375794E+05   -1.8612498E+00
   1.4862301E-04   5.1928613E+05   -1.8607874E+00
   1.4930936E-04   5.1485359E+05   -1.8603241E+00
   1.4999889E-04   5.1045999E+05   -1.8598598E+00
   1.5069160E-04   5.0610495E+05   -1.8593946E+00
   1.5138751E-04   5.0178815E+05   -1.8589284E+00
   1.5208663E-04   4.9750924E+05   -1.8584613E+00
   1.5278899E-04   4.9326788E+05   -1.8579933E+00
   1.5349458E-04   4.8906374E+05   -1.8575243E+00
   1.5420343E-04   4.8489648E+05   -1.8570544E+00
   1.5491556E-04   4.8076576E+05   -1.8565836E+00
   1.5563098E-04   4.7667127E+05   -1.8561119E+00
   1.5634970E-04   4.7261268E+05   -1.8556392E+00
   1.5707174E-04   4.6858967E+05   -1.8551656E+00
   1.5779711E-04   4.6460192E+05   -1.8546911E+00
   1.5852584E-04   4.6064911E+05   -1.8542157E+00
   1.5925792E-04   4.5673093E+05   -1.8537393E+00
   1.5999339E-04   4.5284708E+05   -1.8532621E+00
   1.6073226E-04   4.4899724E+05   -1.8527839E+00
   1.6147454E-04   4.4518111E+05   -1.8523049E+00
   1.6222024E-04   4.4139839E+05   -1.8518249E+00
   1.6296939E-04   4.3764878E+05   -1.8513440E+00
   1.6372200E-04   4.3393199E+05   -1.8508622E+00
   1.6447809E-04   4.3024771E+05   -1.8503796E+00
   1.6523767E-04   4.2659567E+05   -1.8498960E+00
   1.6600075E-04   4.2297557E+05   -1.8494115E+00
   1.6676736E-04   4.1938713E+05   -1.8489262E+00
   1.6753751E-04   4.1583006E+05   -1.8484400E+00
   1.6831122E-04   4.1230409E+05   -1.8479529E+00
   1.6908849E-04   4.0880893E+05   -1.8474649E+00
   1.6986936E-04   4.0534431E+05   -1.8469760E+00
   1.7065384E-04   4.0190997E+05   -1.8464862E+00
   1.7144193E-04   3.9850561E+05   -1.8459956E+00
   1.7223367E-04   3.9513099E+05   -1.8455041E+00
   1.7302906E-04   3.9178584E+05   -1.8450118E+00
   1.7382813E-04   3.8846989E+05   -1.8445186E+00
   1.7463089E-04   3.8518288E+05   -1.8440245E+00
   1.7543735E-04   3.8192455E+05   -1.8435295E+00
   1.7624754E-04   3.7869465E+05   -1.8430338E+00
   1.7706147E-04   3.7549292E+05   -1.8425371E+00
   1.7787916E-04   3.7231911E+05   -1.8420396E+00
   1.7870062E-04   3.6917298E+05   -1.8415413E+00
   1.7952588E-04   3.6605427E+05   -1.8410421E+00
   1.8035495E-04   3.6296275E+05   -1.8405421E+00
   1.8118785E-04   3.5989816E+05   -1.8400413E+00
   1.8202459E-04   3.5686028E+05   -1.8395396E+00
   1.8286520E-04   3.5384885E+05   -1.8390371E+00
   1.8370969E-04   3.5086365E+05   -1.8385337E+00
   1.8455808E-04   3.4790445E+05   -1.8380296E+00
   1.8541039E-04   3.4497100E+05   -1.8375246E+00
   1.8626663E-04   3.4206308E+05   -1.8370188E+00
   1.8712683E-04   3.3918047E+05   -1.8365122E+00
   1.8799100E-04   3.3632293E+05   -1.8360048E+00
   1.8885917E-04   3.3349025E+05   -1.8354966E+00
   1.8973134E-04   3.3068220E+05   -1.8349876E+00
   1.9060754E-04   3.2789857E+05   -1.8344777E+00
   1.9148778E-04   3.2513913E+05   -1.8339671E+00
   1.9237209E-04   3.2240368E+05   -1.8334557E+00
   1.9326049E-04   3.1969199E+05   -1.8329435E+00
   1.9415299E-04   3.1700385E+05   -1.8324306E+00
   1.9504960E-04   3.1433907E+05   -1.8319168E+00
   1.9595036E-04   3.1169742E+05   -1.8314023E+00
   1.9685528E-04   3.0907871E+05   -1.8308870E+00
   1.9776438E-04   3.0648273E+05   -1.8303709E+00
   1.9867768E-04   3.0390927E+05   -1.8298541E+00
   1.9959519E-04   3.0135814E+05   -1.8293365E+00
   2.0051694E-04   2.9882914E+05   -1.8288181E+00
   2.0144295E-04   2.9632207E+05   -1.8282990E+00
   2.0237324E-04   2.9383673E+05   -1.8277791E+00
   2.0330782E-04   2.9137294E+05   -1.8272585E+00
   2.0424671E-04   2.8893050E+05   -1.8267372E+00
   2.0518995E-04   2.8650923E+05   -1.8262151E+00
   2.0613754E-04   2.8410893E+05   -1.8256923E+00
   2.0708950E-04   2.8172942E+05   -1.8251687E+00
   2.0804586E-04   2.7937051E+05   -1.8246444E+00
   2.0900664E-04   2.7703202E+05   -1.8241194E+00
   2.0997185E-04   2.7471377E+05   -1.8235937E+00
   2.1094152E-04   2.7241558E+05   -1.8230673E+00
   2.1191567E-04   2.7013727E+05   -1.8225401E+00
   2.1289432E-04   2.6787867E+05   -1.8220123E+00
   2.1387749E-04   2.6563960E+05   -1.8214837E+00
   2.1486520E-04   2.6341989E+05   -1.8209545E+00
   2.1585747E-04   2.6121936E+05   -1.8204245E+00
   2.1685432E-04   2.5903784E+05   -1.8198939E+00
   2.1785578E-04   2.5687518E+05   -1.8193626E+00
   2.1886186E-04   2.5473119E+05   -1.8188306E+00
   2.1987259E-04   2.5260572E+05   -1.8182979E+00
   2.2088798E-04   2.5049860E+05   -1.8177646E+00
   2.2190807E-04   2.4840966E+05   -1.8172306E+00
   2.2293286E-04   2.4633875E+05   -1.8166959E+00
   2.2396239E-04   2.4428571E+05   -1.8161606E+00
   2.2499667E-04   2.4225038E+05   -1.8156246E+00
   2.2603573E-04   2.4023260E+05   -1.8150880E+00
   2.2707958E-04   2.3823221E+05   -1.8145507E+00
   2.2812826E-04   2.3624907E+05   -1.8140128E+00
   2.2918178E-04   2.3428301E+05   -1.8134742E+00
   2.3024017E-04   2.3233390E+05   -1.8129351E+00
   2.3130344E-04   2.3040157E+05   -1.8123952E+00
   2.3237162E-04   2.2848588E+05   -1.8118548E+00
   2.3344474E-04   2.2658669E+05   -1.8113138E+00
   2.3452281E-04   2.2470384E+05   -1.8107721E+00
   2.3560586E-04   2.2283719E+05   -1.8102298E+00
   2.3669392E-04   2.2098660E+05   -1.8096870E+00
   2.3778699E-04   2.1915193E+05   -1.8091435E+00
   2.3888512E-04   2.1733304E+05   -1.8085995E+00
   2.3998831E-04   2.1552978E+05   -1.8080548E+00
   2.4109661E-04   2.1374202E+05   -1.8075096E+00
   2.4221001E-04   2.1196963E+05   -1.8069638E+00
   2.4332857E-04   2.1021246E+05   -1.8064174E+00
   2.4445228E-04   2.0847038E+05   -1.8058704E+00
   2.4558119E-04   2.0674326E+05   -1.8053229E+00
   2.4671531E-04   2.0503096E+05   -1.8047748E+00
   2.4785467E-04   2.0333336E+05   -1.8042262E+00
   2.4899928E-04   2.0165033E+05   -1.8036770E+00
   2.5014919E-04   1.9998173E+05   -1.8031273E+00
   2.5130440E-04   1.9832745E+05   -1.8025770E+00
   2.5246495E-04   1.9668734E+05   -1.8020263E+00
   2.5363086E-04   1.9506130E+05   -1.8014749E+00
   2.5480216E-04   1.9344919E+05   -1.8009231E+00
   2.5597886E-04   1.9185089E+05   -1.8003707E+00
   2.5716100E-04   1.9026628E+05   -1.7998178E+00
   2.5834859E-04   1.8869524E+05   -1.7992644E+00
   2.5954168E-04   1.8713765E+05   -1.7987105E+00
   2.6074027E-04   1.8559339E+05   -1.7981562E+00
   2.6194439E-04   1.8406234E+05   -1.7976013E+00
   2.6315408E-04   1.8254439E+05   -1.7970459E+00
   2.6436935E-04   1.8103943E+05   -1.7964901E+00
   2.6559024E-04   1.7954733E+05   -1.7959337E+00
   2.6681676E-04   1.7806798E+05   -1.7953769E+00
   2.6804895E-04   1.7660128E+05   -1.7948197E+00
   2.6928683E-04   1.7514711E+05   -1.7942619E+00
   2.7053042E-04   1.7370535E+05   -1.7937037E+00
   2.7177976E-04   1.7227591E+05   -1.7931451E+00
   2.7303487E-04   1.7085868E+05   -1.7925860E+00
   2.7429577E-04   1.6945353E+05   -1.7920265E+00
   2.7556250E-04   1.6806038E+05   -1.7914666E+00
   2.7683507E-04   1.6667911E+05   -1.7909062E+00
   2.7811353E-04   1.6530962E+05   -1.7903454E+00
   2.7939788E-04   1.6395181E+05   -1.7897841E+00
   2.8068817E-04   1.6260557E+05   -1.7892225E+00
   2.8198442E-04   1.6127080E+05   -1.7886605E+00
   2.8328665E-04   1.5994741E+05   -1.7880980E+00
   2.8459490E-04   1.5863528E+05   -1.7875352E+00
   2.8590919E-04   1.5733433E+05   -1.7869720E+00
   2.8722955E-04   1.5604445E+05   -1.7864083E+00
   2.8855600E-04   1.5476554E+05   -1.7858443E+00
   2.8988859E-04   1.5349752E+05   -1.7852800E+00
   2.9122732E-04   1.5224028E+05   -1.7847152E+00
   2.9257224E-04   1.5099374E+05   -1.7841501E+00
   2.9392337E-04   1.4975779E+05   -1.7835847E+00
   2.9528074E-04   1.4853234E+05   -1.7830189E+00
   2.9664438E-04   1.4731731E+05   -1.7824527E+00
   2.9801431E-04   1.4611259E+05   -1.7818863E+00
   2.9939057E-04   1.4491811E+05   -1.7813194E+00
   3.0077319E-04   1.4373377E+05   -1.7807523E+00
   3.0216219E-04   1.4255948E+05   -1.7801848E+00
   3.0355761E-04   1.4139515E+05   -1.7796170E+00
   3.0495947E-04   1.4024070E+05   -1.7790489E+00
   3.0636780E-04   1.3909604E+05   -1.7784805E+00
   3.0778264E-04   1.3796108E+05   -1.7779118E+00
   3.0920401E-04   1.3683574E+05   -1.7773428E+00
   3.1063195E-04   1.3571994E+05   -1.7767736E+00
   3.1206648E-04   1.3461359E+05   -1.7762040E+00
   3.1350764E-04   1.3351660E+05   -1.7756341E+00
   3.1495545E-04   1.3242891E+05   -1.7750640E+00
   3.1640994E-04   1.3135042E+05   -1.7744937E+00
   3.1787116E-04   1.3028106E+05   -1.7739230E+00
   3.1933912E-04   1.2922074E+05   -1.7733521E+00
   3.2081386E-04   1.2816939E+05   -1.7727810E+00
   3.2229541E-04   1.2712693E+05   -1.7722096E+00
   3.2378381E-04   1.2609328E+05   -1.7716380E+00
   3.2527908E-04   1.2506836E+05   -1.7710662E+00
   3.2678125E-04   1.2405210E+05   -1.7704941E+00
   3.2829036E-04   1.2304443E+05   -1.7699219E+00
   3.2980644E-04   1.2204526E+05   -1.7693494E+00
   3.3132952E-04   1.2105452E+05   -1.7687767E+00
   3.3285963E-04   1.2007214E+05   -1.7682038E+00
   3.3439681E-04   1.1909805E+05   -1.7676307E+00
   3.3594109E-04   1.1813217E+05   -1.7670574E+00
   3.3749250E-04   1.1717444E+05   -1.7664840E+00
   3.3905108E-04   1.1622478E+05   -1.7659104E+00
   3.4061685E-04   1.1528312E+05   -1.7653366E+00
   3.4218986E-04   1.1434939E+05   -1.7647626E+00
   3.4377013E-04   1.1342352E+05   -1.7641885E+00
   3.4535769E-04   1.1250545E+05   -1.7636142E+00
   3.4695259E-04   1.1159511E+05   -1.7630398E+00
   3.4855485E-04   1.1069242E+05   -1.7624653E+00
   3.5016452E-04   1.0979732E+05   -1.7618906E+00
   3.5178161E-04   1.0890976E+05   -1.7613158E+00
   3.5340618E-04   1.0802965E+05   -1.7607409E+00
   3.5503824E-04   1.0715694E+05   -1.7601658E+00
   3.5667785E-04   1.0629156E+05   -1.7595907E+00
   3.5832502E-04   1.0543345E+05   -1.7590154E+00
   3.5997981E-04   1.0458254E+05   -1.7584401E+00
   3.6164223E-04   1.0373878E+05   -1.7578646E+00
   3.6331233E-04   1.0290210E+05   -1.7572891E+00
   3.6499015E-04   1.0207243E+05   -1.7567135E+00
   3.6667571E-04   1.0124973E+05   -1.7561378E+00
   3.6836906E-04   1.0043392E+05   -1.7555621E+00
   3.7007022E-04   9.9624946E+04   -1.7549863E+00
   3.7177925E-04   9.8822753E+04   -1.7544104E+00
   3.7349616E-04   9.8027279E+04   -1.7538345E+00
   3.7522101E-04   9.7238466E+04   -1.7532586E+00
   3.7695382E-04   9.6456257E+04   -1.7526826E+00
   3.7869463E-04   9.5680594E+04   -1.7521066E+00
   3.8044348E-04   9.4911420E+04   -1.7515305E+00
   3.8220041E-04   9.4148680E+04   -1.7509545E+00
   3.8396545E-04   9.3392317E+04   -1.7503784E+00
   3.8573864E-04   9.2642277E+04   -1.7498024E+00
   3.8752002E-04   9.1898504E+04   -1.7492263E+00
   3.8930963E-04   9.1160944E+04   -1.7486502E+00
   3.9110750E-04   9.0429544E+04   -1.7480742E+00
   3.9291368E-04   8.9704250E+04   -1.7474982E+00
   3.9472820E-04   8.8985010E+04   -1.7469222E+00
   3.9655109E-04   8.8271770E+04   -1.7463462E+00
   3.9838241E-04   8.7564480E+04   -1.7457703E+00
   4.0022218E-04   8.6863087E+04   -1.7451944E+00
   4.0207045E-04   8.6167542E+04   -1.7446185E+00
   4.0392725E-04   8.5477792E+04   -1.7440428E+00
   4.0579263E-04   8.4793789E+04   -1.7434670E+00
   4.0766662E-04   8.4115483E+04   -1.7428914E+00
   4.0954927E-04   8.3442823E+04   -1.7423158E+00
   4.1144061E-04   8.2775763E+04   -1.7417403E+00
   4.1334068E-04   8.2114252E+04   -1.7411649E+00
   4.1524953E-04   8.1458245E+04   -1.7405896E+00
   4.1716720E-04   8.0807692E+04   -1.7400144E+00
   4.1909372E-04   8.0162547E+04   -1.7394393E+00
   4.2102914E-04   7.9522763E+04   -1.7388643E+00
   4.2297350E-04   7.8888295E+04   -1.7382894E+00
   4.2492683E-04   7.8259096E+04   -1.7377146E+00
   4.2688919E-04   7.7635121E+04   -1.7371400E+00
   4.2886061E-04   7.7016325E+04   -1.7365655E+00
   4.3084113E-04   7.6402663E+04   -1.7359912E+00
   4.3283080E-04   7.5794092E+04   -1.7354169E+00
   4.3482966E-04   7.5190567E+04   -1.7348429E+00
   4.3683775E-04   7.4592045E+04   -1.7342690E+00
   4.3885511E-04   7.3998482E+04   -1.7336953E+00
   4.4088179E-04   7.3409837E+04   -1.7331217E+00
   4.4291783E-04   7.2826067E+04   -1.7325483E+00
   4.4496327E-04   7.2247130E+04   -1.7319751E+00
   4.4701816E-04   7.1672985E+04   -1.7314021E+00
   4.4908253E-04   7.1103590E+04   -1.7308293E+00
   4.5115644E-04   7.0538904E+04   -1.7302567E+00
   4.5323993E-04   6.9978888E+04   -1.7296843E+00
   4.5533304E-04   6.9423501E+04   -1.7291121E+00
   4.5743582E-04   6.8872703E+04   -1.7285401E+00
   4.5954830E-04   6.8326456E+04   -1.7279684E+00
   4.6167054E-04   6.7784719E+04   -1.7273969E+00
   4.6380259E-04   6.7247454E+04   -1.7268256E+00
   4.6594448E-04   6.6714624E+04   -1.7262545E+00
   4.6809626E-04   6.6186189E+04   -1.7256838E+00
   4.7025797E-04   6.5662113E+04   -1.7251132E+00
   4.7242967E-04   6.5142357E+04   -1.7245429E+00
   4.7461140E-04   6.4626886E+04   -1.7239729E+00
   4.7680321E-04   6.4115662E+04   -1.7234032E+00
   4.7900514E-04   6.3608648E+04   -1.7228337E+00
   4.8121723E-04   6.3105810E+04   -1.7222646E+00
   4.8343954E-04   6.2607111E+04   -1.7216957E+00
   4.8567212E-04   6.2112516E+04   -1.7211271E+00
   4.8791500E-04   6.1621989E+04   -1.7205588E+00
   4.9016825E-04   6.1135496E+04   -1.7199908E+00
   4.9243189E-04   6.0653003E+04   -1.7194232E+00
   4.9470600E-04   6.0174475E+04   -1.7188558E+00
   4.9699060E-04   5.9699878E+04   -1.7182888E+00
   4.9928575E-04   5.9229179E+04   -1.7177221E+00
   5.0159151E-04   5.8762345E+04   -1.7171557E+00
   5.0390791E-04   5.8299342E+04   -1.7165897E+00
   5.0623501E-04   5.7840138E+04   -1.7160241E+00
   5.0857286E-04   5.7384701E+04   -1.7154587E+00
   5.1092150E-04   5.6932998E+04   -1.7148938E+00
   5.1328099E-04   5.6484998E+04   -1.7143292E+00
   5.1565137E-04   5.6040669E+04   -1.7137650E+00
   5.1803270E-04   5.5599979E+04   -1.7132011E+00
   5.2042503E-04   5.5162898E+04   -1.7126376E+00
   5.2282841E-04   5.4729396E+04   -1.7120746E+00
   5.2524289E-04   5.4299440E+04   -1.7115119E+00
   5.2766851E-04   5.3873002E+04   -1.7109496E+00
   5.3010534E-04   5.3450052E+04   -1.7103877E+00
   5.3255342E-04   5.3030559E+04   -1.7098262E+00
   5.3501281E-04   5.2614495E+04   -1.7092651E+00
   5.3748356E-04   5.2201830E+04   -1.7087045E+00
   5.3996571E-04   5.1792535E+04   -1.7081443E+00
   5.4245933E-04   5.1386582E+04   -1.7075845E+00
   5.4496446E-04   5.0983942E+04   -1.7070251E+00
   5.4748117E-04   5.0584588E+04   -1.7064662E+00
   5.5000949E-04   5.0188490E+04   -1.7059078E+00
   5.5254949E-04   4.9795623E+04   -1.7053497E+00
   5.5510123E-04   4.9405958E+04   -1.7047922E+00
   5.5766474E-04   4.9019467E+04   -1.7042351E+00
   5.6024010E-04   4.8636126E+04   -1.7036785E+00
   5.6282734E-04   4.8255905E+04   -1.7031223E+00
   5.6542654E-04   4.7878780E+04   -1.7025666E+00
   5.6803774E-04   4.7504723E+04   -1.7020114E+00
   5.7066099E-04   4.7133709E+04   -1.7014567E+00
   5.7329637E-04   4.6765713E+04   -1.7009025E+00
   5.7594391E-04   4.6400708E+04   -1.7003488E+00
   5.7860368E-04   4.6038669E+04   -1.6997956E+00
   5.8127573E-04   4.5679572E+04   -1.6992429E+00
   5.8396012E-04   4.5323390E+04   -1.6986908E+00
   5.8665691E-04   4.4970101E+04   -1.6981391E+00
   5.8936616E-04   4.4619678E+04   -1.6975880E+00
   5.9208791E-04   4.4272099E+04   -1.6970374E+00
   5.9482223E-04   4.3927338E+04   -1.6964873E+00
   5.9756919E-04   4.3585373E+04   -1.6959378E+00
   6.0032882E-04   4.3246179E+04   -1.6953888E+00
   6.0310120E-04   4.2909734E+04   -1.6948404E+00
   6.0588639E-04   4.2576013E+04   -1.6942925E+00
   6.0868443E-04   4.2244994E+04   -1.6937452E+00
   6.1149540E-04   4.1916655E+04   -1.6931985E+00
   6.1431935E-04   4.1590973E+04   -1.6926523E+00
   6.1715634E-04   4.1267924E+04   -1.6921067E+00
   6.2000644E-04   4.0947488E+04   -1.6915617E+00
   6.2286969E-04   4.0629642E+04   -1.6910173E+00
