#        a       HoverH0(a)       dlogHdloga_of_a(a)
   1.0000000E-04   1.1949767E+06   -1.8746718E+00
   1.0046181E-04   1.1847007E+06   -1.8742385E+00
   1.0092575E-04   1.1745154E+06   -1.8738043E+00
   1.0139184E-04   1.1644200E+06   -1.8733691E+00
   1.0186008E-04   1.1544138E+06   -1.8729329E+00
   1.0233048E-04   1.1444958E+06   -1.8724957E+00
   1.0280305E-04   1.1346653E+06   -1.8720576E+00
   1.0327781E-04   1.1249215E+06   -1.8716184E+00
   1.0375475E-04   1.1152637E+06   -1.8711783E+00
   1.0423390E-04   1.1056910E+06   -1.8707372E+00
   1.0471527E-04   1.0962027E+06   -1.8702950E+00
   1.0519885E-04   1.0867980E+06   -1.8698520E+00
   1.0568467E-04   1.0774763E+06   -1.8694079E+00
   1.0617274E-04   1.0682366E+06   -1.8689628E+00
   1.0666305E-04   1.0590784E+06   -1.8685168E+00
   1.0715563E-04   1.0500009E+06   -1.8680698E+00
   1.0765049E-04   1.0410033E+06   -1.8676218E+00
   1.0814763E-04   1.0320849E+06   -1.8671729E+00
   1.0864707E-04   1.0232451E+06   -1.8667230E+00
   1.0914881E-04   1.0144831E+06   -1.8662721E+00
   1.0965287E-04   1.0057982E+06   -1.8658202E+00
   1.1015926E-04   9.9718974E+05   -1.8653674E+00
   1.1066799E-04   9.8865702E+05   -1.8649136E+00
   1.1117906E-04   9.8019936E+05   -1.8644589E+00
   1.1169250E-04   9.7181610E+05   -1.8640032E+00
   1.1220831E-04   9.6350655E+05   -1.8635465E+00
   1.1272650E-04   9.5527007E+05   -1.8630889E+00
   1.1324708E-04   9.4710600E+05   -1.8626303E+00
   1.1377007E-04   9.3901369E+05   -1.8621708E+00
   1.1429547E-04   9.3099250E+05   -1.8617103E+00
   1.1482330E-04   9.2304178E+05   -1.8612489E+00
   1.1535356E-04   9.1516091E+05   -1.8607865E+00
   1.1588628E-04   9.0734927E+05   -1.8603232E+00
   1.1642145E-04   8.9960622E+05   -1.8598589E+00
   1.1695910E-04   8.9193116E+05   -1.8593937E+00
   1.1749923E-04   8.8432348E+05   -1.8589275E+00
   1.1804185E-04   8.7678257E+05   -1.8584605E+00
   1.1858698E-04   8.6930784E+05   -1.8579924E+00
   1.1913463E-04   8.6189869E+05   -1.8575235E+00
   1.1968481E-04   8.5455453E+05   -1.8570536E+00
   1.2023752E-04   8.4727480E+05   -1.8565828E+00
   1.2079279E-04   8.4005890E+05   -1.8561111E+00
   1.2135063E-04   8.3290627E+05   -1.8556384E+00
   1.2191104E-04   8.2581634E+05   -1.8551648E+00
   1.2247403E-04   8.1878855E+05   -1.8546903E+00
   1.2303963E-04   8.1182235E+05   -1.8542149E+00
   1.2360784E-04   8.0491717E+05   -1.8537386E+00
   1.2417868E-04   7.9807249E+05   -1.8532613E+00
   1.2475215E-04   7.9128775E+05   -1.8527832E+00
   1.2532826E-04   7.8456241E+05   -1.8523041E+00
   1.2590704E-04   7.7789596E+05   -1.8518242E+00
   1.2648850E-04   7.7128786E+05   -1.8513433E+00
   1.2707263E-04   7.6473759E+05   -1.8508615E+00
   1.2765947E-04   7.5824464E+05   -1.8503789E+00
   1.2824901E-04   7.5180848E+05   -1.8498953E+00
   1.2884128E-04   7.4542862E+05   -1.8494109E+00
   1.2943628E-04   7.3910456E+05   -1.8489256E+00
   1.3003403E-04   7.3283578E+05   -1.8484393E+00
   1.3063454E-04   7.2662180E+05   -1.8479522E+00
   1.3123783E-04   7.2046213E+05   -1.8474643E+00
   1.3184390E-04   7.1435629E+05   -1.8469754E+00
   1.3245277E-04   7.0830379E+05   -1.8464857E+00
   1.3306445E-04   7.0230415E+05   -1.8459951E+00
   1.3367895E-04   6.9635691E+05   -1.8455036E+00
   1.3429630E-04   6.9046159E+05   -1.8450112E+00
   1.3491649E-04   6.8461774E+05   -1.8445180E+00
   1.3553955E-04   6.7882490E+05   -1.8440240E+00
   1.3616548E-04   6.7308260E+05   -1.8435291E+00
   1.3679431E-04   6.6739041E+05   -1.8430333E+00
   1.3742604E-04   6.6174786E+05   -1.8425367E+00
   1.3806069E-04   6.5615453E+05   -1.8420392E+00
   1.3869827E-04   6.5060996E+05   -1.8415409E+00
   1.3933879E-04   6.4511372E+05   -1.8410417E+00
   1.3998227E-04   6.3966539E+05   -1.8405417E+00
   1.4062872E-04   6.3426454E+05   -1.8400409E+00
   1.4127816E-04   6.2891074E+05   -1.8395392E+00
   1.4193060E-04   6.2360357E+05   -1.8390367E+00
   1.4258605E-04   6.1834262E+05   -1.8385334E+00
   1.4324453E-04   6.1312748E+05   -1.8380293E+00
   1.4390605E-04   6.0795773E+05   -1.8375243E+00
   1.4457062E-04   6.0283299E+05   -1.8370185E+00
   1.4523826E-04   5.9775283E+05   -1.8365119E+00
   1.4590899E-04   5.9271687E+05   -1.8360045E+00
   1.4658281E-04   5.8772471E+05   -1.8354963E+00
   1.4725974E-04   5.8277596E+05   -1.8349873E+00
   1.4793981E-04   5.7787024E+05   -1.8344775E+00
   1.4862301E-04   5.7300716E+05   -1.8339669E+00
   1.4930936E-04   5.6818635E+05   -1.8334556E+00
   1.4999889E-04   5.6340742E+05   -1.8329434E+00
   1.5069160E-04   5.5867000E+05   -1.8324304E+00
   1.5138751E-04   5.5397373E+05   -1.8319167E+00
   1.5208663E-04   5.4931824E+05   -1.8314022E+00
   1.5278899E-04   5.4470316E+05   -1.8308869E+00
   1.5349458E-04   5.4012814E+05   -1.8303708E+00
   1.5420343E-04   5.3559283E+05   -1.8298540E+00
   1.5491556E-04   5.3109686E+05   -1.8293364E+00
   1.5563098E-04   5.2663989E+05   -1.8288181E+00
   1.5634970E-04   5.2222156E+05   -1.8282990E+00
   1.5707174E-04   5.1784155E+05   -1.8277792E+00
   1.5779711E-04   5.1349950E+05   -1.8272586E+00
   1.5852584E-04   5.0919509E+05   -1.8267372E+00
   1.5925792E-04   5.0492796E+05   -1.8262152E+00
   1.5999339E-04   5.0069781E+05   -1.8256924E+00
   1.6073226E-04   4.9650429E+05   -1.8251688E+00
   1.6147454E-04   4.9234707E+05   -1.8246446E+00
   1.6222024E-04   4.8822585E+05   -1.8241196E+00
   1.6296939E-04   4.8414030E+05   -1.8235939E+00
   1.6372200E-04   4.8009010E+05   -1.8230675E+00
   1.6447809E-04   4.7607494E+05   -1.8225404E+00
   1.6523767E-04   4.7209450E+05   -1.8220125E+00
   1.6600075E-04   4.6814849E+05   -1.8214840E+00
   1.6676736E-04   4.6423658E+05   -1.8209548E+00
   1.6753751E-04   4.6035849E+05   -1.8204249E+00
   1.6831122E-04   4.5651392E+05   -1.8198942E+00
   1.6908849E-04   4.5270255E+05   -1.8193630E+00
   1.6986936E-04   4.4892411E+05   -1.8188310E+00
   1.7065384E-04   4.4517829E+05   -1.8182983E+00
   1.7144193E-04   4.4146481E+05   -1.8177650E+00
   1.7223367E-04   4.3778339E+05   -1.8172310E+00
   1.7302906E-04   4.3413374E+05   -1.8166964E+00
   1.7382813E-04   4.3051557E+05   -1.8161611E+00
   1.7463089E-04   4.2692861E+05   -1.8156251E+00
   1.7543735E-04   4.2337258E+05   -1.8150885E+00
   1.7624754E-04   4.1984721E+05   -1.8145513E+00
   1.7706147E-04   4.1635223E+05   -1.8140134E+00
   1.7787916E-04   4.1288736E+05   -1.8134749E+00
   1.7870062E-04   4.0945235E+05   -1.8129357E+00
   1.7952588E-04   4.0604692E+05   -1.8123959E+00
   1.8035495E-04   4.0267082E+05   -1.8118555E+00
   1.8118785E-04   3.9932378E+05   -1.8113145E+00
   1.8202459E-04   3.9600555E+05   -1.8107729E+00
   1.8286520E-04   3.9271588E+05   -1.8102306E+00
   1.8370969E-04   3.8945450E+05   -1.8096878E+00
   1.8455808E-04   3.8622118E+05   -1.8091443E+00
   1.8541039E-04   3.8301566E+05   -1.8086003E+00
   1.8626663E-04   3.7983770E+05   -1.8080557E+00
   1.8712683E-04   3.7668705E+05   -1.8075105E+00
   1.8799100E-04   3.7356348E+05   -1.8069647E+00
   1.8885917E-04   3.7046674E+05   -1.8064183E+00
   1.8973134E-04   3.6739659E+05   -1.8058714E+00
   1.9060754E-04   3.6435281E+05   -1.8053239E+00
   1.9148778E-04   3.6133515E+05   -1.8047759E+00
   1.9237209E-04   3.5834340E+05   -1.8042273E+00
   1.9326049E-04   3.5537731E+05   -1.8036781E+00
   1.9415299E-04   3.5243667E+05   -1.8031284E+00
   1.9504960E-04   3.4952124E+05   -1.8025782E+00
   1.9595036E-04   3.4663081E+05   -1.8020274E+00
   1.9685528E-04   3.4376516E+05   -1.8014761E+00
   1.9776438E-04   3.4092406E+05   -1.8009243E+00
   1.9867768E-04   3.3810731E+05   -1.8003720E+00
   1.9959519E-04   3.3531468E+05   -1.7998191E+00
   2.0051694E-04   3.3254596E+05   -1.7992658E+00
   2.0144295E-04   3.2980095E+05   -1.7987119E+00
   2.0237324E-04   3.2707943E+05   -1.7981575E+00
   2.0330782E-04   3.2438120E+05   -1.7976027E+00
   2.0424671E-04   3.2170605E+05   -1.7970473E+00
   2.0518995E-04   3.1905378E+05   -1.7964915E+00
   2.0613754E-04   3.1642418E+05   -1.7959352E+00
   2.0708950E-04   3.1381706E+05   -1.7953784E+00
   2.0804586E-04   3.1123223E+05   -1.7948212E+00
   2.0900664E-04   3.0866947E+05   -1.7942635E+00
   2.0997185E-04   3.0612861E+05   -1.7937054E+00
   2.1094152E-04   3.0360944E+05   -1.7931468E+00
   2.1191567E-04   3.0111178E+05   -1.7925877E+00
   2.1289432E-04   2.9863543E+05   -1.7920282E+00
   2.1387749E-04   2.9618022E+05   -1.7914683E+00
   2.1486520E-04   2.9374594E+05   -1.7909080E+00
   2.1585747E-04   2.9133243E+05   -1.7903472E+00
   2.1685432E-04   2.8893949E+05   -1.7897860E+00
   2.1785578E-04   2.8656695E+05   -1.7892244E+00
   2.1886186E-04   2.8421463E+05   -1.7886624E+00
   2.1987259E-04   2.8188234E+05   -1.7881000E+00
   2.2088798E-04   2.7956993E+05   -1.7875372E+00
   2.2190807E-04   2.7727719E+05   -1.7869740E+00
   2.2293286E-04   2.7500398E+05   -1.7864104E+00
   2.2396239E-04   2.7275011E+05   -1.7858464E+00
   2.2499667E-04   2.7051542E+05   -1.7852821E+00
   2.2603573E-04   2.6829973E+05   -1.7847174E+00
   2.2707958E-04   2.6610288E+05   -1.7841523E+00
   2.2812826E-04   2.6392471E+05   -1.7835869E+00
   2.2918178E-04   2.6176505E+05   -1.7830212E+00
   2.3024017E-04   2.5962374E+05   -1.7824551E+00
   2.3130344E-04   2.5750062E+05   -1.7818886E+00
   2.3237162E-04   2.5539552E+05   -1.7813218E+00
   2.3344474E-04   2.5330830E+05   -1.7807547E+00
   2.3452281E-04   2.5123880E+05   -1.7801873E+00
   2.3560586E-04   2.4918685E+05   -1.7796195E+00
   2.3669392E-04   2.4715230E+05   -1.7790515E+00
   2.3778699E-04   2.4513502E+05   -1.7784831E+00
   2.3888512E-04   2.4313483E+05   -1.7779144E+00
   2.3998831E-04   2.4115159E+05   -1.7773455E+00
   2.4109661E-04   2.3918516E+05   -1.7767762E+00
   2.4221001E-04   2.3723539E+05   -1.7762067E+00
   2.4332857E-04   2.3530213E+05   -1.7756369E+00
   2.4445228E-04   2.3338523E+05   -1.7750668E+00
   2.4558119E-04   2.3148456E+05   -1.7744965E+00
   2.4671531E-04   2.2959997E+05   -1.7739259E+00
   2.4785467E-04   2.2773133E+05   -1.7733551E+00
   2.4899928E-04   2.2587849E+05   -1.7727840E+00
   2.5014919E-04   2.2404131E+05   -1.7722127E+00
   2.5130440E-04   2.2221966E+05   -1.7716411E+00
   2.5246495E-04   2.2041340E+05   -1.7710693E+00
   2.5363086E-04   2.1862240E+05   -1.7704973E+00
   2.5480216E-04   2.1684652E+05   -1.7699250E+00
   2.5597886E-04   2.1508564E+05   -1.7693526E+00
   2.5716100E-04   2.1333962E+05   -1.7687800E+00
   2.5834859E-04   2.1160833E+05   -1.7682071E+00
   2.5954168E-04   2.0989164E+05   -1.7676341E+00
   2.6074027E-04   2.0818943E+05   -1.7670608E+00
   2.6194439E-04   2.0650157E+05   -1.7664874E+00
   2.6315408E-04   2.0482794E+05   -1.7659139E+00
   2.6436935E-04   2.0316841E+05   -1.7653401E+00
   2.6559024E-04   2.0152285E+05   -1.7647662E+00
   2.6681676E-04   1.9989116E+05   -1.7641921E+00
   2.6804895E-04   1.9827319E+05   -1.7636179E+00
   2.6928683E-04   1.9666885E+05   -1.7630435E+00
   2.7053042E-04   1.9507800E+05   -1.7624690E+00
   2.7177976E-04   1.9350054E+05   -1.7618944E+00
   2.7303487E-04   1.9193634E+05   -1.7613196E+00
   2.7429577E-04   1.9038528E+05   -1.7607448E+00
   2.7556250E-04   1.8884726E+05   -1.7601698E+00
   2.7683507E-04   1.8732217E+05   -1.7595947E+00
   2.7811353E-04   1.8580988E+05   -1.7590194E+00
   2.7939788E-04   1.8431029E+05   -1.7584441E+00
   2.8068817E-04   1.8282328E+05   -1.7578687E+00
   2.8198442E-04   1.8134876E+05   -1.7572933E+00
   2.8328665E-04   1.7988660E+05   -1.7567177E+00
   2.8459490E-04   1.7843671E+05   -1.7561421E+00
   2.8590919E-04   1.7699897E+05   -1.7555664E+00
   2.8722955E-04   1.7557328E+05   -1.7549906E+00
   2.8855600E-04   1.7415954E+05   -1.7544148E+00
   2.8988859E-04   1.7275763E+05   -1.7538390E+00
   2.9122732E-04   1.7136747E+05   -1.7532631E+00
   2.9257224E-04   1.6998895E+05   -1.7526872E+00
   2.9392337E-04   1.6862196E+05   -1.7521112E+00
   2.9528074E-04   1.6726641E+05   -1.7515352E+00
   2.9664438E-04   1.6592220E+05   -1.7509592E+00
   2.9801431E-04   1.6458922E+05   -1.7503832E+00
   2.9939057E-04   1.6326739E+05   -1.7498072E+00
   3.0077319E-04   1.6195661E+05   -1.7492312E+00
   3.0216219E-04   1.6065677E+05   -1.7486552E+00
   3.0355761E-04   1.5936779E+05   -1.7480792E+00
   3.0495947E-04   1.5808957E+05   -1.7475032E+00
   3.0636780E-04   1.5682202E+05   -1.7469273E+00
   3.0778264E-04   1.5556504E+05   -1.7463514E+00
   3.0920401E-04   1.5431855E+05   -1.7457755E+00
   3.1063195E-04   1.5308245E+05   -1.7451997E+00
   3.1206648E-04   1.5185666E+05   -1.7446239E+00
   3.1350764E-04   1.5064108E+05   -1.7440481E+00
   3.1495545E-04   1.4943563E+05   -1.7434725E+00
   3.1640994E-04   1.4824022E+05   -1.7428969E+00
   3.1787116E-04   1.4705476E+05   -1.7423214E+00
   3.1933912E-04   1.4587917E+05   -1.7417459E+00
   3.2081386E-04   1.4471336E+05   -1.7411706E+00
   3.2229541E-04   1.4355724E+05   -1.7405953E+00
   3.2378381E-04   1.4241074E+05   -1.7400202E+00
   3.2527908E-04   1.4127378E+05   -1.7394451E+00
   3.2678125E-04   1.4014625E+05   -1.7388702E+00
   3.2829036E-04   1.3902810E+05   -1.7382954E+00
   3.2980644E-04   1.3791923E+05   -1.7377207E+00
   3.3132952E-04   1.3681957E+05   -1.7371461E+00
   3.3285963E-04   1.3572904E+05   -1.7365716E+00
   3.3439681E-04   1.3464755E+05   -1.7359973E+00
   3.3594109E-04   1.3357504E+05   -1.7354232E+00
   3.3749250E-04   1.3251142E+05   -1.7348492E+00
   3.3905108E-04   1.3145661E+05   -1.7342754E+00
   3.4061685E-04   1.3041055E+05   -1.7337017E+00
   3.4218986E-04   1.2937315E+05   -1.7331282E+00
   3.4377013E-04   1.2834435E+05   -1.7325549E+00
   3.4535769E-04   1.2732406E+05   -1.7319818E+00
   3.4695259E-04   1.2631222E+05   -1.7314088E+00
   3.4855485E-04   1.2530875E+05   -1.7308361E+00
   3.5016452E-04   1.2431357E+05   -1.7302635E+00
   3.5178161E-04   1.2332663E+05   -1.7296912E+00
   3.5340618E-04   1.2234784E+05   -1.7291190E+00
   3.5503824E-04   1.2137715E+05   -1.7285471E+00
   3.5667785E-04   1.2041447E+05   -1.7279754E+00
   3.5832502E-04   1.1945974E+05   -1.7274040E+00
   3.5997981E-04   1.1851289E+05   -1.7268328E+00
   3.6164223E-04   1.1757386E+05   -1.7262618E+00
   3.6331233E-04   1.1664258E+05   -1.7256911E+00
   3.6499015E-04   1.1571897E+05   -1.7251206E+00
   3.6667571E-04   1.1480298E+05   -1.7245504E+00
   3.6836906E-04   1.1389454E+05   -1.7239805E+00
   3.7007022E-04   1.1299359E+05   -1.7234108E+00
   3.7177925E-04   1.1210005E+05   -1.7228414E+00
   3.7349616E-04   1.1121388E+05   -1.7222723E+00
   3.7522101E-04   1.1033500E+05   -1.7217035E+00
   3.7695382E-04   1.0946335E+05   -1.7211350E+00
   3.7869463E-04   1.0859887E+05   -1.7205668E+00
   3.8044348E-04   1.0774150E+05   -1.7199989E+00
   3.8220041E-04   1.0689118E+05   -1.7194313E+00
   3.8396545E-04   1.0604785E+05   -1.7188640E+00
   3.8573864E-04   1.0521144E+05   -1.7182970E+00
   3.8752002E-04   1.0438191E+05   -1.7177304E+00
   3.8930963E-04   1.0355918E+05   -1.7171641E+00
   3.9110750E-04   1.0274321E+05   -1.7165982E+00
   3.9291368E-04   1.0193393E+05   -1.7160326E+00
   3.9472820E-04   1.0113129E+05   -1.7154673E+00
   3.9655109E-04   1.0033524E+05   -1.7149024E+00
   3.9838241E-04   9.9545704E+04   -1.7143379E+00
   4.0022218E-04   9.8762641E+04   -1.7137738E+00
   4.0207045E-04   9.7985993E+04   -1.7132100E+00
   4.0392725E-04   9.7215705E+04   -1.7126466E+00
   4.0579263E-04   9.6451722E+04   -1.7120836E+00
   4.0766662E-04   9.5693991E+04   -1.7115210E+00
   4.0954927E-04   9.4942459E+04   -1.7109588E+00
   4.1144061E-04   9.4197074E+04   -1.7103970E+00
   4.1334068E-04   9.3457781E+04   -1.7098356E+00
   4.1524953E-04   9.2724531E+04   -1.7092746E+00
   4.1716720E-04   9.1997272E+04   -1.7087140E+00
   4.1909372E-04   9.1275952E+04   -1.7081539E+00
   4.2102914E-04   9.0560521E+04   -1.7075941E+00
   4.2297350E-04   8.9850930E+04   -1.7070349E+00
   4.2492683E-04   8.9147128E+04   -1.7064760E+00
   4.2688919E-04   8.8449067E+04   -1.7059176E+00
   4.2886061E-04   8.7756698E+04   -1.7053597E+00
   4.3084113E-04   8.7069972E+04   -1.7048022E+00
   4.3283080E-04   8.6388842E+04   -1.7042452E+00
   4.3482966E-04   8.5713261E+04   -1.7036887E+00
   4.3683775E-04   8.5043180E+04   -1.7031326E+00
   4.3885511E-04   8.4378554E+04   -1.7025770E+00
   4.4088179E-04   8.3719336E+04   -1.7020219E+00
   4.4291783E-04   8.3065481E+04   -1.7014673E+00
   4.4496327E-04   8.2416943E+04   -1.7009132E+00
   4.4701816E-04   8.1773677E+04   -1.7003596E+00
   4.4908253E-04   8.1135639E+04   -1.6998064E+00
   4.5115644E-04   8.0502784E+04   -1.6992538E+00
   4.5323993E-04   7.9875068E+04   -1.6987017E+00
   4.5533304E-04   7.9252449E+04   -1.6981502E+00
   4.5743582E-04   7.8634883E+04   -1.6975991E+00
   4.5954830E-04   7.8022327E+04   -1.6970486E+00
   4.6167054E-04   7.7414739E+04   -1.6964986E+00
   4.6380259E-04   7.6812077E+04   -1.6959492E+00
   4.6594448E-04   7.6214300E+04   -1.6954003E+00
   4.6809626E-04   7.5621366E+04   -1.6948520E+00
   4.7025797E-04   7.5033234E+04   -1.6943042E+00
   4.7242967E-04   7.4449864E+04   -1.6937570E+00
   4.7461140E-04   7.3871216E+04   -1.6932103E+00
   4.7680321E-04   7.3297250E+04   -1.6926642E+00
   4.7900514E-04   7.2727926E+04   -1.6921187E+00
   4.8121723E-04   7.2163206E+04   -1.6915738E+00
   4.8343954E-04   7.1603050E+04   -1.6910294E+00
   4.8567212E-04   7.1047421E+04   -1.6904857E+00
   4.8791500E-04   7.0496280E+04   -1.6899425E+00
   4.9016825E-04   6.9949589E+04   -1.6894000E+00
   4.9243189E-04   6.9407311E+04   -1.6888580E+00
   4.9470600E-04   6.8869409E+04   -1.6883167E+00
   4.9699060E-04   6.8335845E+04   -1.6877760E+00
   4.9928575E-04   6.7806585E+04   -1.6872358E+00
   5.0159151E-04   6.7281591E+04   -1.6866964E+00
   5.0390791E-04   6.6760827E+04   -1.6861575E+00
   5.0623501E-04   6.6244259E+04   -1.6856193E+00
   5.0857286E-04   6.5731850E+04   -1.6850817E+00
   5.1092150E-04   6.5223567E+04   -1.6845447E+00
   5.1328099E-04   6.4719374E+04   -1.6840084E+00
   5.1565137E-04   6.4219237E+04   -1.6834728E+00
   5.1803270E-04   6.3723123E+04   -1.6829378E+00
   5.2042503E-04   6.3230996E+04   -1.6824034E+00
   5.2282841E-04   6.2742825E+04   -1.6818698E+00
   5.2524289E-04   6.2258576E+04   -1.6813368E+00
   5.2766851E-04   6.1778215E+04   -1.6808044E+00
   5.3010534E-04   6.1301711E+04   -1.6802728E+00
   5.3255342E-04   6.0829032E+04   -1.6797418E+00
   5.3501281E-04   6.0360144E+04   -1.6792115E+00
   5.3748356E-04   5.9895018E+04   -1.6786819E+00
   5.3996571E-04   5.9433620E+04   -1.6781530E+00
   5.4245933E-04   5.8975920E+04   -1.6776248E+00
   5.4496446E-04   5.8521888E+04   -1.6770973E+00
   5.4748117E-04   5.8071492E+04   -1.6765705E+00
   5.5000949E-04   5.7624702E+04   -1.6760445E+00
   5.5254949E-04   5.7181488E+04   -1.6755191E+00
   5.5510123E-04   5.6741820E+04   -1.6749945E+00
   5.5766474E-04   5.6305669E+04   -1.6744705E+00
   5.6024010E-04   5.5873005E+04   -1.6739473E+00
   5.6282734E-04   5.5443799E+04   -1.6734249E+00
   5.6542654E-04   5.5018023E+04   -1.6729031E+00
   5.6803774E-04   5.4595647E+04   -1.6723822E+00
   5.7066099E-04   5.4176644E+04   -1.6718619E+00
   5.7329637E-04   5.3760986E+04   -1.6713424E+00
   5.7594391E-04   5.3348644E+04   -1.6708237E+00
   5.7860368E-04   5.2939592E+04   -1.6703057E+00
   5.8127573E-04   5.2533801E+04   -1.6697885E+00
   5.8396012E-04   5.2131244E+04   -1.6692720E+00
   5.8665691E-04   5.1731896E+04   -1.6687563E+00
   5.8936616E-04   5.1335728E+04   -1.6682414E+00
   5.9208791E-04   5.0942715E+04   -1.6677272E+00
   5.9482223E-04   5.0552831E+04   -1.6672138E+00
   5.9756919E-04   5.0166049E+04   -1.6667012E+00
   6.0032882E-04   4.9782344E+04   -1.6661894E+00
   6.0310120E-04   4.9401690E+04   -1.6656784E+00
   6.0588639E-04   4.9024062E+04   -1.6651681E+00
   6.0868443E-04   4.8649435E+04   -1.6646587E+00
   6.1149540E-04   4.8277784E+04   -1.6641501E+00
   6.1431935E-04   4.7909084E+04   -1.6636422E+00
   6.1715634E-04   4.7543312E+04   -1.6631352E+00
   6.2000644E-04   4.7180442E+04   -1.6626290E+00
   6.2286969E-04   4.6820450E+04   -1.6621236E+00
