#        a       HoverH0(a)       dlogHdloga_of_a(a)
   1.0000000E-04   1.1768487E+06   -1.8602345E+00
   1.0046181E-04   1.1668063E+06   -1.8597701E+00
   1.0092575E-04   1.1568521E+06   -1.8593047E+00
   1.0139184E-04   1.1469852E+06   -1.8588384E+00
   1.0186008E-04   1.1372050E+06   -1.8583711E+00
   1.0233048E-04   1.1275106E+06   -1.8579029E+00
   1.0280305E-04   1.1179012E+06   -1.8574338E+00
   1.0327781E-04   1.1083761E+06   -1.8569637E+00
   1.0375475E-04   1.0989346E+06   -1.8564928E+00
   1.0423390E-04   1.0895759E+06   -1.8560208E+00
   1.0471527E-04   1.0802992E+06   -1.8555480E+00
   1.0519885E-04   1.0711038E+06   -1.8550743E+00
   1.0568467E-04   1.0619891E+06   -1.8545996E+00
   1.0617274E-04   1.0529542E+06   -1.8541240E+00
   1.0666305E-04   1.0439984E+06   -1.8536475E+00
   1.0715563E-04   1.0351211E+06   -1.8531701E+00
   1.0765049E-04   1.0263216E+06   -1.8526918E+00
   1.0814763E-04   1.0175991E+06   -1.8522126E+00
   1.0864707E-04   1.0089529E+06   -1.8517324E+00
   1.0914881E-04   1.0003825E+06   -1.8512514E+00
   1.0965287E-04   9.9188698E+05   -1.8507695E+00
   1.1015926E-04   9.8346585E+05   -1.8502867E+00
   1.1066799E-04   9.7511838E+05   -1.8498029E+00
   1.1117906E-04   9.6684392E+05   -1.8493183E+00
   1.1169250E-04   9.5864182E+05   -1.8488328E+00
   1.1220831E-04   9.5051142E+05   -1.8483465E+00
   1.1272650E-04   9.4245210E+05   -1.8478592E+00
   1.1324708E-04   9.3446320E+05   -1.8473710E+00
   1.1377007E-04   9.2654412E+05   -1.8468820E+00
   1.1429547E-04   9.1869422E+05   -1.8463921E+00
   1.1482330E-04   9.1091288E+05   -1.8459014E+00
   1.1535356E-04   9.0319949E+05   -1.8454097E+00
   1.1588628E-04   8.9555345E+05   -1.8449172E+00
   1.1642145E-04   8.8797416E+05   -1.8444239E+00
   1.1695910E-04   8.8046101E+05   -1.8439296E+00
   1.1749923E-04   8.7301342E+05   -1.8434346E+00
   1.1804185E-04   8.6563080E+05   -1.8429386E+00
   1.1858698E-04   8.5831258E+05   -1.8424419E+00
   1.1913463E-04   8.5105817E+05   -1.8419442E+00
   1.1968481E-04   8.4386702E+05   -1.8414458E+00
   1.2023752E-04   8.3673855E+05   -1.8409464E+00
   1.2079279E-04   8.2967221E+05   -1.8404463E+00
   1.2135063E-04   8.2266745E+05   -1.8399453E+00
   1.2191104E-04   8.1572371E+05   -1.8394435E+00
   1.2247403E-04   8.0884044E+05   -1.8389408E+00
   1.2303963E-04   8.0201713E+05   -1.8384374E+00
   1.2360784E-04   7.9525321E+05   -1.8379331E+00
   1.2417868E-04   7.8854818E+05   -1.8374280E+00
   1.2475215E-04   7.8190150E+05   -1.8369221E+00
   1.2532826E-04   7.7531265E+05   -1.8364153E+00
   1.2590704E-04   7.6878112E+05   -1.8359078E+00
   1.2648850E-04   7.6230640E+05   -1.8353994E+00
   1.2707263E-04   7.5588798E+05   -1.8348903E+00
   1.2765947E-04   7.4952536E+05   -1.8343803E+00
   1.2824901E-04   7.4321805E+05   -1.8338696E+00
   1.2884128E-04   7.3696555E+05   -1.8333581E+00
   1.2943628E-04   7.3076737E+05   -1.8328457E+00
   1.3003403E-04   7.2462303E+05   -1.8323326E+00
   1.3063454E-04   7.1853206E+05   -1.8318188E+00
   1.3123783E-04   7.1249397E+05   -1.8313041E+00
   1.3184390E-04   7.0650830E+05   -1.8307887E+00
   1.3245277E-04   7.0057459E+05   -1.8302725E+00
   1.3306445E-04   6.9469235E+05   -1.8297555E+00
   1.3367895E-04   6.8886115E+05   -1.8292378E+00
   1.3429630E-04   6.8308053E+05   -1.8287193E+00
   1.3491649E-04   6.7735004E+05   -1.8282001E+00
   1.3553955E-04   6.7166922E+05   -1.8276801E+00
   1.3616548E-04   6.6603765E+05   -1.8271594E+00
   1.3679431E-04   6.6045488E+05   -1.8266379E+00
   1.3742604E-04   6.5492049E+05   -1.8261157E+00
   1.3806069E-04   6.4943403E+05   -1.8255928E+00
   1.3869827E-04   6.4399508E+05   -1.8250691E+00
   1.3933879E-04   6.3860323E+05   -1.8245448E+00
   1.3998227E-04   6.3325806E+05   -1.8240196E+00
   1.4062872E-04   6.2795914E+05   -1.8234938E+00
   1.4127816E-04   6.2270607E+05   -1.8229673E+00
   1.4193060E-04   6.1749844E+05   -1.8224400E+00
   1.4258605E-04   6.1233586E+05   -1.8219121E+00
   1.4324453E-04   6.0721791E+05   -1.8213834E+00
   1.4390605E-04   6.0214421E+05   -1.8208541E+00
   1.4457062E-04   5.9711436E+05   -1.8203240E+00
   1.4523826E-04   5.9212797E+05   -1.8197933E+00
   1.4590899E-04   5.8718466E+05   -1.8192619E+00
   1.4658281E-04   5.8228404E+05   -1.8187298E+00
   1.4725974E-04   5.7742575E+05   -1.8181970E+00
   1.4793981E-04   5.7260939E+05   -1.8176636E+00
   1.4862301E-04   5.6783460E+05   -1.8171295E+00
   1.4930936E-04   5.6310102E+05   -1.8165947E+00
   1.4999889E-04   5.5840827E+05   -1.8160593E+00
   1.5069160E-04   5.5375599E+05   -1.8155232E+00
   1.5138751E-04   5.4914384E+05   -1.8149865E+00
   1.5208663E-04   5.4457144E+05   -1.8144492E+00
   1.5278899E-04   5.4003845E+05   -1.8139112E+00
   1.5349458E-04   5.3554453E+05   -1.8133725E+00
   1.5420343E-04   5.3108932E+05   -1.8128332E+00
   1.5491556E-04   5.2667248E+05   -1.8122934E+00
   1.5563098E-04   5.2229368E+05   -1.8117528E+00
   1.5634970E-04   5.1795257E+05   -1.8112117E+00
   1.5707174E-04   5.1364883E+05   -1.8106700E+00
   1.5779711E-04   5.0938211E+05   -1.8101276E+00
   1.5852584E-04   5.0515211E+05   -1.8095847E+00
   1.5925792E-04   5.0095848E+05   -1.8090411E+00
   1.5999339E-04   4.9680091E+05   -1.8084970E+00
   1.6073226E-04   4.9267908E+05   -1.8079523E+00
   1.6147454E-04   4.8859268E+05   -1.8074070E+00
   1.6222024E-04   4.8454139E+05   -1.8068611E+00
   1.6296939E-04   4.8052490E+05   -1.8063146E+00
   1.6372200E-04   4.7654290E+05   -1.8057676E+00
   1.6447809E-04   4.7259510E+05   -1.8052200E+00
   1.6523767E-04   4.6868118E+05   -1.8046719E+00
   1.6600075E-04   4.6480085E+05   -1.8041232E+00
   1.6676736E-04   4.6095382E+05   -1.8035739E+00
   1.6753751E-04   4.5713978E+05   -1.8030242E+00
   1.6831122E-04   4.5335845E+05   -1.8024738E+00
   1.6908849E-04   4.4960953E+05   -1.8019230E+00
   1.6986936E-04   4.4589275E+05   -1.8013716E+00
   1.7065384E-04   4.4220782E+05   -1.8008197E+00
   1.7144193E-04   4.3855446E+05   -1.8002673E+00
   1.7223367E-04   4.3493239E+05   -1.7997143E+00
   1.7302906E-04   4.3134133E+05   -1.7991609E+00
   1.7382813E-04   4.2778101E+05   -1.7986069E+00
   1.7463089E-04   4.2425117E+05   -1.7980525E+00
   1.7543735E-04   4.2075153E+05   -1.7974976E+00
   1.7624754E-04   4.1728182E+05   -1.7969421E+00
   1.7706147E-04   4.1384178E+05   -1.7963862E+00
   1.7787916E-04   4.1043116E+05   -1.7958299E+00
   1.7870062E-04   4.0704969E+05   -1.7952730E+00
   1.7952588E-04   4.0369711E+05   -1.7947157E+00
   1.8035495E-04   4.0037317E+05   -1.7941579E+00
   1.8118785E-04   3.9707763E+05   -1.7935997E+00
   1.8202459E-04   3.9381022E+05   -1.7930410E+00
   1.8286520E-04   3.9057070E+05   -1.7924819E+00
   1.8370969E-04   3.8735884E+05   -1.7919223E+00
   1.8455808E-04   3.8417437E+05   -1.7913624E+00
   1.8541039E-04   3.8101707E+05   -1.7908019E+00
   1.8626663E-04   3.7788669E+05   -1.7902411E+00
   1.8712683E-04   3.7478300E+05   -1.7896798E+00
   1.8799100E-04   3.7170577E+05   -1.7891182E+00
   1.8885917E-04   3.6865475E+05   -1.7885561E+00
   1.8973134E-04   3.6562973E+05   -1.7879936E+00
   1.9060754E-04   3.6263046E+05   -1.7874308E+00
   1.9148778E-04   3.5965673E+05   -1.7868675E+00
   1.9237209E-04   3.5670832E+05   -1.7863039E+00
   1.9326049E-04   3.5378499E+05   -1.7857399E+00
   1.9415299E-04   3.5088654E+05   -1.7851755E+00
   1.9504960E-04   3.4801273E+05   -1.7846107E+00
   1.9595036E-04   3.4516336E+05   -1.7840456E+00
   1.9685528E-04   3.4233821E+05   -1.7834801E+00
   1.9776438E-04   3.3953708E+05   -1.7829143E+00
   1.9867768E-04   3.3675973E+05   -1.7823482E+00
   1.9959519E-04   3.3400598E+05   -1.7817817E+00
   2.0051694E-04   3.3127561E+05   -1.7812148E+00
   2.0144295E-04   3.2856842E+05   -1.7806477E+00
   2.0237324E-04   3.2588421E+05   -1.7800802E+00
   2.0330782E-04   3.2322276E+05   -1.7795124E+00
   2.0424671E-04   3.2058390E+05   -1.7789443E+00
   2.0518995E-04   3.1796740E+05   -1.7783759E+00
   2.0613754E-04   3.1537309E+05   -1.7778072E+00
   2.0708950E-04   3.1280077E+05   -1.7772382E+00
   2.0804586E-04   3.1025024E+05   -1.7766689E+00
   2.0900664E-04   3.0772132E+05   -1.7760993E+00
   2.0997185E-04   3.0521381E+05   -1.7755295E+00
   2.1094152E-04   3.0272753E+05   -1.7749594E+00
   2.1191567E-04   3.0026229E+05   -1.7743890E+00
   2.1289432E-04   2.9781791E+05   -1.7738184E+00
   2.1387749E-04   2.9539420E+05   -1.7732475E+00
   2.1486520E-04   2.9299099E+05   -1.7726764E+00
   2.1585747E-04   2.9060810E+05   -1.7721050E+00
   2.1685432E-04   2.8824535E+05   -1.7715335E+00
   2.1785578E-04   2.8590256E+05   -1.7709616E+00
   2.1886186E-04   2.8357955E+05   -1.7703896E+00
   2.1987259E-04   2.8127617E+05   -1.7698173E+00
   2.2088798E-04   2.7899223E+05   -1.7692449E+00
   2.2190807E-04   2.7672756E+05   -1.7686722E+00
   2.2293286E-04   2.7448201E+05   -1.7680993E+00
   2.2396239E-04   2.7225539E+05   -1.7675263E+00
   2.2499667E-04   2.7004755E+05   -1.7669530E+00
   2.2603573E-04   2.6785832E+05   -1.7663796E+00
   2.2707958E-04   2.6568754E+05   -1.7658060E+00
   2.2812826E-04   2.6353505E+05   -1.7652323E+00
   2.2918178E-04   2.6140069E+05   -1.7646583E+00
   2.3024017E-04   2.5928430E+05   -1.7640842E+00
   2.3130344E-04   2.5718572E+05   -1.7635100E+00
   2.3237162E-04   2.5510481E+05   -1.7629356E+00
   2.3344474E-04   2.5304140E+05   -1.7623611E+00
   2.3452281E-04   2.5099535E+05   -1.7617865E+00
   2.3560586E-04   2.4896650E+05   -1.7612117E+00
   2.3669392E-04   2.4695470E+05   -1.7606368E+00
   2.3778699E-04   2.4495981E+05   -1.7600618E+00
   2.3888512E-04   2.4298168E+05   -1.7594867E+00
   2.3998831E-04   2.4102016E+05   -1.7589115E+00
   2.4109661E-04   2.3907511E+05   -1.7583362E+00
   2.4221001E-04   2.3714639E+05   -1.7577608E+00
   2.4332857E-04   2.3523385E+05   -1.7571854E+00
   2.4445228E-04   2.3333735E+05   -1.7566098E+00
   2.4558119E-04   2.3145675E+05   -1.7560342E+00
   2.4671531E-04   2.2959192E+05   -1.7554585E+00
   2.4785467E-04   2.2774272E+05   -1.7548828E+00
   2.4899928E-04   2.2590902E+05   -1.7543070E+00
   2.5014919E-04   2.2409067E+05   -1.7537311E+00
   2.5130440E-04   2.2228755E+05   -1.7531552E+00
   2.5246495E-04   2.2049952E+05   -1.7525793E+00
   2.5363086E-04   2.1872645E+05   -1.7520034E+00
   2.5480216E-04   2.1696822E+05   -1.7514274E+00
   2.5597886E-04   2.1522469E+05   -1.7508514E+00
   2.5716100E-04   2.1349574E+05   -1.7502754E+00
   2.5834859E-04   2.1178124E+05   -1.7496994E+00
   2.5954168E-04   2.1008107E+05   -1.7491235E+00
   2.6074027E-04   2.0839510E+05   -1.7485475E+00
   2.6194439E-04   2.0672320E+05   -1.7479715E+00
   2.6315408E-04   2.0506527E+05   -1.7473956E+00
   2.6436935E-04   2.0342117E+05   -1.7468196E+00
   2.6559024E-04   2.0179079E+05   -1.7462438E+00
   2.6681676E-04   2.0017400E+05   -1.7456679E+00
   2.6804895E-04   1.9857070E+05   -1.7450921E+00
   2.6928683E-04   1.9698076E+05   -1.7445164E+00
   2.7053042E-04   1.9540408E+05   -1.7439407E+00
   2.7177976E-04   1.9384052E+05   -1.7433650E+00
   2.7303487E-04   1.9228999E+05   -1.7427895E+00
   2.7429577E-04   1.9075236E+05   -1.7422140E+00
   2.7556250E-04   1.8922753E+05   -1.7416386E+00
   2.7683507E-04   1.8771539E+05   -1.7410633E+00
   2.7811353E-04   1.8621583E+05   -1.7404881E+00
   2.7939788E-04   1.8472873E+05   -1.7399130E+00
   2.8068817E-04   1.8325400E+05   -1.7393380E+00
   2.8198442E-04   1.8179152E+05   -1.7387631E+00
   2.8328665E-04   1.8034119E+05   -1.7381883E+00
   2.8459490E-04   1.7890290E+05   -1.7376136E+00
   2.8590919E-04   1.7747656E+05   -1.7370391E+00
   2.8722955E-04   1.7606205E+05   -1.7364647E+00
   2.8855600E-04   1.7465928E+05   -1.7358905E+00
   2.8988859E-04   1.7326814E+05   -1.7353164E+00
   2.9122732E-04   1.7188854E+05   -1.7347424E+00
   2.9257224E-04   1.7052037E+05   -1.7341687E+00
   2.9392337E-04   1.6916354E+05   -1.7335950E+00
   2.9528074E-04   1.6781795E+05   -1.7330216E+00
   2.9664438E-04   1.6648351E+05   -1.7324483E+00
   2.9801431E-04   1.6516011E+05   -1.7318753E+00
   2.9939057E-04   1.6384766E+05   -1.7313024E+00
   3.0077319E-04   1.6254608E+05   -1.7307297E+00
   3.0216219E-04   1.6125525E+05   -1.7301572E+00
   3.0355761E-04   1.5997510E+05   -1.7295849E+00
   3.0495947E-04   1.5870553E+05   -1.7290129E+00
   3.0636780E-04   1.5744646E+05   -1.7284410E+00
   3.0778264E-04   1.5619778E+05   -1.7278694E+00
   3.0920401E-04   1.5495941E+05   -1.7272980E+00
   3.1063195E-04   1.5373127E+05   -1.7267269E+00
   3.1206648E-04   1.5251326E+05   -1.7261560E+00
   3.1350764E-04   1.5130529E+05   -1.7255853E+00
   3.1495545E-04   1.5010729E+05   -1.7250150E+00
   3.1640994E-04   1.4891917E+05   -1.7244448E+00
   3.1787116E-04   1.4774084E+05   -1.7238750E+00
   3.1933912E-04   1.4657222E+05   -1.7233054E+00
   3.2081386E-04   1.4541322E+05   -1.7227361E+00
   3.2229541E-04   1.4426377E+05   -1.7221670E+00
   3.2378381E-04   1.4312378E+05   -1.7215983E+00
   3.2527908E-04   1.4199316E+05   -1.7210299E+00
   3.2678125E-04   1.4087185E+05   -1.7204617E+00
   3.2829036E-04   1.3975976E+05   -1.7198939E+00
   3.2980644E-04   1.3865681E+05   -1.7193264E+00
   3.3132952E-04   1.3756292E+05   -1.7187592E+00
   3.3285963E-04   1.3647802E+05   -1.7181924E+00
   3.3439681E-04   1.3540203E+05   -1.7176258E+00
   3.3594109E-04   1.3433488E+05   -1.7170596E+00
   3.3749250E-04   1.3327648E+05   -1.7164938E+00
   3.3905108E-04   1.3222677E+05   -1.7159283E+00
   3.4061685E-04   1.3118566E+05   -1.7153631E+00
   3.4218986E-04   1.3015309E+05   -1.7147984E+00
   3.4377013E-04   1.2912899E+05   -1.7142339E+00
   3.4535769E-04   1.2811327E+05   -1.7136699E+00
   3.4695259E-04   1.2710588E+05   -1.7131062E+00
   3.4855485E-04   1.2610673E+05   -1.7125429E+00
   3.5016452E-04   1.2511576E+05   -1.7119800E+00
   3.5178161E-04   1.2413291E+05   -1.7114175E+00
   3.5340618E-04   1.2315809E+05   -1.7108554E+00
   3.5503824E-04   1.2219124E+05   -1.7102937E+00
   3.5667785E-04   1.2123230E+05   -1.7097324E+00
   3.5832502E-04   1.2028119E+05   -1.7091715E+00
   3.5997981E-04   1.1933786E+05   -1.7086111E+00
   3.6164223E-04   1.1840223E+05   -1.7080510E+00
   3.6331233E-04   1.1747423E+05   -1.7074914E+00
   3.6499015E-04   1.1655381E+05   -1.7069323E+00
   3.6667571E-04   1.1564090E+05   -1.7063735E+00
   3.6836906E-04   1.1473544E+05   -1.7058153E+00
   3.7007022E-04   1.1383735E+05   -1.7052575E+00
   3.7177925E-04   1.1294659E+05   -1.7047001E+00
   3.7349616E-04   1.1206309E+05   -1.7041432E+00
   3.7522101E-04   1.1118678E+05   -1.7035868E+00
   3.7695382E-04   1.1031761E+05   -1.7030308E+00
   3.7869463E-04   1.0945551E+05   -1.7024754E+00
   3.8044348E-04   1.0860042E+05   -1.7019204E+00
   3.8220041E-04   1.0775230E+05   -1.7013659E+00
   3.8396545E-04   1.0691106E+05   -1.7008119E+00
   3.8573864E-04   1.0607667E+05   -1.7002584E+00
   3.8752002E-04   1.0524906E+05   -1.6997054E+00
   3.8930963E-04   1.0442817E+05   -1.6991529E+00
   3.9110750E-04   1.0361394E+05   -1.6986010E+00
   3.9291368E-04   1.0280633E+05   -1.6980496E+00
   3.9472820E-04   1.0200527E+05   -1.6974986E+00
   3.9655109E-04   1.0121071E+05   -1.6969483E+00
   3.9838241E-04   1.0042259E+05   -1.6963984E+00
   4.0022218E-04   9.9640861E+04   -1.6958491E+00
   4.0207045E-04   9.8865468E+04   -1.6953004E+00
   4.0392725E-04   9.8096357E+04   -1.6947522E+00
   4.0579263E-04   9.7333475E+04   -1.6942045E+00
   4.0766662E-04   9.6576769E+04   -1.6936575E+00
   4.0954927E-04   9.5826187E+04   -1.6931109E+00
   4.1144061E-04   9.5081679E+04   -1.6925650E+00
   4.1334068E-04   9.4343191E+04   -1.6920196E+00
   4.1524953E-04   9.3610675E+04   -1.6914749E+00
   4.1716720E-04   9.2884079E+04   -1.6909307E+00
   4.1909372E-04   9.2163353E+04   -1.6903871E+00
   4.2102914E-04   9.1448449E+04   -1.6898441E+00
   4.2297350E-04   9.0739318E+04   -1.6893016E+00
   4.2492683E-04   9.0035910E+04   -1.6887598E+00
   4.2688919E-04   8.9338178E+04   -1.6882187E+00
   4.2886061E-04   8.8646074E+04   -1.6876781E+00
   4.3084113E-04   8.7959551E+04   -1.6871381E+00
   4.3283080E-04   8.7278561E+04   -1.6865988E+00
   4.3482966E-04   8.6603059E+04   -1.6860601E+00
   4.3683775E-04   8.5932998E+04   -1.6855220E+00
   4.3885511E-04   8.5268333E+04   -1.6849846E+00
   4.4088179E-04   8.4609018E+04   -1.6844478E+00
   4.4291783E-04   8.3955008E+04   -1.6839117E+00
   4.4496327E-04   8.3306260E+04   -1.6833762E+00
   4.4701816E-04   8.2662728E+04   -1.6828413E+00
   4.4908253E-04   8.2024370E+04   -1.6823072E+00
   4.5115644E-04   8.1391141E+04   -1.6817737E+00
   4.5323993E-04   8.0763000E+04   -1.6812408E+00
   4.5533304E-04   8.0139903E+04   -1.6807087E+00
   4.5743582E-04   7.9521808E+04   -1.6801772E+00
   4.5954830E-04   7.8908673E+04   -1.6796464E+00
   4.6167054E-04   7.8300457E+04   -1.6791163E+00
   4.6380259E-04   7.7697119E+04   -1.6785868E+00
   4.6594448E-04   7.7098618E+04   -1.6780581E+00
   4.6809626E-04   7.6504913E+04   -1.6775301E+00
   4.7025797E-04   7.5915965E+04   -1.6770028E+00
   4.7242967E-04   7.5331733E+04   -1.6764761E+00
   4.7461140E-04   7.4752179E+04   -1.6759502E+00
   4.7680321E-04   7.4177263E+04   -1.6754250E+00
   4.7900514E-04   7.3606946E+04   -1.6749006E+00
   4.8121723E-04   7.3041191E+04   -1.6743768E+00
   4.8343954E-04   7.2479960E+04   -1.6738538E+00
   4.8567212E-04   7.1923213E+04   -1.6733315E+00
   4.8791500E-04   7.1370916E+04   -1.6728100E+00
   4.9016825E-04   7.0823029E+04   -1.6722892E+00
   4.9243189E-04   7.0279517E+04   -1.6717691E+00
   4.9470600E-04   6.9740342E+04   -1.6712498E+00
   4.9699060E-04   6.9205470E+04   -1.6707313E+00
   4.9928575E-04   6.8674864E+04   -1.6702135E+00
   5.0159151E-04   6.8148488E+04   -1.6696964E+00
   5.0390791E-04   6.7626308E+04   -1.6691801E+00
   5.0623501E-04   6.7108289E+04   -1.6686646E+00
   5.0857286E-04   6.6594395E+04   -1.6681499E+00
   5.1092150E-04   6.6084594E+04   -1.6676359E+00
   5.1328099E-04   6.5578850E+04   -1.6671227E+00
   5.1565137E-04   6.5077131E+04   -1.6666103E+00
   5.1803270E-04   6.4579403E+04   -1.6660987E+00
   5.2042503E-04   6.4085632E+04   -1.6655879E+00
   5.2282841E-04   6.3595786E+04   -1.6650778E+00
   5.2524289E-04   6.3109832E+04   -1.6645686E+00
   5.2766851E-04   6.2627739E+04   -1.6640602E+00
   5.3010534E-04   6.2149474E+04   -1.6635525E+00
   5.3255342E-04   6.1675005E+04   -1.6630457E+00
   5.3501281E-04   6.1204301E+04   -1.6625397E+00
   5.3748356E-04   6.0737331E+04   -1.6620345E+00
   5.3996571E-04   6.0274065E+04   -1.6615301E+00
   5.4245933E-04   5.9814470E+04   -1.6610265E+00
   5.4496446E-04   5.9358518E+04   -1.6605238E+00
   5.4748117E-04   5.8906178E+04   -1.6600219E+00
   5.5000949E-04   5.8457420E+04   -1.6595208E+00
   5.5254949E-04   5.8012214E+04   -1.6590205E+00
   5.5510123E-04   5.7570531E+04   -1.6585211E+00
   5.5766474E-04   5.7132343E+04   -1.6580225E+00
   5.6024010E-04   5.6697620E+04   -1.6575248E+00
   5.6282734E-04   5.6266334E+04   -1.6570279E+00
   5.6542654E-04   5.5838456E+04   -1.6565319E+00
   5.6803774E-04   5.5413959E+04   -1.6560367E+00
   5.7066099E-04   5.4992814E+04   -1.6555424E+00
   5.7329637E-04   5.4574993E+04   -1.6550489E+00
   5.7594391E-04   5.4160471E+04   -1.6545563E+00
   5.7860368E-04   5.3749219E+04   -1.6540646E+00
   5.8127573E-04   5.3341210E+04   -1.6535737E+00
   5.8396012E-04   5.2936418E+04   -1.6530837E+00
   5.8665691E-04   5.2534817E+04   -1.6525946E+00
   5.8936616E-04   5.2136379E+04   -1.6521063E+00
   5.9208791E-04   5.1741080E+04   -1.6516189E+00
   5.9482223E-04   5.1348893E+04   -1.6511324E+00
   5.9756919E-04   5.0959793E+04   -1.6506468E+00
   6.0032882E-04   5.0573754E+04   -1.6501621E+00
   6.0310120E-04   5.0190752E+04   -1.6496783E+00
   6.0588639E-04   4.9810761E+04   -1.6491954E+00
   6.0868443E-04   4.9433757E+04   -1.6487133E+00
   6.1149540E-04   4.9059716E+04   -1.6482322E+00
   6.1431935E-04   4.8688612E+04   -1.6477519E+00
   6.1715634E-04   4.8320422E+04   -1.6472726E+00
   6.2000644E-04   4.7955123E+04   -1.6467941E+00
   6.2286969E-04   4.7592690E+04   -1.6463166E+00
