#        a       HoverH0(a)       dlogHdloga_of_a(a)
   1.0000000E-04   1.1827566E+06   -1.8939671E+00
   1.0046181E-04   1.1724813E+06   -1.8935816E+00
   1.0092575E-04   1.1622974E+06   -1.8931952E+00
   1.0139184E-04   1.1522039E+06   -1.8928076E+00
   1.0186008E-04   1.1422002E+06   -1.8924191E+00
   1.0233048E-04   1.1322854E+06   -1.8920296E+00
   1.0280305E-04   1.1224586E+06   -1.8916390E+00
   1.0327781E-04   1.1127191E+06   -1.8912474E+00
   1.0375475E-04   1.1030662E+06   -1.8908548E+00
   1.0423390E-04   1.0934989E+06   -1.8904611E+00
   1.0471527E-04   1.0840166E+06   -1.8900665E+00
   1.0519885E-04   1.0746185E+06   -1.8896708E+00
   1.0568467E-04   1.0653038E+06   -1.8892741E+00
   1.0617274E-04   1.0560718E+06   -1.8888764E+00
   1.0666305E-04   1.0469217E+06   -1.8884777E+00
   1.0715563E-04   1.0378527E+06   -1.8880779E+00
   1.0765049E-04   1.0288643E+06   -1.8876771E+00
   1.0814763E-04   1.0199556E+06   -1.8872754E+00
   1.0864707E-04   1.0111259E+06   -1.8868725E+00
   1.0914881E-04   1.0023745E+06   -1.8864687E+00
   1.0965287E-04   9.9370065E+05   -1.8860639E+00
   1.1015926E-04   9.8510373E+05   -1.8856580E+00
   1.1066799E-04   9.7658302E+05   -1.8852511E+00
   1.1117906E-04   9.6813782E+05   -1.8848433E+00
   1.1169250E-04   9.5976746E+05   -1.8844343E+00
   1.1220831E-04   9.5147127E+05   -1.8840244E+00
   1.1272650E-04   9.4324857E+05   -1.8836135E+00
   1.1324708E-04   9.3509870E+05   -1.8832015E+00
   1.1377007E-04   9.2702102E+05   -1.8827886E+00
   1.1429547E-04   9.1901486E+05   -1.8823746E+00
   1.1482330E-04   9.1107959E+05   -1.8819596E+00
   1.1535356E-04   9.0321457E+05   -1.8815436E+00
   1.1588628E-04   8.9541915E+05   -1.8811266E+00
   1.1642145E-04   8.8769273E+05   -1.8807086E+00
   1.1695910E-04   8.8003467E+05   -1.8802896E+00
   1.1749923E-04   8.7244437E+05   -1.8798696E+00
   1.1804185E-04   8.6492120E+05   -1.8794485E+00
   1.1858698E-04   8.5746458E+05   -1.8790265E+00
   1.1913463E-04   8.5007389E+05   -1.8786034E+00
   1.1968481E-04   8.4274855E+05   -1.8781794E+00
   1.2023752E-04   8.3548797E+05   -1.8777543E+00
   1.2079279E-04   8.2829157E+05   -1.8773283E+00
   1.2135063E-04   8.2115877E+05   -1.8769012E+00
   1.2191104E-04   8.1408899E+05   -1.8764732E+00
   1.2247403E-04   8.0708168E+05   -1.8760441E+00
   1.2303963E-04   8.0013626E+05   -1.8756141E+00
   1.2360784E-04   7.9325219E+05   -1.8751830E+00
   1.2417868E-04   7.8642891E+05   -1.8747510E+00
   1.2475215E-04   7.7966587E+05   -1.8743179E+00
   1.2532826E-04   7.7296254E+05   -1.8738839E+00
   1.2590704E-04   7.6631838E+05   -1.8734488E+00
   1.2648850E-04   7.5973285E+05   -1.8730128E+00
   1.2707263E-04   7.5320543E+05   -1.8725758E+00
   1.2765947E-04   7.4673560E+05   -1.8721378E+00
   1.2824901E-04   7.4032283E+05   -1.8716988E+00
   1.2884128E-04   7.3396663E+05   -1.8712589E+00
   1.2943628E-04   7.2766648E+05   -1.8708179E+00
   1.3003403E-04   7.2142187E+05   -1.8703760E+00
   1.3063454E-04   7.1523230E+05   -1.8699331E+00
   1.3123783E-04   7.0909730E+05   -1.8694892E+00
   1.3184390E-04   7.0301635E+05   -1.8690443E+00
   1.3245277E-04   6.9698898E+05   -1.8685984E+00
   1.3306445E-04   6.9101471E+05   -1.8681516E+00
   1.3367895E-04   6.8509306E+05   -1.8677038E+00
   1.3429630E-04   6.7922356E+05   -1.8672550E+00
   1.3491649E-04   6.7340574E+05   -1.8668053E+00
   1.3553955E-04   6.6763913E+05   -1.8663545E+00
   1.3616548E-04   6.6192329E+05   -1.8659029E+00
   1.3679431E-04   6.5625774E+05   -1.8654502E+00
   1.3742604E-04   6.5064205E+05   -1.8649966E+00
   1.3806069E-04   6.4507576E+05   -1.8645420E+00
   1.3869827E-04   6.3955843E+05   -1.8640865E+00
   1.3933879E-04   6.3408963E+05   -1.8636300E+00
   1.3998227E-04   6.2866891E+05   -1.8631725E+00
   1.4062872E-04   6.2329584E+05   -1.8627141E+00
   1.4127816E-04   6.1797001E+05   -1.8622547E+00
   1.4193060E-04   6.1269098E+05   -1.8617944E+00
   1.4258605E-04   6.0745833E+05   -1.8613331E+00
   1.4324453E-04   6.0227166E+05   -1.8608709E+00
   1.4390605E-04   5.9713055E+05   -1.8604078E+00
   1.4457062E-04   5.9203458E+05   -1.8599437E+00
   1.4523826E-04   5.8698336E+05   -1.8594786E+00
   1.4590899E-04   5.8197649E+05   -1.8590126E+00
   1.4658281E-04   5.7701357E+05   -1.8585457E+00
   1.4725974E-04   5.7209420E+05   -1.8580779E+00
   1.4793981E-04   5.6721799E+05   -1.8576091E+00
   1.4862301E-04   5.6238456E+05   -1.8571393E+00
   1.4930936E-04   5.5759353E+05   -1.8566687E+00
   1.4999889E-04   5.5284451E+05   -1.8561971E+00
   1.5069160E-04   5.4813713E+05   -1.8557246E+00
   1.5138751E-04   5.4347102E+05   -1.8552512E+00
   1.5208663E-04   5.3884580E+05   -1.8547769E+00
   1.5278899E-04   5.3426112E+05   -1.8543016E+00
   1.5349458E-04   5.2971661E+05   -1.8538254E+00
   1.5420343E-04   5.2521190E+05   -1.8533483E+00
   1.5491556E-04   5.2074665E+05   -1.8528703E+00
   1.5563098E-04   5.1632050E+05   -1.8523914E+00
   1.5634970E-04   5.1193311E+05   -1.8519116E+00
   1.5707174E-04   5.0758411E+05   -1.8514309E+00
   1.5779711E-04   5.0327318E+05   -1.8509493E+00
   1.5852584E-04   4.9899997E+05   -1.8504668E+00
   1.5925792E-04   4.9476414E+05   -1.8499834E+00
   1.5999339E-04   4.9056537E+05   -1.8494991E+00
   1.6073226E-04   4.8640331E+05   -1.8490139E+00
   1.6147454E-04   4.8227764E+05   -1.8485279E+00
   1.6222024E-04   4.7818804E+05   -1.8480409E+00
   1.6296939E-04   4.7413418E+05   -1.8475531E+00
   1.6372200E-04   4.7011575E+05   -1.8470644E+00
   1.6447809E-04   4.6613243E+05   -1.8465748E+00
   1.6523767E-04   4.6218390E+05   -1.8460843E+00
   1.6600075E-04   4.5826985E+05   -1.8455930E+00
   1.6676736E-04   4.5438998E+05   -1.8451008E+00
   1.6753751E-04   4.5054398E+05   -1.8446077E+00
   1.6831122E-04   4.4673155E+05   -1.8441138E+00
   1.6908849E-04   4.4295239E+05   -1.8436190E+00
   1.6986936E-04   4.3920620E+05   -1.8431234E+00
   1.7065384E-04   4.3549269E+05   -1.8426269E+00
   1.7144193E-04   4.3181156E+05   -1.8421296E+00
   1.7223367E-04   4.2816253E+05   -1.8416314E+00
   1.7302906E-04   4.2454532E+05   -1.8411324E+00
   1.7382813E-04   4.2095963E+05   -1.8406325E+00
   1.7463089E-04   4.1740519E+05   -1.8401318E+00
   1.7543735E-04   4.1388172E+05   -1.8396303E+00
   1.7624754E-04   4.1038893E+05   -1.8391280E+00
   1.7706147E-04   4.0692657E+05   -1.8386248E+00
   1.7787916E-04   4.0349436E+05   -1.8381208E+00
   1.7870062E-04   4.0009202E+05   -1.8376160E+00
   1.7952588E-04   3.9671930E+05   -1.8371103E+00
   1.8035495E-04   3.9337592E+05   -1.8366039E+00
   1.8118785E-04   3.9006163E+05   -1.8360966E+00
   1.8202459E-04   3.8677617E+05   -1.8355885E+00
   1.8286520E-04   3.8351928E+05   -1.8350796E+00
   1.8370969E-04   3.8029071E+05   -1.8345700E+00
   1.8455808E-04   3.7709021E+05   -1.8340595E+00
   1.8541039E-04   3.7391752E+05   -1.8335483E+00
   1.8626663E-04   3.7077240E+05   -1.8330362E+00
   1.8712683E-04   3.6765460E+05   -1.8325234E+00
   1.8799100E-04   3.6456388E+05   -1.8320098E+00
   1.8885917E-04   3.6150000E+05   -1.8314954E+00
   1.8973134E-04   3.5846272E+05   -1.8309802E+00
   1.9060754E-04   3.5545180E+05   -1.8304643E+00
   1.9148778E-04   3.5246701E+05   -1.8299476E+00
   1.9237209E-04   3.4950811E+05   -1.8294301E+00
   1.9326049E-04   3.4657489E+05   -1.8289119E+00
   1.9415299E-04   3.4366710E+05   -1.8283929E+00
   1.9504960E-04   3.4078452E+05   -1.8278732E+00
   1.9595036E-04   3.3792693E+05   -1.8273527E+00
   1.9685528E-04   3.3509411E+05   -1.8268315E+00
   1.9776438E-04   3.3228583E+05   -1.8263096E+00
   1.9867768E-04   3.2950188E+05   -1.8257869E+00
   1.9959519E-04   3.2674205E+05   -1.8252635E+00
   2.0051694E-04   3.2400611E+05   -1.8247393E+00
   2.0144295E-04   3.2129385E+05   -1.8242145E+00
   2.0237324E-04   3.1860507E+05   -1.8236889E+00
   2.0330782E-04   3.1593956E+05   -1.8231626E+00
   2.0424671E-04   3.1329711E+05   -1.8226356E+00
   2.0518995E-04   3.1067752E+05   -1.8221078E+00
   2.0613754E-04   3.0808057E+05   -1.8215794E+00
   2.0708950E-04   3.0550608E+05   -1.8210503E+00
   2.0804586E-04   3.0295385E+05   -1.8205205E+00
   2.0900664E-04   3.0042366E+05   -1.8199900E+00
   2.0997185E-04   2.9791534E+05   -1.8194588E+00
   2.1094152E-04   2.9542869E+05   -1.8189269E+00
   2.1191567E-04   2.9296350E+05   -1.8183944E+00
   2.1289432E-04   2.9051961E+05   -1.8178612E+00
   2.1387749E-04   2.8809680E+05   -1.8173273E+00
   2.1486520E-04   2.8569491E+05   -1.8167928E+00
   2.1585747E-04   2.8331374E+05   -1.8162575E+00
   2.1685432E-04   2.8095311E+05   -1.8157217E+00
   2.1785578E-04   2.7861283E+05   -1.8151852E+00
   2.1886186E-04   2.7629273E+05   -1.8146480E+00
   2.1987259E-04   2.7399264E+05   -1.8141102E+00
   2.2088798E-04   2.7171236E+05   -1.8135718E+00
   2.2190807E-04   2.6945173E+05   -1.8130327E+00
   2.2293286E-04   2.6721057E+05   -1.8124930E+00
   2.2396239E-04   2.6498871E+05   -1.8119527E+00
   2.2499667E-04   2.6278599E+05   -1.8114118E+00
   2.2603573E-04   2.6060222E+05   -1.8108703E+00
   2.2707958E-04   2.5843724E+05   -1.8103281E+00
   2.2812826E-04   2.5629089E+05   -1.8097854E+00
   2.2918178E-04   2.5416300E+05   -1.8092420E+00
   2.3024017E-04   2.5205341E+05   -1.8086981E+00
   2.3130344E-04   2.4996196E+05   -1.8081535E+00
   2.3237162E-04   2.4788848E+05   -1.8076084E+00
   2.3344474E-04   2.4583283E+05   -1.8070627E+00
   2.3452281E-04   2.4379483E+05   -1.8065164E+00
   2.3560586E-04   2.4177433E+05   -1.8059696E+00
   2.3669392E-04   2.3977119E+05   -1.8054222E+00
   2.3778699E-04   2.3778524E+05   -1.8048742E+00
   2.3888512E-04   2.3581634E+05   -1.8043257E+00
   2.3998831E-04   2.3386433E+05   -1.8037766E+00
   2.4109661E-04   2.3192906E+05   -1.8032270E+00
   2.4221001E-04   2.3001040E+05   -1.8026768E+00
   2.4332857E-04   2.2810818E+05   -1.8021261E+00
   2.4445228E-04   2.2622227E+05   -1.8015749E+00
   2.4558119E-04   2.2435252E+05   -1.8010231E+00
   2.4671531E-04   2.2249879E+05   -1.8004709E+00
   2.4785467E-04   2.2066094E+05   -1.7999181E+00
   2.4899928E-04   2.1883883E+05   -1.7993648E+00
   2.5014919E-04   2.1703232E+05   -1.7988110E+00
   2.5130440E-04   2.1524127E+05   -1.7982567E+00
   2.5246495E-04   2.1346554E+05   -1.7977019E+00
   2.5363086E-04   2.1170501E+05   -1.7971466E+00
   2.5480216E-04   2.0995954E+05   -1.7965909E+00
   2.5597886E-04   2.0822898E+05   -1.7960346E+00
   2.5716100E-04   2.0651323E+05   -1.7954779E+00
   2.5834859E-04   2.0481213E+05   -1.7949208E+00
   2.5954168E-04   2.0312557E+05   -1.7943631E+00
   2.6074027E-04   2.0145341E+05   -1.7938050E+00
   2.6194439E-04   1.9979554E+05   -1.7932465E+00
   2.6315408E-04   1.9815182E+05   -1.7926875E+00
   2.6436935E-04   1.9652212E+05   -1.7921280E+00
   2.6559024E-04   1.9490634E+05   -1.7915682E+00
   2.6681676E-04   1.9330434E+05   -1.7910079E+00
   2.6804895E-04   1.9171599E+05   -1.7904471E+00
   2.6928683E-04   1.9014120E+05   -1.7898860E+00
   2.7053042E-04   1.8857982E+05   -1.7893244E+00
   2.7177976E-04   1.8703175E+05   -1.7887625E+00
   2.7303487E-04   1.8549687E+05   -1.7882001E+00
   2.7429577E-04   1.8397507E+05   -1.7876374E+00
   2.7556250E-04   1.8246622E+05   -1.7870742E+00
   2.7683507E-04   1.8097021E+05   -1.7865107E+00
   2.7811353E-04   1.7948694E+05   -1.7859467E+00
   2.7939788E-04   1.7801628E+05   -1.7853825E+00
   2.8068817E-04   1.7655814E+05   -1.7848178E+00
   2.8198442E-04   1.7511240E+05   -1.7842528E+00
   2.8328665E-04   1.7367894E+05   -1.7836874E+00
   2.8459490E-04   1.7225767E+05   -1.7831217E+00
   2.8590919E-04   1.7084848E+05   -1.7825556E+00
   2.8722955E-04   1.6945125E+05   -1.7819892E+00
   2.8855600E-04   1.6806589E+05   -1.7814224E+00
   2.8988859E-04   1.6669230E+05   -1.7808553E+00
   2.9122732E-04   1.6533036E+05   -1.7802879E+00
   2.9257224E-04   1.6397998E+05   -1.7797202E+00
   2.9392337E-04   1.6264105E+05   -1.7791522E+00
   2.9528074E-04   1.6131347E+05   -1.7785838E+00
   2.9664438E-04   1.5999716E+05   -1.7780152E+00
   2.9801431E-04   1.5869200E+05   -1.7774462E+00
   2.9939057E-04   1.5739790E+05   -1.7768770E+00
   3.0077319E-04   1.5611476E+05   -1.7763075E+00
   3.0216219E-04   1.5484249E+05   -1.7757377E+00
   3.0355761E-04   1.5358099E+05   -1.7751677E+00
   3.0495947E-04   1.5233017E+05   -1.7745973E+00
   3.0636780E-04   1.5108993E+05   -1.7740268E+00
   3.0778264E-04   1.4986019E+05   -1.7734559E+00
   3.0920401E-04   1.4864084E+05   -1.7728849E+00
   3.1063195E-04   1.4743180E+05   -1.7723135E+00
   3.1206648E-04   1.4623299E+05   -1.7717420E+00
   3.1350764E-04   1.4504430E+05   -1.7711702E+00
   3.1495545E-04   1.4386565E+05   -1.7705982E+00
   3.1640994E-04   1.4269696E+05   -1.7700259E+00
   3.1787116E-04   1.4153814E+05   -1.7694535E+00
   3.1933912E-04   1.4038910E+05   -1.7688809E+00
   3.2081386E-04   1.3924975E+05   -1.7683080E+00
   3.2229541E-04   1.3812001E+05   -1.7677350E+00
   3.2378381E-04   1.3699980E+05   -1.7671617E+00
   3.2527908E-04   1.3588904E+05   -1.7665883E+00
   3.2678125E-04   1.3478764E+05   -1.7660147E+00
   3.2829036E-04   1.3369551E+05   -1.7654410E+00
   3.2980644E-04   1.3261259E+05   -1.7648671E+00
   3.3132952E-04   1.3153879E+05   -1.7642930E+00
   3.3285963E-04   1.3047402E+05   -1.7637188E+00
   3.3439681E-04   1.2941822E+05   -1.7631444E+00
   3.3594109E-04   1.2837130E+05   -1.7625699E+00
   3.3749250E-04   1.2733319E+05   -1.7619952E+00
   3.3905108E-04   1.2630381E+05   -1.7614204E+00
   3.4061685E-04   1.2528308E+05   -1.7608455E+00
   3.4218986E-04   1.2427093E+05   -1.7602705E+00
   3.4377013E-04   1.2326728E+05   -1.7596954E+00
   3.4535769E-04   1.2227206E+05   -1.7591202E+00
   3.4695259E-04   1.2128520E+05   -1.7585448E+00
   3.4855485E-04   1.2030662E+05   -1.7579694E+00
   3.5016452E-04   1.1933626E+05   -1.7573939E+00
   3.5178161E-04   1.1837403E+05   -1.7568183E+00
   3.5340618E-04   1.1741988E+05   -1.7562427E+00
   3.5503824E-04   1.1647372E+05   -1.7556670E+00
   3.5667785E-04   1.1553550E+05   -1.7550912E+00
   3.5832502E-04   1.1460514E+05   -1.7545153E+00
   3.5997981E-04   1.1368257E+05   -1.7539395E+00
   3.6164223E-04   1.1276772E+05   -1.7533635E+00
   3.6331233E-04   1.1186054E+05   -1.7527876E+00
   3.6499015E-04   1.1096095E+05   -1.7522116E+00
   3.6667571E-04   1.1006888E+05   -1.7516355E+00
   3.6836906E-04   1.0918428E+05   -1.7510595E+00
   3.7007022E-04   1.0830707E+05   -1.7504835E+00
   3.7177925E-04   1.0743720E+05   -1.7499074E+00
   3.7349616E-04   1.0657459E+05   -1.7493313E+00
   3.7522101E-04   1.0571920E+05   -1.7487553E+00
   3.7695382E-04   1.0487094E+05   -1.7481792E+00
   3.7869463E-04   1.0402977E+05   -1.7476032E+00
   3.8044348E-04   1.0319562E+05   -1.7470272E+00
   3.8220041E-04   1.0236843E+05   -1.7464513E+00
   3.8396545E-04   1.0154814E+05   -1.7458753E+00
   3.8573864E-04   1.0073469E+05   -1.7452995E+00
   3.8752002E-04   9.9928017E+04   -1.7447236E+00
   3.8930963E-04   9.9128070E+04   -1.7441478E+00
   3.9110750E-04   9.8334788E+04   -1.7435721E+00
   3.9291368E-04   9.7548113E+04   -1.7429965E+00
   3.9472820E-04   9.6767988E+04   -1.7424209E+00
   3.9655109E-04   9.5994357E+04   -1.7418454E+00
   3.9838241E-04   9.5227162E+04   -1.7412700E+00
   4.0022218E-04   9.4466350E+04   -1.7406947E+00
   4.0207045E-04   9.3711865E+04   -1.7401194E+00
   4.0392725E-04   9.2963652E+04   -1.7395443E+00
   4.0579263E-04   9.2221658E+04   -1.7389693E+00
   4.0766662E-04   9.1485828E+04   -1.7383944E+00
   4.0954927E-04   9.0756109E+04   -1.7378196E+00
   4.1144061E-04   9.0032450E+04   -1.7372450E+00
   4.1334068E-04   8.9314797E+04   -1.7366705E+00
   4.1524953E-04   8.8603099E+04   -1.7360961E+00
   4.1716720E-04   8.7897304E+04   -1.7355219E+00
   4.1909372E-04   8.7197362E+04   -1.7349478E+00
   4.2102914E-04   8.6503223E+04   -1.7343739E+00
   4.2297350E-04   8.5814837E+04   -1.7338001E+00
   4.2492683E-04   8.5132154E+04   -1.7332266E+00
   4.2688919E-04   8.4455125E+04   -1.7326532E+00
   4.2886061E-04   8.3783701E+04   -1.7320799E+00
   4.3084113E-04   8.3117835E+04   -1.7315069E+00
   4.3283080E-04   8.2457479E+04   -1.7309341E+00
   4.3482966E-04   8.1802584E+04   -1.7303614E+00
   4.3683775E-04   8.1153105E+04   -1.7297890E+00
   4.3885511E-04   8.0508995E+04   -1.7292168E+00
   4.4088179E-04   7.9870208E+04   -1.7286448E+00
   4.4291783E-04   7.9236698E+04   -1.7280730E+00
   4.4496327E-04   7.8608419E+04   -1.7275015E+00
   4.4701816E-04   7.7985328E+04   -1.7269301E+00
   4.4908253E-04   7.7367379E+04   -1.7263591E+00
   4.5115644E-04   7.6754529E+04   -1.7257883E+00
   4.5323993E-04   7.6146734E+04   -1.7252177E+00
   4.5533304E-04   7.5543950E+04   -1.7246474E+00
   4.5743582E-04   7.4946135E+04   -1.7240773E+00
   4.5954830E-04   7.4353246E+04   -1.7235076E+00
   4.6167054E-04   7.3765241E+04   -1.7229381E+00
   4.6380259E-04   7.3182077E+04   -1.7223688E+00
   4.6594448E-04   7.2603715E+04   -1.7217999E+00
   4.6809626E-04   7.2030112E+04   -1.7212313E+00
   4.7025797E-04   7.1461227E+04   -1.7206630E+00
   4.7242967E-04   7.0897022E+04   -1.7200949E+00
   4.7461140E-04   7.0337455E+04   -1.7195272E+00
   4.7680321E-04   6.9782487E+04   -1.7189598E+00
   4.7900514E-04   6.9232078E+04   -1.7183928E+00
   4.8121723E-04   6.8686191E+04   -1.7178260E+00
   4.8343954E-04   6.8144785E+04   -1.7172596E+00
   4.8567212E-04   6.7607824E+04   -1.7166935E+00
   4.8791500E-04   6.7075268E+04   -1.7161278E+00
   4.9016825E-04   6.6547081E+04   -1.7155625E+00
   4.9243189E-04   6.6023225E+04   -1.7149974E+00
   4.9470600E-04   6.5503664E+04   -1.7144328E+00
   4.9699060E-04   6.4988360E+04   -1.7138685E+00
   4.9928575E-04   6.4477277E+04   -1.7133046E+00
   5.0159151E-04   6.3970380E+04   -1.7127411E+00
   5.0390791E-04   6.3467632E+04   -1.7121780E+00
   5.0623501E-04   6.2968999E+04   -1.7116152E+00
   5.0857286E-04   6.2474445E+04   -1.7110529E+00
   5.1092150E-04   6.1983936E+04   -1.7104909E+00
   5.1328099E-04   6.1497438E+04   -1.7099294E+00
   5.1565137E-04   6.1014916E+04   -1.7093682E+00
   5.1803270E-04   6.0536336E+04   -1.7088075E+00
   5.2042503E-04   6.0061665E+04   -1.7082472E+00
   5.2282841E-04   5.9590870E+04   -1.7076874E+00
   5.2524289E-04   5.9123917E+04   -1.7071280E+00
   5.2766851E-04   5.8660775E+04   -1.7065690E+00
   5.3010534E-04   5.8201410E+04   -1.7060105E+00
   5.3255342E-04   5.7745791E+04   -1.7054524E+00
   5.3501281E-04   5.7293887E+04   -1.7048947E+00
   5.3748356E-04   5.6845664E+04   -1.7043376E+00
   5.3996571E-04   5.6401093E+04   -1.7037809E+00
   5.4245933E-04   5.5960143E+04   -1.7032247E+00
   5.4496446E-04   5.5522782E+04   -1.7026689E+00
   5.4748117E-04   5.5088980E+04   -1.7021137E+00
   5.5000949E-04   5.4658707E+04   -1.7015589E+00
   5.5254949E-04   5.4231934E+04   -1.7010046E+00
   5.5510123E-04   5.3808630E+04   -1.7004508E+00
   5.5766474E-04   5.3388766E+04   -1.6998975E+00
   5.6024010E-04   5.2972314E+04   -1.6993448E+00
   5.6282734E-04   5.2559243E+04   -1.6987925E+00
   5.6542654E-04   5.2149527E+04   -1.6982408E+00
   5.6803774E-04   5.1743136E+04   -1.6976896E+00
   5.7066099E-04   5.1340042E+04   -1.6971389E+00
   5.7329637E-04   5.0940217E+04   -1.6965887E+00
   5.7594391E-04   5.0543634E+04   -1.6960391E+00
   5.7860368E-04   5.0150266E+04   -1.6954901E+00
   5.8127573E-04   4.9760085E+04   -1.6949416E+00
   5.8396012E-04   4.9373064E+04   -1.6943936E+00
   5.8665691E-04   4.8989178E+04   -1.6938462E+00
   5.8936616E-04   4.8608398E+04   -1.6932994E+00
   5.9208791E-04   4.8230700E+04   -1.6927531E+00
   5.9482223E-04   4.7856057E+04   -1.6922074E+00
   5.9756919E-04   4.7484443E+04   -1.6916623E+00
   6.0032882E-04   4.7115833E+04   -1.6911178E+00
   6.0310120E-04   4.6750202E+04   -1.6905739E+00
   6.0588639E-04   4.6387524E+04   -1.6900305E+00
   6.0868443E-04   4.6027775E+04   -1.6894878E+00
   6.1149540E-04   4.5670931E+04   -1.6889457E+00
   6.1431935E-04   4.5316966E+04   -1.6884041E+00
   6.1715634E-04   4.4965856E+04   -1.6878632E+00
   6.2000644E-04   4.4617578E+04   -1.6873229E+00
   6.2286969E-04   4.4272108E+04   -1.6867832E+00
