#        a       HoverH0(a)       dlogHdloga_of_a(a)
   1.0000000E-04   1.0629669E+06   -1.8510525E+00
   1.0046181E-04   1.0539409E+06   -1.8505702E+00
   1.0092575E-04   1.0449939E+06   -1.8500870E+00
   1.0139184E-04   1.0361252E+06   -1.8496029E+00
   1.0186008E-04   1.0273340E+06   -1.8491180E+00
   1.0233048E-04   1.0186197E+06   -1.8486321E+00
   1.0280305E-04   1.0099815E+06   -1.8481454E+00
   1.0327781E-04   1.0014189E+06   -1.8476577E+00
   1.0375475E-04   9.9293106E+05   -1.8471692E+00
   1.0423390E-04   9.8451741E+05   -1.8466799E+00
   1.0471527E-04   9.7617725E+05   -1.8461896E+00
   1.0519885E-04   9.6790994E+05   -1.8456985E+00
   1.0568467E-04   9.5971481E+05   -1.8452065E+00
   1.0617274E-04   9.5159123E+05   -1.8447136E+00
   1.0666305E-04   9.4353855E+05   -1.8442199E+00
   1.0715563E-04   9.3555615E+05   -1.8437254E+00
   1.0765049E-04   9.2764340E+05   -1.8432299E+00
   1.0814763E-04   9.1979968E+05   -1.8427336E+00
   1.0864707E-04   9.1202437E+05   -1.8422365E+00
   1.0914881E-04   9.0431685E+05   -1.8417385E+00
   1.0965287E-04   8.9667653E+05   -1.8412397E+00
   1.1015926E-04   8.8910281E+05   -1.8407401E+00
   1.1066799E-04   8.8159508E+05   -1.8402396E+00
   1.1117906E-04   8.7415277E+05   -1.8397382E+00
   1.1169250E-04   8.6677530E+05   -1.8392361E+00
   1.1220831E-04   8.5946207E+05   -1.8387331E+00
   1.1272650E-04   8.5221252E+05   -1.8382293E+00
   1.1324708E-04   8.4502609E+05   -1.8377247E+00
   1.1377007E-04   8.3790221E+05   -1.8372192E+00
   1.1429547E-04   8.3084033E+05   -1.8367130E+00
   1.1482330E-04   8.2383988E+05   -1.8362059E+00
   1.1535356E-04   8.1690033E+05   -1.8356980E+00
   1.1588628E-04   8.1002113E+05   -1.8351894E+00
   1.1642145E-04   8.0320174E+05   -1.8346799E+00
   1.1695910E-04   7.9644164E+05   -1.8341696E+00
   1.1749923E-04   7.8974029E+05   -1.8336586E+00
   1.1804185E-04   7.8309717E+05   -1.8331467E+00
   1.1858698E-04   7.7651176E+05   -1.8326341E+00
   1.1913463E-04   7.6998356E+05   -1.8321207E+00
   1.1968481E-04   7.6351204E+05   -1.8316065E+00
   1.2023752E-04   7.5709671E+05   -1.8310915E+00
   1.2079279E-04   7.5073707E+05   -1.8305757E+00
   1.2135063E-04   7.4443262E+05   -1.8300592E+00
   1.2191104E-04   7.3818287E+05   -1.8295420E+00
   1.2247403E-04   7.3198734E+05   -1.8290239E+00
   1.2303963E-04   7.2584554E+05   -1.8285052E+00
   1.2360784E-04   7.1975699E+05   -1.8279856E+00
   1.2417868E-04   7.1372122E+05   -1.8274653E+00
   1.2475215E-04   7.0773777E+05   -1.8269443E+00
   1.2532826E-04   7.0180616E+05   -1.8264225E+00
   1.2590704E-04   6.9592594E+05   -1.8259000E+00
   1.2648850E-04   6.9009666E+05   -1.8253768E+00
   1.2707263E-04   6.8431785E+05   -1.8248529E+00
   1.2765947E-04   6.7858907E+05   -1.8243282E+00
   1.2824901E-04   6.7290988E+05   -1.8238028E+00
   1.2884128E-04   6.6727984E+05   -1.8232767E+00
   1.2943628E-04   6.6169850E+05   -1.8227498E+00
   1.3003403E-04   6.5616545E+05   -1.8222223E+00
   1.3063454E-04   6.5068024E+05   -1.8216940E+00
   1.3123783E-04   6.4524246E+05   -1.8211651E+00
   1.3184390E-04   6.3985168E+05   -1.8206355E+00
   1.3245277E-04   6.3450749E+05   -1.8201052E+00
   1.3306445E-04   6.2920947E+05   -1.8195741E+00
   1.3367895E-04   6.2395722E+05   -1.8190425E+00
   1.3429630E-04   6.1875033E+05   -1.8185101E+00
   1.3491649E-04   6.1358839E+05   -1.8179771E+00
   1.3553955E-04   6.0847101E+05   -1.8174433E+00
   1.3616548E-04   6.0339780E+05   -1.8169090E+00
   1.3679431E-04   5.9836836E+05   -1.8163739E+00
   1.3742604E-04   5.9338231E+05   -1.8158383E+00
   1.3806069E-04   5.8843926E+05   -1.8153019E+00
   1.3869827E-04   5.8353883E+05   -1.8147649E+00
   1.3933879E-04   5.7868064E+05   -1.8142273E+00
   1.3998227E-04   5.7386431E+05   -1.8136891E+00
   1.4062872E-04   5.6908949E+05   -1.8131502E+00
   1.4127816E-04   5.6435580E+05   -1.8126106E+00
   1.4193060E-04   5.5966287E+05   -1.8120705E+00
   1.4258605E-04   5.5501035E+05   -1.8115297E+00
   1.4324453E-04   5.5039788E+05   -1.8109884E+00
   1.4390605E-04   5.4582510E+05   -1.8104464E+00
   1.4457062E-04   5.4129167E+05   -1.8099038E+00
   1.4523826E-04   5.3679723E+05   -1.8093606E+00
   1.4590899E-04   5.3234145E+05   -1.8088168E+00
   1.4658281E-04   5.2792397E+05   -1.8082724E+00
   1.4725974E-04   5.2354447E+05   -1.8077275E+00
   1.4793981E-04   5.1920260E+05   -1.8071819E+00
   1.4862301E-04   5.1489803E+05   -1.8066358E+00
   1.4930936E-04   5.1063044E+05   -1.8060891E+00
   1.4999889E-04   5.0639949E+05   -1.8055419E+00
   1.5069160E-04   5.0220487E+05   -1.8049941E+00
   1.5138751E-04   4.9804625E+05   -1.8044457E+00
   1.5208663E-04   4.9392331E+05   -1.8038968E+00
   1.5278899E-04   4.8983575E+05   -1.8033473E+00
   1.5349458E-04   4.8578324E+05   -1.8027973E+00
   1.5420343E-04   4.8176548E+05   -1.8022468E+00
   1.5491556E-04   4.7778217E+05   -1.8016957E+00
   1.5563098E-04   4.7383299E+05   -1.8011441E+00
   1.5634970E-04   4.6991765E+05   -1.8005920E+00
   1.5707174E-04   4.6603585E+05   -1.8000394E+00
   1.5779711E-04   4.6218729E+05   -1.7994862E+00
   1.5852584E-04   4.5837168E+05   -1.7989326E+00
   1.5925792E-04   4.5458873E+05   -1.7983784E+00
   1.5999339E-04   4.5083816E+05   -1.7978238E+00
   1.6073226E-04   4.4711967E+05   -1.7972687E+00
   1.6147454E-04   4.4343298E+05   -1.7967131E+00
   1.6222024E-04   4.3977782E+05   -1.7961570E+00
   1.6296939E-04   4.3615391E+05   -1.7956004E+00
   1.6372200E-04   4.3256097E+05   -1.7950434E+00
   1.6447809E-04   4.2899873E+05   -1.7944859E+00
   1.6523767E-04   4.2546692E+05   -1.7939279E+00
   1.6600075E-04   4.2196527E+05   -1.7933695E+00
   1.6676736E-04   4.1849352E+05   -1.7928106E+00
   1.6753751E-04   4.1505140E+05   -1.7922514E+00
   1.6831122E-04   4.1163865E+05   -1.7916916E+00
   1.6908849E-04   4.0825501E+05   -1.7911315E+00
   1.6986936E-04   4.0490024E+05   -1.7905709E+00
   1.7065384E-04   4.0157407E+05   -1.7900099E+00
   1.7144193E-04   3.9827625E+05   -1.7894485E+00
   1.7223367E-04   3.9500654E+05   -1.7888866E+00
   1.7302906E-04   3.9176469E+05   -1.7883244E+00
   1.7382813E-04   3.8855044E+05   -1.7877618E+00
   1.7463089E-04   3.8536357E+05   -1.7871987E+00
   1.7543735E-04   3.8220384E+05   -1.7866353E+00
   1.7624754E-04   3.7907099E+05   -1.7860715E+00
   1.7706147E-04   3.7596480E+05   -1.7855074E+00
   1.7787916E-04   3.7288503E+05   -1.7849429E+00
   1.7870062E-04   3.6983145E+05   -1.7843780E+00
   1.7952588E-04   3.6680383E+05   -1.7838127E+00
   1.8035495E-04   3.6380195E+05   -1.7832471E+00
   1.8118785E-04   3.6082557E+05   -1.7826811E+00
   1.8202459E-04   3.5787448E+05   -1.7821148E+00
   1.8286520E-04   3.5494845E+05   -1.7815482E+00
   1.8370969E-04   3.5204726E+05   -1.7809813E+00
   1.8455808E-04   3.4917070E+05   -1.7804140E+00
   1.8541039E-04   3.4631855E+05   -1.7798464E+00
   1.8626663E-04   3.4349059E+05   -1.7792785E+00
   1.8712683E-04   3.4068662E+05   -1.7787102E+00
   1.8799100E-04   3.3790642E+05   -1.7781417E+00
   1.8885917E-04   3.3514979E+05   -1.7775729E+00
   1.8973134E-04   3.3241652E+05   -1.7770038E+00
   1.9060754E-04   3.2970640E+05   -1.7764344E+00
   1.9148778E-04   3.2701924E+05   -1.7758647E+00
   1.9237209E-04   3.2435483E+05   -1.7752948E+00
   1.9326049E-04   3.2171297E+05   -1.7747246E+00
   1.9415299E-04   3.1909347E+05   -1.7741541E+00
   1.9504960E-04   3.1649613E+05   -1.7735834E+00
   1.9595036E-04   3.1392076E+05   -1.7730124E+00
   1.9685528E-04   3.1136716E+05   -1.7724412E+00
   1.9776438E-04   3.0883515E+05   -1.7718698E+00
   1.9867768E-04   3.0632454E+05   -1.7712981E+00
   1.9959519E-04   3.0383513E+05   -1.7707262E+00
   2.0051694E-04   3.0136675E+05   -1.7701540E+00
   2.0144295E-04   2.9891922E+05   -1.7695817E+00
   2.0237324E-04   2.9649234E+05   -1.7690092E+00
   2.0330782E-04   2.9408594E+05   -1.7684364E+00
   2.0424671E-04   2.9169984E+05   -1.7678635E+00
   2.0518995E-04   2.8933386E+05   -1.7672904E+00
   2.0613754E-04   2.8698784E+05   -1.7667170E+00
   2.0708950E-04   2.8466158E+05   -1.7661436E+00
   2.0804586E-04   2.8235493E+05   -1.7655699E+00
   2.0900664E-04   2.8006772E+05   -1.7649961E+00
   2.0997185E-04   2.7779976E+05   -1.7644221E+00
   2.1094152E-04   2.7555090E+05   -1.7638480E+00
   2.1191567E-04   2.7332097E+05   -1.7632737E+00
   2.1289432E-04   2.7110980E+05   -1.7626993E+00
   2.1387749E-04   2.6891723E+05   -1.7621247E+00
   2.1486520E-04   2.6674309E+05   -1.7615500E+00
   2.1585747E-04   2.6458724E+05   -1.7609752E+00
   2.1685432E-04   2.6244951E+05   -1.7604003E+00
   2.1785578E-04   2.6032973E+05   -1.7598252E+00
   2.1886186E-04   2.5822776E+05   -1.7592501E+00
   2.1987259E-04   2.5614345E+05   -1.7586749E+00
   2.2088798E-04   2.5407663E+05   -1.7580995E+00
   2.2190807E-04   2.5202715E+05   -1.7575241E+00
   2.2293286E-04   2.4999488E+05   -1.7569486E+00
   2.2396239E-04   2.4797964E+05   -1.7563731E+00
   2.2499667E-04   2.4598130E+05   -1.7557974E+00
   2.2603573E-04   2.4399972E+05   -1.7552217E+00
   2.2707958E-04   2.4203474E+05   -1.7546460E+00
   2.2812826E-04   2.4008622E+05   -1.7540701E+00
   2.2918178E-04   2.3815402E+05   -1.7534943E+00
   2.3024017E-04   2.3623799E+05   -1.7529184E+00
   2.3130344E-04   2.3433801E+05   -1.7523425E+00
   2.3237162E-04   2.3245392E+05   -1.7517665E+00
   2.3344474E-04   2.3058559E+05   -1.7511906E+00
   2.3452281E-04   2.2873288E+05   -1.7506146E+00
   2.3560586E-04   2.2689566E+05   -1.7500386E+00
   2.3669392E-04   2.2507380E+05   -1.7494626E+00
   2.3778699E-04   2.2326716E+05   -1.7488867E+00
   2.3888512E-04   2.2147561E+05   -1.7483107E+00
   2.3998831E-04   2.1969901E+05   -1.7477348E+00
   2.4109661E-04   2.1793725E+05   -1.7471588E+00
   2.4221001E-04   2.1619019E+05   -1.7465829E+00
   2.4332857E-04   2.1445770E+05   -1.7460071E+00
   2.4445228E-04   2.1273966E+05   -1.7454313E+00
   2.4558119E-04   2.1103594E+05   -1.7448555E+00
   2.4671531E-04   2.0934642E+05   -1.7442798E+00
   2.4785467E-04   2.0767098E+05   -1.7437041E+00
   2.4899928E-04   2.0600949E+05   -1.7431285E+00
   2.5014919E-04   2.0436184E+05   -1.7425530E+00
   2.5130440E-04   2.0272791E+05   -1.7419776E+00
   2.5246495E-04   2.0110757E+05   -1.7414022E+00
   2.5363086E-04   1.9950071E+05   -1.7408270E+00
   2.5480216E-04   1.9790721E+05   -1.7402518E+00
   2.5597886E-04   1.9632696E+05   -1.7396767E+00
   2.5716100E-04   1.9475985E+05   -1.7391018E+00
   2.5834859E-04   1.9320576E+05   -1.7385269E+00
   2.5954168E-04   1.9166457E+05   -1.7379522E+00
   2.6074027E-04   1.9013619E+05   -1.7373776E+00
   2.6194439E-04   1.8862049E+05   -1.7368032E+00
   2.6315408E-04   1.8711736E+05   -1.7362289E+00
   2.6436935E-04   1.8562671E+05   -1.7356547E+00
   2.6559024E-04   1.8414842E+05   -1.7350807E+00
   2.6681676E-04   1.8268239E+05   -1.7345068E+00
   2.6804895E-04   1.8122850E+05   -1.7339331E+00
   2.6928683E-04   1.7978666E+05   -1.7333596E+00
   2.7053042E-04   1.7835677E+05   -1.7327862E+00
   2.7177976E-04   1.7693871E+05   -1.7322130E+00
   2.7303487E-04   1.7553239E+05   -1.7316401E+00
   2.7429577E-04   1.7413771E+05   -1.7310673E+00
   2.7556250E-04   1.7275457E+05   -1.7304947E+00
   2.7683507E-04   1.7138286E+05   -1.7299223E+00
   2.7811353E-04   1.7002250E+05   -1.7293501E+00
   2.7939788E-04   1.6867337E+05   -1.7287782E+00
   2.8068817E-04   1.6733540E+05   -1.7282064E+00
   2.8198442E-04   1.6600847E+05   -1.7276349E+00
   2.8328665E-04   1.6469250E+05   -1.7270636E+00
   2.8459490E-04   1.6338739E+05   -1.7264926E+00
   2.8590919E-04   1.6209305E+05   -1.7259218E+00
   2.8722955E-04   1.6080939E+05   -1.7253513E+00
   2.8855600E-04   1.5953631E+05   -1.7247810E+00
   2.8988859E-04   1.5827372E+05   -1.7242110E+00
   2.9122732E-04   1.5702154E+05   -1.7236413E+00
   2.9257224E-04   1.5577968E+05   -1.7230718E+00
   2.9392337E-04   1.5454804E+05   -1.7225026E+00
   2.9528074E-04   1.5332654E+05   -1.7219337E+00
   2.9664438E-04   1.5211510E+05   -1.7213652E+00
   2.9801431E-04   1.5091362E+05   -1.7207969E+00
   2.9939057E-04   1.4972203E+05   -1.7202289E+00
   3.0077319E-04   1.4854023E+05   -1.7196612E+00
   3.0216219E-04   1.4736814E+05   -1.7190938E+00
   3.0355761E-04   1.4620569E+05   -1.7185268E+00
   3.0495947E-04   1.4505278E+05   -1.7179601E+00
   3.0636780E-04   1.4390934E+05   -1.7173937E+00
   3.0778264E-04   1.4277529E+05   -1.7168276E+00
   3.0920401E-04   1.4165054E+05   -1.7162619E+00
   3.1063195E-04   1.4053502E+05   -1.7156966E+00
   3.1206648E-04   1.3942865E+05   -1.7151316E+00
   3.1350764E-04   1.3833135E+05   -1.7145670E+00
   3.1495545E-04   1.3724304E+05   -1.7140027E+00
   3.1640994E-04   1.3616365E+05   -1.7134389E+00
   3.1787116E-04   1.3509309E+05   -1.7128754E+00
   3.1933912E-04   1.3403130E+05   -1.7123122E+00
   3.2081386E-04   1.3297821E+05   -1.7117495E+00
   3.2229541E-04   1.3193372E+05   -1.7111872E+00
   3.2378381E-04   1.3089779E+05   -1.7106253E+00
   3.2527908E-04   1.2987032E+05   -1.7100637E+00
   3.2678125E-04   1.2885125E+05   -1.7095026E+00
   3.2829036E-04   1.2784050E+05   -1.7089419E+00
   3.2980644E-04   1.2683801E+05   -1.7083817E+00
   3.3132952E-04   1.2584371E+05   -1.7078218E+00
   3.3285963E-04   1.2485753E+05   -1.7072624E+00
   3.3439681E-04   1.2387939E+05   -1.7067035E+00
   3.3594109E-04   1.2290923E+05   -1.7061449E+00
   3.3749250E-04   1.2194698E+05   -1.7055869E+00
   3.3905108E-04   1.2099258E+05   -1.7050293E+00
   3.4061685E-04   1.2004596E+05   -1.7044721E+00
   3.4218986E-04   1.1910704E+05   -1.7039154E+00
   3.4377013E-04   1.1817578E+05   -1.7033592E+00
   3.4535769E-04   1.1725209E+05   -1.7028035E+00
   3.4695259E-04   1.1633592E+05   -1.7022482E+00
   3.4855485E-04   1.1542721E+05   -1.7016935E+00
   3.5016452E-04   1.1452589E+05   -1.7011392E+00
   3.5178161E-04   1.1363189E+05   -1.7005854E+00
   3.5340618E-04   1.1274516E+05   -1.7000321E+00
   3.5503824E-04   1.1186564E+05   -1.6994794E+00
   3.5667785E-04   1.1099326E+05   -1.6989271E+00
   3.5832502E-04   1.1012796E+05   -1.6983754E+00
   3.5997981E-04   1.0926969E+05   -1.6978242E+00
   3.6164223E-04   1.0841838E+05   -1.6972735E+00
   3.6331233E-04   1.0757397E+05   -1.6967234E+00
   3.6499015E-04   1.0673642E+05   -1.6961738E+00
   3.6667571E-04   1.0590565E+05   -1.6956247E+00
   3.6836906E-04   1.0508161E+05   -1.6950762E+00
   3.7007022E-04   1.0426425E+05   -1.6945283E+00
   3.7177925E-04   1.0345351E+05   -1.6939809E+00
   3.7349616E-04   1.0264933E+05   -1.6934340E+00
   3.7522101E-04   1.0185165E+05   -1.6928878E+00
   3.7695382E-04   1.0106044E+05   -1.6923421E+00
   3.7869463E-04   1.0027561E+05   -1.6917970E+00
   3.8044348E-04   9.9497139E+04   -1.6912525E+00
   3.8220041E-04   9.8724954E+04   -1.6907085E+00
   3.8396545E-04   9.7959008E+04   -1.6901652E+00
   3.8573864E-04   9.7199247E+04   -1.6896224E+00
   3.8752002E-04   9.6445619E+04   -1.6890803E+00
   3.8930963E-04   9.5698074E+04   -1.6885388E+00
   3.9110750E-04   9.4956560E+04   -1.6879979E+00
   3.9291368E-04   9.4221026E+04   -1.6874575E+00
   3.9472820E-04   9.3491422E+04   -1.6869179E+00
   3.9655109E-04   9.2767698E+04   -1.6863788E+00
   3.9838241E-04   9.2049805E+04   -1.6858404E+00
   4.0022218E-04   9.1337694E+04   -1.6853026E+00
   4.0207045E-04   9.0631317E+04   -1.6847655E+00
   4.0392725E-04   8.9930625E+04   -1.6842289E+00
   4.0579263E-04   8.9235570E+04   -1.6836931E+00
   4.0766662E-04   8.8546107E+04   -1.6831579E+00
   4.0954927E-04   8.7862186E+04   -1.6826234E+00
   4.1144061E-04   8.7183763E+04   -1.6820895E+00
   4.1334068E-04   8.6510791E+04   -1.6815563E+00
   4.1524953E-04   8.5843224E+04   -1.6810237E+00
   4.1716720E-04   8.5181017E+04   -1.6804919E+00
   4.1909372E-04   8.4524126E+04   -1.6799607E+00
   4.2102914E-04   8.3872506E+04   -1.6794302E+00
   4.2297350E-04   8.3226112E+04   -1.6789004E+00
   4.2492683E-04   8.2584901E+04   -1.6783712E+00
   4.2688919E-04   8.1948831E+04   -1.6778428E+00
   4.2886061E-04   8.1317857E+04   -1.6773151E+00
   4.3084113E-04   8.0691938E+04   -1.6767881E+00
   4.3283080E-04   8.0071031E+04   -1.6762618E+00
   4.3482966E-04   7.9455094E+04   -1.6757362E+00
   4.3683775E-04   7.8844086E+04   -1.6752113E+00
   4.3885511E-04   7.8237965E+04   -1.6746872E+00
   4.4088179E-04   7.7636692E+04   -1.6741637E+00
   4.4291783E-04   7.7040225E+04   -1.6736411E+00
   4.4496327E-04   7.6448524E+04   -1.6731191E+00
   4.4701816E-04   7.5861551E+04   -1.6725979E+00
   4.4908253E-04   7.5279265E+04   -1.6720774E+00
   4.5115644E-04   7.4701627E+04   -1.6715577E+00
   4.5323993E-04   7.4128599E+04   -1.6710387E+00
   4.5533304E-04   7.3560142E+04   -1.6705205E+00
   4.5743582E-04   7.2996219E+04   -1.6700030E+00
   4.5954830E-04   7.2436792E+04   -1.6694863E+00
   4.6167054E-04   7.1881823E+04   -1.6689703E+00
   4.6380259E-04   7.1331275E+04   -1.6684552E+00
   4.6594448E-04   7.0785112E+04   -1.6679408E+00
   4.6809626E-04   7.0243297E+04   -1.6674271E+00
   4.7025797E-04   6.9705794E+04   -1.6669143E+00
   4.7242967E-04   6.9172567E+04   -1.6664022E+00
   4.7461140E-04   6.8643581E+04   -1.6658910E+00
   4.7680321E-04   6.8118801E+04   -1.6653805E+00
   4.7900514E-04   6.7598191E+04   -1.6648708E+00
   4.8121723E-04   6.7081718E+04   -1.6643619E+00
   4.8343954E-04   6.6569347E+04   -1.6638538E+00
   4.8567212E-04   6.6061044E+04   -1.6633465E+00
   4.8791500E-04   6.5556776E+04   -1.6628401E+00
   4.9016825E-04   6.5056508E+04   -1.6623344E+00
   4.9243189E-04   6.4560208E+04   -1.6618295E+00
   4.9470600E-04   6.4067843E+04   -1.6613255E+00
   4.9699060E-04   6.3579381E+04   -1.6608223E+00
   4.9928575E-04   6.3094789E+04   -1.6603199E+00
   5.0159151E-04   6.2614035E+04   -1.6598184E+00
   5.0390791E-04   6.2137088E+04   -1.6593177E+00
   5.0623501E-04   6.1663916E+04   -1.6588178E+00
   5.0857286E-04   6.1194488E+04   -1.6583187E+00
   5.1092150E-04   6.0728773E+04   -1.6578205E+00
   5.1328099E-04   6.0266740E+04   -1.6573232E+00
   5.1565137E-04   5.9808360E+04   -1.6568267E+00
   5.1803270E-04   5.9353602E+04   -1.6563310E+00
   5.2042503E-04   5.8902436E+04   -1.6558362E+00
   5.2282841E-04   5.8454833E+04   -1.6553423E+00
   5.2524289E-04   5.8010763E+04   -1.6548492E+00
   5.2766851E-04   5.7570197E+04   -1.6543569E+00
   5.3010534E-04   5.7133106E+04   -1.6538656E+00
   5.3255342E-04   5.6699463E+04   -1.6533751E+00
   5.3501281E-04   5.6269237E+04   -1.6528855E+00
   5.3748356E-04   5.5842402E+04   -1.6523967E+00
   5.3996571E-04   5.5418930E+04   -1.6519089E+00
   5.4245933E-04   5.4998792E+04   -1.6514219E+00
   5.4496446E-04   5.4581962E+04   -1.6509358E+00
   5.4748117E-04   5.4168412E+04   -1.6504506E+00
   5.5000949E-04   5.3758116E+04   -1.6499662E+00
   5.5254949E-04   5.3351046E+04   -1.6494828E+00
   5.5510123E-04   5.2947176E+04   -1.6490002E+00
   5.5766474E-04   5.2546481E+04   -1.6485186E+00
   5.6024010E-04   5.2148933E+04   -1.6480378E+00
   5.6282734E-04   5.1754508E+04   -1.6475580E+00
   5.6542654E-04   5.1363180E+04   -1.6470791E+00
   5.6803774E-04   5.0974922E+04   -1.6466010E+00
   5.7066099E-04   5.0589711E+04   -1.6461239E+00
   5.7329637E-04   5.0207521E+04   -1.6456477E+00
   5.7594391E-04   4.9828328E+04   -1.6451724E+00
   5.7860368E-04   4.9452107E+04   -1.6446980E+00
   5.8127573E-04   4.9078834E+04   -1.6442245E+00
   5.8396012E-04   4.8708484E+04   -1.6437520E+00
   5.8665691E-04   4.8341034E+04   -1.6432804E+00
   5.8936616E-04   4.7976460E+04   -1.6428097E+00
   5.9208791E-04   4.7614739E+04   -1.6423399E+00
   5.9482223E-04   4.7255848E+04   -1.6418711E+00
   5.9756919E-04   4.6899762E+04   -1.6414031E+00
   6.0032882E-04   4.6546460E+04   -1.6409362E+00
   6.0310120E-04   4.6195919E+04   -1.6404701E+00
   6.0588639E-04   4.5848116E+04   -1.6400050E+00
   6.0868443E-04   4.5503029E+04   -1.6395409E+00
   6.1149540E-04   4.5160636E+04   -1.6390777E+00
   6.1431935E-04   4.4820915E+04   -1.6386154E+00
   6.1715634E-04   4.4483844E+04   -1.6381541E+00
   6.2000644E-04   4.4149402E+04   -1.6376937E+00
   6.2286969E-04   4.3817567E+04   -1.6372343E+00
