#        a       HoverH0(a)       dlogHdloga_of_a(a)
   1.0000000E-04   1.0693650E+06   -1.8566179E+00
   1.0046181E-04   1.0602575E+06   -1.8561463E+00
   1.0092575E-04   1.0512298E+06   -1.8556737E+00
   1.0139184E-04   1.0422813E+06   -1.8552002E+00
   1.0186008E-04   1.0334112E+06   -1.8547258E+00
   1.0233048E-04   1.0246188E+06   -1.8542504E+00
   1.0280305E-04   1.0159035E+06   -1.8537742E+00
   1.0327781E-04   1.0072645E+06   -1.8532970E+00
   1.0375475E-04   9.9870118E+05   -1.8528189E+00
   1.0423390E-04   9.9021284E+05   -1.8523399E+00
   1.0471527E-04   9.8179880E+05   -1.8518601E+00
   1.0519885E-04   9.7345842E+05   -1.8513793E+00
   1.0568467E-04   9.6519103E+05   -1.8508976E+00
   1.0617274E-04   9.5699598E+05   -1.8504150E+00
   1.0666305E-04   9.4887262E+05   -1.8499315E+00
   1.0715563E-04   9.4082031E+05   -1.8494471E+00
   1.0765049E-04   9.3283842E+05   -1.8489619E+00
   1.0814763E-04   9.2492632E+05   -1.8484757E+00
   1.0864707E-04   9.1708339E+05   -1.8479887E+00
   1.0914881E-04   9.0930900E+05   -1.8475008E+00
   1.0965287E-04   9.0160254E+05   -1.8470120E+00
   1.1015926E-04   8.9396341E+05   -1.8465224E+00
   1.1066799E-04   8.8639101E+05   -1.8460318E+00
   1.1117906E-04   8.7888474E+05   -1.8455404E+00
   1.1169250E-04   8.7144401E+05   -1.8450481E+00
   1.1220831E-04   8.6406823E+05   -1.8445550E+00
   1.1272650E-04   8.5675683E+05   -1.8440610E+00
   1.1324708E-04   8.4950924E+05   -1.8435662E+00
   1.1377007E-04   8.4232487E+05   -1.8430705E+00
   1.1429547E-04   8.3520318E+05   -1.8425739E+00
   1.1482330E-04   8.2814359E+05   -1.8420765E+00
   1.1535356E-04   8.2114556E+05   -1.8415783E+00
   1.1588628E-04   8.1420853E+05   -1.8410792E+00
   1.1642145E-04   8.0733196E+05   -1.8405793E+00
   1.1695910E-04   8.0051532E+05   -1.8400785E+00
   1.1749923E-04   7.9375807E+05   -1.8395769E+00
   1.1804185E-04   7.8705967E+05   -1.8390745E+00
   1.1858698E-04   7.8041961E+05   -1.8385712E+00
   1.1913463E-04   7.7383736E+05   -1.8380671E+00
   1.1968481E-04   7.6731242E+05   -1.8375623E+00
   1.2023752E-04   7.6084426E+05   -1.8370566E+00
   1.2079279E-04   7.5443239E+05   -1.8365500E+00
   1.2135063E-04   7.4807630E+05   -1.8360427E+00
   1.2191104E-04   7.4177549E+05   -1.8355346E+00
   1.2247403E-04   7.3552948E+05   -1.8350256E+00
   1.2303963E-04   7.2933778E+05   -1.8345159E+00
   1.2360784E-04   7.2319989E+05   -1.8340054E+00
   1.2417868E-04   7.1711535E+05   -1.8334941E+00
   1.2475215E-04   7.1108367E+05   -1.8329820E+00
   1.2532826E-04   7.0510440E+05   -1.8324691E+00
   1.2590704E-04   6.9917705E+05   -1.8319554E+00
   1.2648850E-04   6.9330117E+05   -1.8314409E+00
   1.2707263E-04   6.8747631E+05   -1.8309257E+00
   1.2765947E-04   6.8170200E+05   -1.8304097E+00
   1.2824901E-04   6.7597780E+05   -1.8298930E+00
   1.2884128E-04   6.7030327E+05   -1.8293755E+00
   1.2943628E-04   6.6467795E+05   -1.8288572E+00
   1.3003403E-04   6.5910142E+05   -1.8283382E+00
   1.3063454E-04   6.5357324E+05   -1.8278184E+00
   1.3123783E-04   6.4809298E+05   -1.8272979E+00
   1.3184390E-04   6.4266022E+05   -1.8267766E+00
   1.3245277E-04   6.3727453E+05   -1.8262546E+00
   1.3306445E-04   6.3193549E+05   -1.8257319E+00
   1.3367895E-04   6.2664269E+05   -1.8252084E+00
   1.3429630E-04   6.2139572E+05   -1.8246842E+00
   1.3491649E-04   6.1619418E+05   -1.8241593E+00
   1.3553955E-04   6.1103765E+05   -1.8236336E+00
   1.3616548E-04   6.0592575E+05   -1.8231073E+00
   1.3679431E-04   6.0085807E+05   -1.8225802E+00
   1.3742604E-04   5.9583422E+05   -1.8220525E+00
   1.3806069E-04   5.9085381E+05   -1.8215240E+00
   1.3869827E-04   5.8591646E+05   -1.8209948E+00
   1.3933879E-04   5.8102179E+05   -1.8204650E+00
   1.3998227E-04   5.7616941E+05   -1.8199344E+00
   1.4062872E-04   5.7135896E+05   -1.8194032E+00
   1.4127816E-04   5.6659005E+05   -1.8188713E+00
   1.4193060E-04   5.6186233E+05   -1.8183387E+00
   1.4258605E-04   5.5717542E+05   -1.8178054E+00
   1.4324453E-04   5.5252897E+05   -1.8172715E+00
   1.4390605E-04   5.4792262E+05   -1.8167369E+00
   1.4457062E-04   5.4335601E+05   -1.8162017E+00
   1.4523826E-04   5.3882879E+05   -1.8156658E+00
   1.4590899E-04   5.3434061E+05   -1.8151292E+00
   1.4658281E-04   5.2989112E+05   -1.8145921E+00
   1.4725974E-04   5.2547999E+05   -1.8140542E+00
   1.4793981E-04   5.2110687E+05   -1.8135158E+00
   1.4862301E-04   5.1677142E+05   -1.8129767E+00
   1.4930936E-04   5.1247332E+05   -1.8124369E+00
   1.4999889E-04   5.0821223E+05   -1.8118966E+00
   1.5069160E-04   5.0398783E+05   -1.8113556E+00
   1.5138751E-04   4.9979979E+05   -1.8108141E+00
   1.5208663E-04   4.9564779E+05   -1.8102719E+00
   1.5278899E-04   4.9153150E+05   -1.8097291E+00
   1.5349458E-04   4.8745063E+05   -1.8091857E+00
   1.5420343E-04   4.8340484E+05   -1.8086417E+00
   1.5491556E-04   4.7939384E+05   -1.8080972E+00
   1.5563098E-04   4.7541731E+05   -1.8075520E+00
   1.5634970E-04   4.7147495E+05   -1.8070063E+00
   1.5707174E-04   4.6756646E+05   -1.8064600E+00
   1.5779711E-04   4.6369154E+05   -1.8059131E+00
   1.5852584E-04   4.5984989E+05   -1.8053657E+00
   1.5925792E-04   4.5604122E+05   -1.8048177E+00
   1.5999339E-04   4.5226523E+05   -1.8042691E+00
   1.6073226E-04   4.4852165E+05   -1.8037200E+00
   1.6147454E-04   4.4481017E+05   -1.8031704E+00
   1.6222024E-04   4.4113053E+05   -1.8026202E+00
   1.6296939E-04   4.3748244E+05   -1.8020695E+00
   1.6372200E-04   4.3386562E+05   -1.8015183E+00
   1.6447809E-04   4.3027979E+05   -1.8009665E+00
   1.6523767E-04   4.2672469E+05   -1.8004142E+00
   1.6600075E-04   4.2320003E+05   -1.7998614E+00
   1.6676736E-04   4.1970556E+05   -1.7993081E+00
   1.6753751E-04   4.1624100E+05   -1.7987543E+00
   1.6831122E-04   4.1280610E+05   -1.7982000E+00
   1.6908849E-04   4.0940059E+05   -1.7976452E+00
   1.6986936E-04   4.0602421E+05   -1.7970899E+00
   1.7065384E-04   4.0267670E+05   -1.7965341E+00
   1.7144193E-04   3.9935782E+05   -1.7959779E+00
   1.7223367E-04   3.9606731E+05   -1.7954211E+00
   1.7302906E-04   3.9280492E+05   -1.7948640E+00
   1.7382813E-04   3.8957040E+05   -1.7943063E+00
   1.7463089E-04   3.8636351E+05   -1.7937482E+00
   1.7543735E-04   3.8318400E+05   -1.7931897E+00
   1.7624754E-04   3.8003164E+05   -1.7926307E+00
   1.7706147E-04   3.7690618E+05   -1.7920712E+00
   1.7787916E-04   3.7380739E+05   -1.7915113E+00
   1.7870062E-04   3.7073504E+05   -1.7909510E+00
   1.7952588E-04   3.6768888E+05   -1.7903903E+00
   1.8035495E-04   3.6466870E+05   -1.7898292E+00
   1.8118785E-04   3.6167426E+05   -1.7892676E+00
   1.8202459E-04   3.5870534E+05   -1.7887057E+00
   1.8286520E-04   3.5576171E+05   -1.7881433E+00
   1.8370969E-04   3.5284315E+05   -1.7875805E+00
   1.8455808E-04   3.4994944E+05   -1.7870174E+00
   1.8541039E-04   3.4708036E+05   -1.7864539E+00
   1.8626663E-04   3.4423570E+05   -1.7858899E+00
   1.8712683E-04   3.4141525E+05   -1.7853257E+00
   1.8799100E-04   3.3861878E+05   -1.7847610E+00
   1.8885917E-04   3.3584609E+05   -1.7841960E+00
   1.8973134E-04   3.3309697E+05   -1.7836306E+00
   1.9060754E-04   3.3037122E+05   -1.7830649E+00
   1.9148778E-04   3.2766862E+05   -1.7824988E+00
   1.9237209E-04   3.2498899E+05   -1.7819324E+00
   1.9326049E-04   3.2233210E+05   -1.7813657E+00
   1.9415299E-04   3.1969777E+05   -1.7807986E+00
   1.9504960E-04   3.1708581E+05   -1.7802312E+00
   1.9595036E-04   3.1449600E+05   -1.7796635E+00
   1.9685528E-04   3.1192816E+05   -1.7790955E+00
   1.9776438E-04   3.0938210E+05   -1.7785272E+00
   1.9867768E-04   3.0685763E+05   -1.7779585E+00
   1.9959519E-04   3.0435455E+05   -1.7773896E+00
   2.0051694E-04   3.0187268E+05   -1.7768204E+00
   2.0144295E-04   2.9941183E+05   -1.7762509E+00
   2.0237324E-04   2.9697183E+05   -1.7756812E+00
   2.0330782E-04   2.9455248E+05   -1.7751111E+00
   2.0424671E-04   2.9215361E+05   -1.7745408E+00
   2.0518995E-04   2.8977503E+05   -1.7739703E+00
   2.0613754E-04   2.8741658E+05   -1.7733995E+00
   2.0708950E-04   2.8507808E+05   -1.7728284E+00
   2.0804586E-04   2.8275934E+05   -1.7722571E+00
   2.0900664E-04   2.8046020E+05   -1.7716856E+00
   2.0997185E-04   2.7818049E+05   -1.7711139E+00
   2.1094152E-04   2.7592004E+05   -1.7705419E+00
   2.1191567E-04   2.7367868E+05   -1.7699697E+00
   2.1289432E-04   2.7145624E+05   -1.7693973E+00
   2.1387749E-04   2.6925256E+05   -1.7688247E+00
   2.1486520E-04   2.6706747E+05   -1.7682518E+00
   2.1585747E-04   2.6490081E+05   -1.7676788E+00
   2.1685432E-04   2.6275243E+05   -1.7671056E+00
   2.1785578E-04   2.6062215E+05   -1.7665323E+00
   2.1886186E-04   2.5850984E+05   -1.7659587E+00
   2.1987259E-04   2.5641532E+05   -1.7653850E+00
   2.2088798E-04   2.5433844E+05   -1.7648111E+00
   2.2190807E-04   2.5227905E+05   -1.7642371E+00
   2.2293286E-04   2.5023700E+05   -1.7636629E+00
   2.2396239E-04   2.4821213E+05   -1.7630886E+00
   2.2499667E-04   2.4620430E+05   -1.7625141E+00
   2.2603573E-04   2.4421336E+05   -1.7619395E+00
   2.2707958E-04   2.4223916E+05   -1.7613648E+00
   2.2812826E-04   2.4028156E+05   -1.7607899E+00
   2.2918178E-04   2.3834041E+05   -1.7602149E+00
   2.3024017E-04   2.3641556E+05   -1.7596399E+00
   2.3130344E-04   2.3450688E+05   -1.7590647E+00
   2.3237162E-04   2.3261423E+05   -1.7584894E+00
   2.3344474E-04   2.3073746E+05   -1.7579141E+00
   2.3452281E-04   2.2887645E+05   -1.7573386E+00
   2.3560586E-04   2.2703104E+05   -1.7567631E+00
   2.3669392E-04   2.2520112E+05   -1.7561875E+00
   2.3778699E-04   2.2338653E+05   -1.7556118E+00
   2.3888512E-04   2.2158715E+05   -1.7550361E+00
   2.3998831E-04   2.1980285E+05   -1.7544603E+00
   2.4109661E-04   2.1803350E+05   -1.7538845E+00
   2.4221001E-04   2.1627896E+05   -1.7533086E+00
   2.4332857E-04   2.1453912E+05   -1.7527327E+00
   2.4445228E-04   2.1281383E+05   -1.7521568E+00
   2.4558119E-04   2.1110297E+05   -1.7515808E+00
   2.4671531E-04   2.0940643E+05   -1.7510049E+00
   2.4785467E-04   2.0772407E+05   -1.7504289E+00
   2.4899928E-04   2.0605578E+05   -1.7498529E+00
   2.5014919E-04   2.0440142E+05   -1.7492769E+00
   2.5130440E-04   2.0276089E+05   -1.7487009E+00
   2.5246495E-04   2.0113406E+05   -1.7481249E+00
   2.5363086E-04   1.9952081E+05   -1.7475490E+00
   2.5480216E-04   1.9792102E+05   -1.7469731E+00
   2.5597886E-04   1.9633458E+05   -1.7463972E+00
   2.5716100E-04   1.9476138E+05   -1.7458213E+00
   2.5834859E-04   1.9320129E+05   -1.7452455E+00
   2.5954168E-04   1.9165421E+05   -1.7446698E+00
   2.6074027E-04   1.9012002E+05   -1.7440941E+00
   2.6194439E-04   1.8859861E+05   -1.7435184E+00
   2.6315408E-04   1.8708988E+05   -1.7429429E+00
   2.6436935E-04   1.8559370E+05   -1.7423674E+00
   2.6559024E-04   1.8410998E+05   -1.7417919E+00
   2.6681676E-04   1.8263861E+05   -1.7412166E+00
   2.6804895E-04   1.8117947E+05   -1.7406414E+00
   2.6928683E-04   1.7973247E+05   -1.7400662E+00
   2.7053042E-04   1.7829749E+05   -1.7394912E+00
   2.7177976E-04   1.7687445E+05   -1.7389163E+00
   2.7303487E-04   1.7546322E+05   -1.7383415E+00
   2.7429577E-04   1.7406371E+05   -1.7377668E+00
   2.7556250E-04   1.7267583E+05   -1.7371922E+00
   2.7683507E-04   1.7129946E+05   -1.7366178E+00
   2.7811353E-04   1.6993452E+05   -1.7360435E+00
   2.7939788E-04   1.6858089E+05   -1.7354694E+00
   2.8068817E-04   1.6723850E+05   -1.7348954E+00
   2.8198442E-04   1.6590723E+05   -1.7343216E+00
   2.8328665E-04   1.6458699E+05   -1.7337480E+00
   2.8459490E-04   1.6327769E+05   -1.7331745E+00
   2.8590919E-04   1.6197923E+05   -1.7326012E+00
   2.8722955E-04   1.6069152E+05   -1.7320281E+00
   2.8855600E-04   1.5941447E+05   -1.7314551E+00
   2.8988859E-04   1.5814799E+05   -1.7308824E+00
   2.9122732E-04   1.5689199E+05   -1.7303099E+00
   2.9257224E-04   1.5564636E+05   -1.7297375E+00
   2.9392337E-04   1.5441104E+05   -1.7291654E+00
   2.9528074E-04   1.5318592E+05   -1.7285935E+00
   2.9664438E-04   1.5197093E+05   -1.7280218E+00
   2.9801431E-04   1.5076597E+05   -1.7274504E+00
   2.9939057E-04   1.4957095E+05   -1.7268792E+00
   3.0077319E-04   1.4838580E+05   -1.7263082E+00
   3.0216219E-04   1.4721043E+05   -1.7257375E+00
   3.0355761E-04   1.4604475E+05   -1.7251671E+00
   3.0495947E-04   1.4488868E+05   -1.7245969E+00
   3.0636780E-04   1.4374214E+05   -1.7240270E+00
   3.0778264E-04   1.4260505E+05   -1.7234573E+00
   3.0920401E-04   1.4147732E+05   -1.7228879E+00
   3.1063195E-04   1.4035888E+05   -1.7223188E+00
   3.1206648E-04   1.3924965E+05   -1.7217500E+00
   3.1350764E-04   1.3814954E+05   -1.7211815E+00
   3.1495545E-04   1.3705849E+05   -1.7206133E+00
   3.1640994E-04   1.3597640E+05   -1.7200454E+00
   3.1787116E-04   1.3490322E+05   -1.7194778E+00
   3.1933912E-04   1.3383885E+05   -1.7189106E+00
   3.2081386E-04   1.3278323E+05   -1.7183436E+00
   3.2229541E-04   1.3173628E+05   -1.7177770E+00
   3.2378381E-04   1.3069792E+05   -1.7172107E+00
   3.2527908E-04   1.2966809E+05   -1.7166448E+00
   3.2678125E-04   1.2864670E+05   -1.7160792E+00
   3.2829036E-04   1.2763370E+05   -1.7155140E+00
   3.2980644E-04   1.2662900E+05   -1.7149491E+00
   3.3132952E-04   1.2563254E+05   -1.7143846E+00
   3.3285963E-04   1.2464424E+05   -1.7138204E+00
   3.3439681E-04   1.2366404E+05   -1.7132566E+00
   3.3594109E-04   1.2269186E+05   -1.7126933E+00
   3.3749250E-04   1.2172764E+05   -1.7121303E+00
   3.3905108E-04   1.2077132E+05   -1.7115677E+00
   3.4061685E-04   1.1982282E+05   -1.7110054E+00
   3.4218986E-04   1.1888207E+05   -1.7104436E+00
   3.4377013E-04   1.1794902E+05   -1.7098822E+00
   3.4535769E-04   1.1702359E+05   -1.7093213E+00
   3.4695259E-04   1.1610572E+05   -1.7087607E+00
   3.4855485E-04   1.1519535E+05   -1.7082005E+00
   3.5016452E-04   1.1429241E+05   -1.7076408E+00
   3.5178161E-04   1.1339684E+05   -1.7070816E+00
   3.5340618E-04   1.1250858E+05   -1.7065227E+00
   3.5503824E-04   1.1162757E+05   -1.7059644E+00
   3.5667785E-04   1.1075374E+05   -1.7054064E+00
   3.5832502E-04   1.0988703E+05   -1.7048489E+00
   3.5997981E-04   1.0902738E+05   -1.7042919E+00
   3.6164223E-04   1.0817474E+05   -1.7037354E+00
   3.6331233E-04   1.0732904E+05   -1.7031793E+00
   3.6499015E-04   1.0649022E+05   -1.7026237E+00
   3.6667571E-04   1.0565823E+05   -1.7020686E+00
   3.6836906E-04   1.0483301E+05   -1.7015140E+00
   3.7007022E-04   1.0401449E+05   -1.7009599E+00
   3.7177925E-04   1.0320264E+05   -1.7004063E+00
   3.7349616E-04   1.0239738E+05   -1.6998532E+00
   3.7522101E-04   1.0159866E+05   -1.6993006E+00
   3.7695382E-04   1.0080643E+05   -1.6987485E+00
   3.7869463E-04   1.0002063E+05   -1.6981969E+00
   3.8044348E-04   9.9241209E+04   -1.6976459E+00
   3.8220041E-04   9.8468111E+04   -1.6970953E+00
   3.8396545E-04   9.7701283E+04   -1.6965454E+00
   3.8573864E-04   9.6940673E+04   -1.6959959E+00
   3.8752002E-04   9.6186227E+04   -1.6954470E+00
   3.8930963E-04   9.5437894E+04   -1.6948987E+00
   3.9110750E-04   9.4695623E+04   -1.6943509E+00
   3.9291368E-04   9.3959361E+04   -1.6938037E+00
   3.9472820E-04   9.3229059E+04   -1.6932570E+00
   3.9655109E-04   9.2504666E+04   -1.6927110E+00
   3.9838241E-04   9.1786132E+04   -1.6921654E+00
   4.0022218E-04   9.1073408E+04   -1.6916205E+00
   4.0207045E-04   9.0366445E+04   -1.6910762E+00
   4.0392725E-04   8.9665196E+04   -1.6905324E+00
   4.0579263E-04   8.8969610E+04   -1.6899893E+00
   4.0766662E-04   8.8279642E+04   -1.6894467E+00
   4.0954927E-04   8.7595243E+04   -1.6889047E+00
   4.1144061E-04   8.6916367E+04   -1.6883634E+00
   4.1334068E-04   8.6242967E+04   -1.6878227E+00
   4.1524953E-04   8.5574998E+04   -1.6872825E+00
   4.1716720E-04   8.4912413E+04   -1.6867431E+00
   4.1909372E-04   8.4255168E+04   -1.6862042E+00
   4.2102914E-04   8.3603217E+04   -1.6856660E+00
   4.2297350E-04   8.2956517E+04   -1.6851284E+00
   4.2492683E-04   8.2315023E+04   -1.6845914E+00
   4.2688919E-04   8.1678691E+04   -1.6840551E+00
   4.2886061E-04   8.1047480E+04   -1.6835195E+00
   4.3084113E-04   8.0421344E+04   -1.6829845E+00
   4.3283080E-04   7.9800242E+04   -1.6824501E+00
   4.3482966E-04   7.9184132E+04   -1.6819164E+00
   4.3683775E-04   7.8572971E+04   -1.6813834E+00
   4.3885511E-04   7.7966719E+04   -1.6808511E+00
   4.4088179E-04   7.7365335E+04   -1.6803194E+00
   4.4291783E-04   7.6768777E+04   -1.6797885E+00
   4.4496327E-04   7.6177005E+04   -1.6792582E+00
   4.4701816E-04   7.5589979E+04   -1.6787286E+00
   4.4908253E-04   7.5007660E+04   -1.6781997E+00
   4.5115644E-04   7.4430008E+04   -1.6776715E+00
   4.5323993E-04   7.3856985E+04   -1.6771440E+00
   4.5533304E-04   7.3288551E+04   -1.6766172E+00
   4.5743582E-04   7.2724669E+04   -1.6760911E+00
   4.5954830E-04   7.2165300E+04   -1.6755657E+00
   4.6167054E-04   7.1610406E+04   -1.6750411E+00
   4.6380259E-04   7.1059951E+04   -1.6745171E+00
   4.6594448E-04   7.0513897E+04   -1.6739939E+00
   4.6809626E-04   6.9972208E+04   -1.6734715E+00
   4.7025797E-04   6.9434847E+04   -1.6729497E+00
   4.7242967E-04   6.8901778E+04   -1.6724287E+00
   4.7461140E-04   6.8372966E+04   -1.6719085E+00
   4.7680321E-04   6.7848375E+04   -1.6713890E+00
   4.7900514E-04   6.7327970E+04   -1.6708702E+00
   4.8121723E-04   6.6811716E+04   -1.6703522E+00
   4.8343954E-04   6.6299578E+04   -1.6698350E+00
   4.8567212E-04   6.5791523E+04   -1.6693185E+00
   4.8791500E-04   6.5287517E+04   -1.6688028E+00
   4.9016825E-04   6.4787526E+04   -1.6682879E+00
   4.9243189E-04   6.4291515E+04   -1.6677737E+00
   4.9470600E-04   6.3799454E+04   -1.6672603E+00
   4.9699060E-04   6.3311308E+04   -1.6667477E+00
   4.9928575E-04   6.2827045E+04   -1.6662359E+00
   5.0159151E-04   6.2346633E+04   -1.6657249E+00
   5.0390791E-04   6.1870041E+04   -1.6652146E+00
   5.0623501E-04   6.1397235E+04   -1.6647052E+00
   5.0857286E-04   6.0928186E+04   -1.6641965E+00
   5.1092150E-04   6.0462862E+04   -1.6636887E+00
   5.1328099E-04   6.0001231E+04   -1.6631817E+00
   5.1565137E-04   5.9543265E+04   -1.6626754E+00
   5.1803270E-04   5.9088931E+04   -1.6621700E+00
   5.2042503E-04   5.8638201E+04   -1.6616654E+00
   5.2282841E-04   5.8191044E+04   -1.6611617E+00
   5.2524289E-04   5.7747431E+04   -1.6606587E+00
   5.2766851E-04   5.7307332E+04   -1.6601566E+00
   5.3010534E-04   5.6870719E+04   -1.6596553E+00
   5.3255342E-04   5.6437562E+04   -1.6591548E+00
   5.3501281E-04   5.6007834E+04   -1.6586552E+00
   5.3748356E-04   5.5581506E+04   -1.6581564E+00
   5.3996571E-04   5.5158549E+04   -1.6576585E+00
   5.4245933E-04   5.4738936E+04   -1.6571614E+00
   5.4496446E-04   5.4322640E+04   -1.6566651E+00
   5.4748117E-04   5.3909633E+04   -1.6561697E+00
   5.5000949E-04   5.3499889E+04   -1.6556752E+00
   5.5254949E-04   5.3093379E+04   -1.6551815E+00
   5.5510123E-04   5.2690078E+04   -1.6546887E+00
   5.5766474E-04   5.2289959E+04   -1.6541967E+00
   5.6024010E-04   5.1892996E+04   -1.6537056E+00
   5.6282734E-04   5.1499163E+04   -1.6532154E+00
   5.6542654E-04   5.1108434E+04   -1.6527260E+00
   5.6803774E-04   5.0720784E+04   -1.6522376E+00
   5.7066099E-04   5.0336187E+04   -1.6517500E+00
   5.7329637E-04   4.9954619E+04   -1.6512632E+00
   5.7594391E-04   4.9576054E+04   -1.6507774E+00
   5.7860368E-04   4.9200468E+04   -1.6502925E+00
   5.8127573E-04   4.8827837E+04   -1.6498084E+00
   5.8396012E-04   4.8458136E+04   -1.6493252E+00
   5.8665691E-04   4.8091341E+04   -1.6488430E+00
   5.8936616E-04   4.7727428E+04   -1.6483616E+00
   5.9208791E-04   4.7366374E+04   -1.6478811E+00
   5.9482223E-04   4.7008155E+04   -1.6474016E+00
   5.9756919E-04   4.6652749E+04   -1.6469229E+00
   6.0032882E-04   4.6300131E+04   -1.6464451E+00
   6.0310120E-04   4.5950280E+04   -1.6459683E+00
   6.0588639E-04   4.5603172E+04   -1.6454923E+00
   6.0868443E-04   4.5258786E+04   -1.6450173E+00
   6.1149540E-04   4.4917098E+04   -1.6445432E+00
   6.1431935E-04   4.4578087E+04   -1.6440700E+00
   6.1715634E-04   4.4241732E+04   -1.6435978E+00
   6.2000644E-04   4.3908010E+04   -1.6431264E+00
   6.2286969E-04   4.3576900E+04   -1.6426560E+00
