#        a       HoverH0(a)       dlogHdloga_of_a(a)
   1.0000000E-04   1.1643756E+06   -1.8714053E+00
   1.0046181E-04   1.1543801E+06   -1.8709647E+00
   1.0092575E-04   1.1444728E+06   -1.8705231E+00
   1.0139184E-04   1.1346529E+06   -1.8700805E+00
   1.0186008E-04   1.1249194E+06   -1.8696369E+00
   1.0233048E-04   1.1152718E+06   -1.8691924E+00
   1.0280305E-04   1.1057092E+06   -1.8687469E+00
   1.0327781E-04   1.0962308E+06   -1.8683004E+00
   1.0375475E-04   1.0868359E+06   -1.8678529E+00
   1.0423390E-04   1.0775237E+06   -1.8674045E+00
   1.0471527E-04   1.0682936E+06   -1.8669551E+00
   1.0519885E-04   1.0591447E+06   -1.8665047E+00
   1.0568467E-04   1.0500763E+06   -1.8660533E+00
   1.0617274E-04   1.0410878E+06   -1.8656010E+00
   1.0666305E-04   1.0321783E+06   -1.8651477E+00
   1.0715563E-04   1.0233472E+06   -1.8646935E+00
   1.0765049E-04   1.0145939E+06   -1.8642382E+00
   1.0814763E-04   1.0059174E+06   -1.8637821E+00
   1.0864707E-04   9.9731734E+05   -1.8633249E+00
   1.0914881E-04   9.8879284E+05   -1.8628669E+00
   1.0965287E-04   9.8034328E+05   -1.8624078E+00
   1.1015926E-04   9.7196798E+05   -1.8619478E+00
   1.1066799E-04   9.6366627E+05   -1.8614869E+00
   1.1117906E-04   9.5543751E+05   -1.8610250E+00
   1.1169250E-04   9.4728102E+05   -1.8605622E+00
   1.1220831E-04   9.3919617E+05   -1.8600984E+00
   1.1272650E-04   9.3118232E+05   -1.8596337E+00
   1.1324708E-04   9.2323882E+05   -1.8591680E+00
   1.1377007E-04   9.1536506E+05   -1.8587014E+00
   1.1429547E-04   9.0756039E+05   -1.8582339E+00
   1.1482330E-04   8.9982422E+05   -1.8577654E+00
   1.1535356E-04   8.9215591E+05   -1.8572960E+00
   1.1588628E-04   8.8455487E+05   -1.8568257E+00
   1.1642145E-04   8.7702049E+05   -1.8563544E+00
   1.1695910E-04   8.6955218E+05   -1.8558822E+00
   1.1749923E-04   8.6214934E+05   -1.8554091E+00
   1.1804185E-04   8.5481139E+05   -1.8549351E+00
   1.1858698E-04   8.4753774E+05   -1.8544602E+00
   1.1913463E-04   8.4032783E+05   -1.8539843E+00
   1.1968481E-04   8.3318108E+05   -1.8535075E+00
   1.2023752E-04   8.2609693E+05   -1.8530299E+00
   1.2079279E-04   8.1907482E+05   -1.8525513E+00
   1.2135063E-04   8.1211419E+05   -1.8520718E+00
   1.2191104E-04   8.0521449E+05   -1.8515914E+00
   1.2247403E-04   7.9837518E+05   -1.8511101E+00
   1.2303963E-04   7.9159572E+05   -1.8506279E+00
   1.2360784E-04   7.8487558E+05   -1.8501448E+00
   1.2417868E-04   7.7821421E+05   -1.8496608E+00
   1.2475215E-04   7.7161111E+05   -1.8491759E+00
   1.2532826E-04   7.6506574E+05   -1.8486902E+00
   1.2590704E-04   7.5857759E+05   -1.8482035E+00
   1.2648850E-04   7.5214616E+05   -1.8477160E+00
   1.2707263E-04   7.4577093E+05   -1.8472276E+00
   1.2765947E-04   7.3945140E+05   -1.8467383E+00
   1.2824901E-04   7.3318708E+05   -1.8462482E+00
   1.2884128E-04   7.2697747E+05   -1.8457571E+00
   1.2943628E-04   7.2082208E+05   -1.8452653E+00
   1.3003403E-04   7.1472043E+05   -1.8447725E+00
   1.3063454E-04   7.0867204E+05   -1.8442789E+00
   1.3123783E-04   7.0267644E+05   -1.8437844E+00
   1.3184390E-04   6.9673315E+05   -1.8432891E+00
   1.3245277E-04   6.9084171E+05   -1.8427929E+00
   1.3306445E-04   6.8500165E+05   -1.8422959E+00
   1.3367895E-04   6.7921251E+05   -1.8417980E+00
   1.3429630E-04   6.7347385E+05   -1.8412992E+00
   1.3491649E-04   6.6778521E+05   -1.8407997E+00
   1.3553955E-04   6.6214615E+05   -1.8402993E+00
   1.3616548E-04   6.5655622E+05   -1.8397980E+00
   1.3679431E-04   6.5101498E+05   -1.8392960E+00
   1.3742604E-04   6.4552201E+05   -1.8387931E+00
   1.3806069E-04   6.4007687E+05   -1.8382894E+00
   1.3869827E-04   6.3467913E+05   -1.8377848E+00
   1.3933879E-04   6.2932838E+05   -1.8372795E+00
   1.3998227E-04   6.2402419E+05   -1.8367733E+00
   1.4062872E-04   6.1876615E+05   -1.8362663E+00
   1.4127816E-04   6.1355385E+05   -1.8357586E+00
   1.4193060E-04   6.0838688E+05   -1.8352500E+00
   1.4258605E-04   6.0326484E+05   -1.8347406E+00
   1.4324453E-04   5.9818733E+05   -1.8342304E+00
   1.4390605E-04   5.9315394E+05   -1.8337194E+00
   1.4457062E-04   5.8816430E+05   -1.8332076E+00
   1.4523826E-04   5.8321801E+05   -1.8326951E+00
   1.4590899E-04   5.7831468E+05   -1.8321818E+00
   1.4658281E-04   5.7345393E+05   -1.8316677E+00
   1.4725974E-04   5.6863539E+05   -1.8311528E+00
   1.4793981E-04   5.6385867E+05   -1.8306371E+00
   1.4862301E-04   5.5912340E+05   -1.8301207E+00
   1.4930936E-04   5.5442923E+05   -1.8296035E+00
   1.4999889E-04   5.4977577E+05   -1.8290855E+00
   1.5069160E-04   5.4516267E+05   -1.8285668E+00
   1.5138751E-04   5.4058958E+05   -1.8280474E+00
   1.5208663E-04   5.3605613E+05   -1.8275272E+00
   1.5278899E-04   5.3156197E+05   -1.8270062E+00
   1.5349458E-04   5.2710676E+05   -1.8264846E+00
   1.5420343E-04   5.2269015E+05   -1.8259621E+00
   1.5491556E-04   5.1831179E+05   -1.8254390E+00
   1.5563098E-04   5.1397134E+05   -1.8249151E+00
   1.5634970E-04   5.0966848E+05   -1.8243905E+00
   1.5707174E-04   5.0540286E+05   -1.8238652E+00
   1.5779711E-04   5.0117415E+05   -1.8233391E+00
   1.5852584E-04   4.9698203E+05   -1.8228124E+00
   1.5925792E-04   4.9282618E+05   -1.8222849E+00
   1.5999339E-04   4.8870626E+05   -1.8217567E+00
   1.6073226E-04   4.8462197E+05   -1.8212279E+00
   1.6147454E-04   4.8057298E+05   -1.8206983E+00
   1.6222024E-04   4.7655898E+05   -1.8201681E+00
   1.6296939E-04   4.7257967E+05   -1.8196371E+00
   1.6372200E-04   4.6863473E+05   -1.8191055E+00
   1.6447809E-04   4.6472386E+05   -1.8185732E+00
   1.6523767E-04   4.6084676E+05   -1.8180402E+00
   1.6600075E-04   4.5700313E+05   -1.8175066E+00
   1.6676736E-04   4.5319267E+05   -1.8169723E+00
   1.6753751E-04   4.4941509E+05   -1.8164373E+00
   1.6831122E-04   4.4567010E+05   -1.8159017E+00
   1.6908849E-04   4.4195740E+05   -1.8153654E+00
   1.6986936E-04   4.3827672E+05   -1.8148285E+00
   1.7065384E-04   4.3462776E+05   -1.8142910E+00
   1.7144193E-04   4.3101026E+05   -1.8137528E+00
   1.7223367E-04   4.2742392E+05   -1.8132139E+00
   1.7302906E-04   4.2386848E+05   -1.8126745E+00
   1.7382813E-04   4.2034366E+05   -1.8121344E+00
   1.7463089E-04   4.1684919E+05   -1.8115937E+00
   1.7543735E-04   4.1338480E+05   -1.8110524E+00
   1.7624754E-04   4.0995022E+05   -1.8105105E+00
   1.7706147E-04   4.0654520E+05   -1.8099679E+00
   1.7787916E-04   4.0316947E+05   -1.8094248E+00
   1.7870062E-04   3.9982277E+05   -1.8088811E+00
   1.7952588E-04   3.9650484E+05   -1.8083368E+00
   1.8035495E-04   3.9321543E+05   -1.8077919E+00
   1.8118785E-04   3.8995429E+05   -1.8072464E+00
   1.8202459E-04   3.8672117E+05   -1.8067003E+00
   1.8286520E-04   3.8351582E+05   -1.8061537E+00
   1.8370969E-04   3.8033800E+05   -1.8056065E+00
   1.8455808E-04   3.7718747E+05   -1.8050587E+00
   1.8541039E-04   3.7406397E+05   -1.8045104E+00
   1.8626663E-04   3.7096728E+05   -1.8039615E+00
   1.8712683E-04   3.6789715E+05   -1.8034121E+00
   1.8799100E-04   3.6485336E+05   -1.8028622E+00
   1.8885917E-04   3.6183566E+05   -1.8023117E+00
   1.8973134E-04   3.5884384E+05   -1.8017607E+00
   1.9060754E-04   3.5587765E+05   -1.8012091E+00
   1.9148778E-04   3.5293689E+05   -1.8006571E+00
   1.9237209E-04   3.5002131E+05   -1.8001045E+00
   1.9326049E-04   3.4713070E+05   -1.7995514E+00
   1.9415299E-04   3.4426485E+05   -1.7989978E+00
   1.9504960E-04   3.4142352E+05   -1.7984437E+00
   1.9595036E-04   3.3860651E+05   -1.7978891E+00
   1.9685528E-04   3.3581361E+05   -1.7973340E+00
   1.9776438E-04   3.3304459E+05   -1.7967784E+00
   1.9867768E-04   3.3029924E+05   -1.7962224E+00
   1.9959519E-04   3.2757737E+05   -1.7956658E+00
   2.0051694E-04   3.2487876E+05   -1.7951089E+00
   2.0144295E-04   3.2220321E+05   -1.7945514E+00
   2.0237324E-04   3.1955052E+05   -1.7939935E+00
   2.0330782E-04   3.1692048E+05   -1.7934351E+00
   2.0424671E-04   3.1431289E+05   -1.7928763E+00
   2.0518995E-04   3.1172757E+05   -1.7923170E+00
   2.0613754E-04   3.0916430E+05   -1.7917573E+00
   2.0708950E-04   3.0662291E+05   -1.7911972E+00
   2.0804586E-04   3.0410319E+05   -1.7906367E+00
   2.0900664E-04   3.0160495E+05   -1.7900757E+00
   2.0997185E-04   2.9912801E+05   -1.7895143E+00
   2.1094152E-04   2.9667219E+05   -1.7889525E+00
   2.1191567E-04   2.9423728E+05   -1.7883903E+00
   2.1289432E-04   2.9182312E+05   -1.7878277E+00
   2.1387749E-04   2.8942951E+05   -1.7872647E+00
   2.1486520E-04   2.8705628E+05   -1.7867013E+00
   2.1585747E-04   2.8470325E+05   -1.7861376E+00
   2.1685432E-04   2.8237025E+05   -1.7855735E+00
   2.1785578E-04   2.8005708E+05   -1.7850089E+00
   2.1886186E-04   2.7776359E+05   -1.7844441E+00
   2.1987259E-04   2.7548960E+05   -1.7838788E+00
   2.2088798E-04   2.7323494E+05   -1.7833133E+00
   2.2190807E-04   2.7099944E+05   -1.7827473E+00
   2.2293286E-04   2.6878293E+05   -1.7821811E+00
   2.2396239E-04   2.6658524E+05   -1.7816145E+00
   2.2499667E-04   2.6440622E+05   -1.7810475E+00
   2.2603573E-04   2.6224569E+05   -1.7804802E+00
   2.2707958E-04   2.6010349E+05   -1.7799127E+00
   2.2812826E-04   2.5797947E+05   -1.7793448E+00
   2.2918178E-04   2.5587346E+05   -1.7787766E+00
   2.3024017E-04   2.5378531E+05   -1.7782081E+00
   2.3130344E-04   2.5171486E+05   -1.7776393E+00
   2.3237162E-04   2.4966195E+05   -1.7770702E+00
   2.3344474E-04   2.4762644E+05   -1.7765008E+00
   2.3452281E-04   2.4560817E+05   -1.7759311E+00
   2.3560586E-04   2.4360698E+05   -1.7753612E+00
   2.3669392E-04   2.4162274E+05   -1.7747910E+00
   2.3778699E-04   2.3965529E+05   -1.7742206E+00
   2.3888512E-04   2.3770448E+05   -1.7736498E+00
   2.3998831E-04   2.3577018E+05   -1.7730789E+00
   2.4109661E-04   2.3385223E+05   -1.7725077E+00
   2.4221001E-04   2.3195049E+05   -1.7719362E+00
   2.4332857E-04   2.3006482E+05   -1.7713646E+00
   2.4445228E-04   2.2819509E+05   -1.7707927E+00
   2.4558119E-04   2.2634114E+05   -1.7702206E+00
   2.4671531E-04   2.2450285E+05   -1.7696482E+00
   2.4785467E-04   2.2268008E+05   -1.7690757E+00
   2.4899928E-04   2.2087269E+05   -1.7685029E+00
   2.5014919E-04   2.1908055E+05   -1.7679300E+00
   2.5130440E-04   2.1730352E+05   -1.7673569E+00
   2.5246495E-04   2.1554148E+05   -1.7667836E+00
   2.5363086E-04   2.1379429E+05   -1.7662101E+00
   2.5480216E-04   2.1206182E+05   -1.7656364E+00
   2.5597886E-04   2.1034395E+05   -1.7650626E+00
   2.5716100E-04   2.0864054E+05   -1.7644886E+00
   2.5834859E-04   2.0695148E+05   -1.7639145E+00
   2.5954168E-04   2.0527663E+05   -1.7633402E+00
   2.6074027E-04   2.0361588E+05   -1.7627658E+00
   2.6194439E-04   2.0196910E+05   -1.7621912E+00
   2.6315408E-04   2.0033616E+05   -1.7616165E+00
   2.6436935E-04   1.9871696E+05   -1.7610417E+00
   2.6559024E-04   1.9711136E+05   -1.7604668E+00
   2.6681676E-04   1.9551926E+05   -1.7598917E+00
   2.6804895E-04   1.9394053E+05   -1.7593166E+00
   2.6928683E-04   1.9237506E+05   -1.7587413E+00
   2.7053042E-04   1.9082272E+05   -1.7581660E+00
   2.7177976E-04   1.8928342E+05   -1.7575905E+00
   2.7303487E-04   1.8775703E+05   -1.7570150E+00
   2.7429577E-04   1.8624345E+05   -1.7564394E+00
   2.7556250E-04   1.8474255E+05   -1.7558638E+00
   2.7683507E-04   1.8325424E+05   -1.7552881E+00
   2.7811353E-04   1.8177840E+05   -1.7547123E+00
   2.7939788E-04   1.8031492E+05   -1.7541365E+00
   2.8068817E-04   1.7886370E+05   -1.7535606E+00
   2.8198442E-04   1.7742464E+05   -1.7529847E+00
   2.8328665E-04   1.7599761E+05   -1.7524088E+00
   2.8459490E-04   1.7458253E+05   -1.7518328E+00
   2.8590919E-04   1.7317928E+05   -1.7512568E+00
   2.8722955E-04   1.7178777E+05   -1.7506808E+00
   2.8855600E-04   1.7040790E+05   -1.7501048E+00
   2.8988859E-04   1.6903955E+05   -1.7495288E+00
   2.9122732E-04   1.6768264E+05   -1.7489528E+00
   2.9257224E-04   1.6633706E+05   -1.7483768E+00
   2.9392337E-04   1.6500271E+05   -1.7478008E+00
   2.9528074E-04   1.6367951E+05   -1.7472249E+00
   2.9664438E-04   1.6236735E+05   -1.7466489E+00
   2.9801431E-04   1.6106613E+05   -1.7460730E+00
   2.9939057E-04   1.5977577E+05   -1.7454972E+00
   3.0077319E-04   1.5849616E+05   -1.7449214E+00
   3.0216219E-04   1.5722722E+05   -1.7443456E+00
   3.0355761E-04   1.5596885E+05   -1.7437700E+00
   3.0495947E-04   1.5472096E+05   -1.7431943E+00
   3.0636780E-04   1.5348347E+05   -1.7426188E+00
   3.0778264E-04   1.5225628E+05   -1.7420433E+00
   3.0920401E-04   1.5103929E+05   -1.7414679E+00
   3.1063195E-04   1.4983244E+05   -1.7408926E+00
   3.1206648E-04   1.4863562E+05   -1.7403174E+00
   3.1350764E-04   1.4744875E+05   -1.7397423E+00
   3.1495545E-04   1.4627174E+05   -1.7391673E+00
   3.1640994E-04   1.4510452E+05   -1.7385924E+00
   3.1787116E-04   1.4394699E+05   -1.7380177E+00
   3.1933912E-04   1.4279908E+05   -1.7374430E+00
   3.2081386E-04   1.4166069E+05   -1.7368685E+00
   3.2229541E-04   1.4053175E+05   -1.7362942E+00
   3.2378381E-04   1.3941217E+05   -1.7357200E+00
   3.2527908E-04   1.3830188E+05   -1.7351459E+00
   3.2678125E-04   1.3720080E+05   -1.7345720E+00
   3.2829036E-04   1.3610884E+05   -1.7339982E+00
   3.2980644E-04   1.3502593E+05   -1.7334247E+00
   3.3132952E-04   1.3395199E+05   -1.7328512E+00
   3.3285963E-04   1.3288694E+05   -1.7322780E+00
   3.3439681E-04   1.3183071E+05   -1.7317050E+00
   3.3594109E-04   1.3078322E+05   -1.7311321E+00
   3.3749250E-04   1.2974439E+05   -1.7305595E+00
   3.3905108E-04   1.2871416E+05   -1.7299871E+00
   3.4061685E-04   1.2769244E+05   -1.7294148E+00
   3.4218986E-04   1.2667917E+05   -1.7288428E+00
   3.4377013E-04   1.2567427E+05   -1.7282710E+00
   3.4535769E-04   1.2467766E+05   -1.7276994E+00
   3.4695259E-04   1.2368929E+05   -1.7271281E+00
   3.4855485E-04   1.2270908E+05   -1.7265570E+00
   3.5016452E-04   1.2173695E+05   -1.7259862E+00
   3.5178161E-04   1.2077284E+05   -1.7254156E+00
   3.5340618E-04   1.1981669E+05   -1.7248453E+00
   3.5503824E-04   1.1886841E+05   -1.7242752E+00
   3.5667785E-04   1.1792795E+05   -1.7237054E+00
   3.5832502E-04   1.1699524E+05   -1.7231359E+00
   3.5997981E-04   1.1607021E+05   -1.7225666E+00
   3.6164223E-04   1.1515279E+05   -1.7219977E+00
   3.6331233E-04   1.1424293E+05   -1.7214290E+00
   3.6499015E-04   1.1334055E+05   -1.7208606E+00
   3.6667571E-04   1.1244559E+05   -1.7202926E+00
   3.6836906E-04   1.1155799E+05   -1.7197248E+00
   3.7007022E-04   1.1067769E+05   -1.7191574E+00
   3.7177925E-04   1.0980462E+05   -1.7185903E+00
   3.7349616E-04   1.0893873E+05   -1.7180235E+00
   3.7522101E-04   1.0807994E+05   -1.7174570E+00
   3.7695382E-04   1.0722820E+05   -1.7168909E+00
   3.7869463E-04   1.0638346E+05   -1.7163251E+00
   3.8044348E-04   1.0554564E+05   -1.7157597E+00
   3.8220041E-04   1.0471469E+05   -1.7151946E+00
   3.8396545E-04   1.0389056E+05   -1.7146299E+00
   3.8573864E-04   1.0307318E+05   -1.7140656E+00
   3.8752002E-04   1.0226250E+05   -1.7135017E+00
   3.8930963E-04   1.0145845E+05   -1.7129381E+00
   3.9110750E-04   1.0066099E+05   -1.7123749E+00
   3.9291368E-04   9.9870061E+04   -1.7118121E+00
   3.9472820E-04   9.9085599E+04   -1.7112496E+00
   3.9655109E-04   9.8307554E+04   -1.7106876E+00
   3.9838241E-04   9.7535871E+04   -1.7101260E+00
   4.0022218E-04   9.6770495E+04   -1.7095648E+00
   4.0207045E-04   9.6011374E+04   -1.7090040E+00
   4.0392725E-04   9.5258454E+04   -1.7084437E+00
   4.0579263E-04   9.4511682E+04   -1.7078838E+00
   4.0766662E-04   9.3771006E+04   -1.7073243E+00
   4.0954927E-04   9.3036375E+04   -1.7067652E+00
   4.1144061E-04   9.2307736E+04   -1.7062066E+00
   4.1334068E-04   9.1585040E+04   -1.7056484E+00
   4.1524953E-04   9.0868235E+04   -1.7050907E+00
   4.1716720E-04   9.0157272E+04   -1.7045335E+00
   4.1909372E-04   8.9452101E+04   -1.7039767E+00
   4.2102914E-04   8.8752674E+04   -1.7034204E+00
   4.2297350E-04   8.8058941E+04   -1.7028646E+00
   4.2492683E-04   8.7370853E+04   -1.7023092E+00
   4.2688919E-04   8.6688365E+04   -1.7017544E+00
   4.2886061E-04   8.6011428E+04   -1.7012000E+00
   4.3084113E-04   8.5339994E+04   -1.7006461E+00
   4.3283080E-04   8.4674018E+04   -1.7000928E+00
   4.3482966E-04   8.4013453E+04   -1.6995399E+00
   4.3683775E-04   8.3358254E+04   -1.6989876E+00
   4.3885511E-04   8.2708375E+04   -1.6984357E+00
   4.4088179E-04   8.2063771E+04   -1.6978844E+00
   4.4291783E-04   8.1424397E+04   -1.6973336E+00
   4.4496327E-04   8.0790210E+04   -1.6967834E+00
   4.4701816E-04   8.0161165E+04   -1.6962337E+00
   4.4908253E-04   7.9537220E+04   -1.6956845E+00
   4.5115644E-04   7.8918330E+04   -1.6951359E+00
   4.5323993E-04   7.8304455E+04   -1.6945878E+00
   4.5533304E-04   7.7695550E+04   -1.6940403E+00
   4.5743582E-04   7.7091575E+04   -1.6934934E+00
   4.5954830E-04   7.6492488E+04   -1.6929470E+00
   4.6167054E-04   7.5898247E+04   -1.6924012E+00
   4.6380259E-04   7.5308812E+04   -1.6918560E+00
   4.6594448E-04   7.4724142E+04   -1.6913114E+00
   4.6809626E-04   7.4144197E+04   -1.6907673E+00
   4.7025797E-04   7.3568937E+04   -1.6902239E+00
   4.7242967E-04   7.2998323E+04   -1.6896810E+00
   4.7461140E-04   7.2432317E+04   -1.6891388E+00
   4.7680321E-04   7.1870878E+04   -1.6885971E+00
   4.7900514E-04   7.1313969E+04   -1.6880561E+00
   4.8121723E-04   7.0761551E+04   -1.6875157E+00
   4.8343954E-04   7.0213588E+04   -1.6869759E+00
   4.8567212E-04   6.9670041E+04   -1.6864367E+00
   4.8791500E-04   6.9130874E+04   -1.6858981E+00
   4.9016825E-04   6.8596049E+04   -1.6853602E+00
   4.9243189E-04   6.8065530E+04   -1.6848230E+00
   4.9470600E-04   6.7539282E+04   -1.6842863E+00
   4.9699060E-04   6.7017268E+04   -1.6837504E+00
   4.9928575E-04   6.6499452E+04   -1.6832150E+00
   5.0159151E-04   6.5985800E+04   -1.6826804E+00
   5.0390791E-04   6.5476277E+04   -1.6821464E+00
   5.0623501E-04   6.4970848E+04   -1.6816130E+00
   5.0857286E-04   6.4469479E+04   -1.6810804E+00
   5.1092150E-04   6.3972136E+04   -1.6805484E+00
   5.1328099E-04   6.3478785E+04   -1.6800170E+00
   5.1565137E-04   6.2989393E+04   -1.6794864E+00
   5.1803270E-04   6.2503926E+04   -1.6789565E+00
   5.2042503E-04   6.2022353E+04   -1.6784272E+00
   5.2282841E-04   6.1544639E+04   -1.6778987E+00
   5.2524289E-04   6.1070754E+04   -1.6773708E+00
   5.2766851E-04   6.0600665E+04   -1.6768437E+00
   5.3010534E-04   6.0134341E+04   -1.6763172E+00
   5.3255342E-04   5.9671749E+04   -1.6757915E+00
   5.3501281E-04   5.9212859E+04   -1.6752665E+00
   5.3748356E-04   5.8757640E+04   -1.6747422E+00
   5.3996571E-04   5.8306062E+04   -1.6742187E+00
   5.4245933E-04   5.7858094E+04   -1.6736958E+00
   5.4496446E-04   5.7413706E+04   -1.6731737E+00
   5.4748117E-04   5.6972868E+04   -1.6726524E+00
   5.5000949E-04   5.6535550E+04   -1.6721318E+00
   5.5254949E-04   5.6101724E+04   -1.6716119E+00
   5.5510123E-04   5.5671360E+04   -1.6710928E+00
   5.5766474E-04   5.5244429E+04   -1.6705744E+00
   5.6024010E-04   5.4820904E+04   -1.6700568E+00
   5.6282734E-04   5.4400754E+04   -1.6695399E+00
   5.6542654E-04   5.3983954E+04   -1.6690238E+00
   5.6803774E-04   5.3570474E+04   -1.6685085E+00
   5.7066099E-04   5.3160287E+04   -1.6679940E+00
   5.7329637E-04   5.2753365E+04   -1.6674802E+00
   5.7594391E-04   5.2349683E+04   -1.6669672E+00
   5.7860368E-04   5.1949212E+04   -1.6664550E+00
   5.8127573E-04   5.1551927E+04   -1.6659436E+00
   5.8396012E-04   5.1157800E+04   -1.6654330E+00
   5.8665691E-04   5.0766806E+04   -1.6649231E+00
   5.8936616E-04   5.0378918E+04   -1.6644141E+00
   5.9208791E-04   4.9994111E+04   -1.6639059E+00
   5.9482223E-04   4.9612359E+04   -1.6633984E+00
   5.9756919E-04   4.9233638E+04   -1.6628918E+00
   6.0032882E-04   4.8857921E+04   -1.6623860E+00
   6.0310120E-04   4.8485185E+04   -1.6618810E+00
   6.0588639E-04   4.8115404E+04   -1.6613768E+00
   6.0868443E-04   4.7748554E+04   -1.6608734E+00
   6.1149540E-04   4.7384611E+04   -1.6603709E+00
   6.1431935E-04   4.7023550E+04   -1.6598692E+00
   6.1715634E-04   4.6665349E+04   -1.6593683E+00
   6.2000644E-04   4.6309983E+04   -1.6588683E+00
   6.2286969E-04   4.5957429E+04   -1.6583691E+00
