#        a       HoverH0(a)       dlogHdloga_of_a(a)
   1.0000000E-04   1.1803336E+06   -1.9006320E+00
   1.0046181E-04   1.1700434E+06   -1.9002646E+00
   1.0092575E-04   1.1598449E+06   -1.8998962E+00
   1.0139184E-04   1.1497372E+06   -1.8995268E+00
   1.0186008E-04   1.1397196E+06   -1.8991564E+00
   1.0233048E-04   1.1297911E+06   -1.8987849E+00
   1.0280305E-04   1.1199511E+06   -1.8984125E+00
   1.0327781E-04   1.1101987E+06   -1.8980390E+00
   1.0375475E-04   1.1005331E+06   -1.8976645E+00
   1.0423390E-04   1.0909535E+06   -1.8972889E+00
   1.0471527E-04   1.0814592E+06   -1.8969124E+00
   1.0519885E-04   1.0720494E+06   -1.8965348E+00
   1.0568467E-04   1.0627234E+06   -1.8961562E+00
   1.0617274E-04   1.0534802E+06   -1.8957766E+00
   1.0666305E-04   1.0443193E+06   -1.8953960E+00
   1.0715563E-04   1.0352399E+06   -1.8950143E+00
   1.0765049E-04   1.0262413E+06   -1.8946316E+00
   1.0814763E-04   1.0173226E+06   -1.8942479E+00
   1.0864707E-04   1.0084833E+06   -1.8938632E+00
   1.0914881E-04   9.9972249E+05   -1.8934775E+00
   1.0965287E-04   9.9103958E+05   -1.8930907E+00
   1.1015926E-04   9.8243384E+05   -1.8927029E+00
   1.1066799E-04   9.7390456E+05   -1.8923141E+00
   1.1117906E-04   9.6545107E+05   -1.8919243E+00
   1.1169250E-04   9.5707268E+05   -1.8915334E+00
   1.1220831E-04   9.4876870E+05   -1.8911416E+00
   1.1272650E-04   9.4053848E+05   -1.8907487E+00
   1.1324708E-04   9.3238134E+05   -1.8903548E+00
   1.1377007E-04   9.2429662E+05   -1.8899598E+00
   1.1429547E-04   9.1628368E+05   -1.8895639E+00
   1.1482330E-04   9.0834187E+05   -1.8891669E+00
   1.1535356E-04   9.0047054E+05   -1.8887689E+00
   1.1588628E-04   8.9266905E+05   -1.8883699E+00
   1.1642145E-04   8.8493679E+05   -1.8879699E+00
   1.1695910E-04   8.7727312E+05   -1.8875688E+00
   1.1749923E-04   8.6967743E+05   -1.8871667E+00
   1.1804185E-04   8.6214910E+05   -1.8867637E+00
   1.1858698E-04   8.5468753E+05   -1.8863596E+00
   1.1913463E-04   8.4729212E+05   -1.8859544E+00
   1.1968481E-04   8.3996226E+05   -1.8855483E+00
   1.2023752E-04   8.3269738E+05   -1.8851411E+00
   1.2079279E-04   8.2549689E+05   -1.8847330E+00
   1.2135063E-04   8.1836020E+05   -1.8843238E+00
   1.2191104E-04   8.1128674E+05   -1.8839136E+00
   1.2247403E-04   8.0427594E+05   -1.8835024E+00
   1.2303963E-04   7.9732724E+05   -1.8830902E+00
   1.2360784E-04   7.9044007E+05   -1.8826769E+00
   1.2417868E-04   7.8361389E+05   -1.8822627E+00
   1.2475215E-04   7.7684814E+05   -1.8818474E+00
   1.2532826E-04   7.7014229E+05   -1.8814311E+00
   1.2590704E-04   7.6349578E+05   -1.8810139E+00
   1.2648850E-04   7.5690810E+05   -1.8805956E+00
   1.2707263E-04   7.5037870E+05   -1.8801763E+00
   1.2765947E-04   7.4390707E+05   -1.8797560E+00
   1.2824901E-04   7.3749268E+05   -1.8793347E+00
   1.2884128E-04   7.3113502E+05   -1.8789123E+00
   1.2943628E-04   7.2483358E+05   -1.8784890E+00
   1.3003403E-04   7.1858786E+05   -1.8780647E+00
   1.3063454E-04   7.1239734E+05   -1.8776394E+00
   1.3123783E-04   7.0626154E+05   -1.8772130E+00
   1.3184390E-04   7.0017997E+05   -1.8767857E+00
   1.3245277E-04   6.9415213E+05   -1.8763574E+00
   1.3306445E-04   6.8817755E+05   -1.8759280E+00
   1.3367895E-04   6.8225574E+05   -1.8754977E+00
   1.3429630E-04   6.7638623E+05   -1.8750664E+00
   1.3491649E-04   6.7056855E+05   -1.8746341E+00
   1.3553955E-04   6.6480223E+05   -1.8742008E+00
   1.3616548E-04   6.5908682E+05   -1.8737665E+00
   1.3679431E-04   6.5342185E+05   -1.8733312E+00
   1.3742604E-04   6.4780688E+05   -1.8728949E+00
   1.3806069E-04   6.4224145E+05   -1.8724576E+00
   1.3869827E-04   6.3672511E+05   -1.8720193E+00
   1.3933879E-04   6.3125744E+05   -1.8715801E+00
   1.3998227E-04   6.2583798E+05   -1.8711398E+00
   1.4062872E-04   6.2046631E+05   -1.8706986E+00
   1.4127816E-04   6.1514200E+05   -1.8702564E+00
   1.4193060E-04   6.0986462E+05   -1.8698132E+00
   1.4258605E-04   6.0463375E+05   -1.8693690E+00
   1.4324453E-04   5.9944897E+05   -1.8689239E+00
   1.4390605E-04   5.9430988E+05   -1.8684778E+00
   1.4457062E-04   5.8921605E+05   -1.8680307E+00
   1.4523826E-04   5.8416709E+05   -1.8675826E+00
   1.4590899E-04   5.7916259E+05   -1.8671336E+00
   1.4658281E-04   5.7420216E+05   -1.8666835E+00
   1.4725974E-04   5.6928539E+05   -1.8662325E+00
   1.4793981E-04   5.6441189E+05   -1.8657806E+00
   1.4862301E-04   5.5958129E+05   -1.8653277E+00
   1.4930936E-04   5.5479318E+05   -1.8648738E+00
   1.4999889E-04   5.5004720E+05   -1.8644190E+00
   1.5069160E-04   5.4534296E+05   -1.8639631E+00
   1.5138751E-04   5.4068008E+05   -1.8635064E+00
   1.5208663E-04   5.3605821E+05   -1.8630487E+00
   1.5278899E-04   5.3147697E+05   -1.8625900E+00
   1.5349458E-04   5.2693600E+05   -1.8621304E+00
   1.5420343E-04   5.2243493E+05   -1.8616698E+00
   1.5491556E-04   5.1797341E+05   -1.8612083E+00
   1.5563098E-04   5.1355108E+05   -1.8607458E+00
   1.5634970E-04   5.0916760E+05   -1.8602824E+00
   1.5707174E-04   5.0482261E+05   -1.8598180E+00
   1.5779711E-04   5.0051577E+05   -1.8593527E+00
   1.5852584E-04   4.9624674E+05   -1.8588865E+00
   1.5925792E-04   4.9201518E+05   -1.8584193E+00
   1.5999339E-04   4.8782075E+05   -1.8579512E+00
   1.6073226E-04   4.8366313E+05   -1.8574821E+00
   1.6147454E-04   4.7954197E+05   -1.8570121E+00
   1.6222024E-04   4.7545697E+05   -1.8565412E+00
   1.6296939E-04   4.7140778E+05   -1.8560694E+00
   1.6372200E-04   4.6739410E+05   -1.8555966E+00
   1.6447809E-04   4.6341560E+05   -1.8551230E+00
   1.6523767E-04   4.5947197E+05   -1.8546484E+00
   1.6600075E-04   4.5556290E+05   -1.8541729E+00
   1.6676736E-04   4.5168807E+05   -1.8536964E+00
   1.6753751E-04   4.4784719E+05   -1.8532191E+00
   1.6831122E-04   4.4403994E+05   -1.8527408E+00
   1.6908849E-04   4.4026603E+05   -1.8522617E+00
   1.6986936E-04   4.3652516E+05   -1.8517816E+00
   1.7065384E-04   4.3281704E+05   -1.8513007E+00
   1.7144193E-04   4.2914136E+05   -1.8508188E+00
   1.7223367E-04   4.2549785E+05   -1.8503361E+00
   1.7302906E-04   4.2188621E+05   -1.8498524E+00
   1.7382813E-04   4.1830616E+05   -1.8493679E+00
   1.7463089E-04   4.1475742E+05   -1.8488825E+00
   1.7543735E-04   4.1123970E+05   -1.8483961E+00
   1.7624754E-04   4.0775273E+05   -1.8479089E+00
   1.7706147E-04   4.0429624E+05   -1.8474209E+00
   1.7787916E-04   4.0086995E+05   -1.8469319E+00
   1.7870062E-04   3.9747359E+05   -1.8464421E+00
   1.7952588E-04   3.9410690E+05   -1.8459514E+00
   1.8035495E-04   3.9076961E+05   -1.8454598E+00
   1.8118785E-04   3.8746145E+05   -1.8449674E+00
   1.8202459E-04   3.8418218E+05   -1.8444741E+00
   1.8286520E-04   3.8093153E+05   -1.8439799E+00
   1.8370969E-04   3.7770924E+05   -1.8434849E+00
   1.8455808E-04   3.7451506E+05   -1.8429890E+00
   1.8541039E-04   3.7134875E+05   -1.8424923E+00
   1.8626663E-04   3.6821005E+05   -1.8419947E+00
   1.8712683E-04   3.6509871E+05   -1.8414963E+00
   1.8799100E-04   3.6201450E+05   -1.8409971E+00
   1.8885917E-04   3.5895717E+05   -1.8404970E+00
   1.8973134E-04   3.5592648E+05   -1.8399961E+00
   1.9060754E-04   3.5292219E+05   -1.8394943E+00
   1.9148778E-04   3.4994407E+05   -1.8389917E+00
   1.9237209E-04   3.4699189E+05   -1.8384883E+00
   1.9326049E-04   3.4406540E+05   -1.8379841E+00
   1.9415299E-04   3.4116440E+05   -1.8374790E+00
   1.9504960E-04   3.3828864E+05   -1.8369731E+00
   1.9595036E-04   3.3543791E+05   -1.8364665E+00
   1.9685528E-04   3.3261197E+05   -1.8359590E+00
   1.9776438E-04   3.2981062E+05   -1.8354507E+00
   1.9867768E-04   3.2703362E+05   -1.8349416E+00
   1.9959519E-04   3.2428077E+05   -1.8344317E+00
   2.0051694E-04   3.2155184E+05   -1.8339210E+00
   2.0144295E-04   3.1884664E+05   -1.8334095E+00
   2.0237324E-04   3.1616493E+05   -1.8328973E+00
   2.0330782E-04   3.1350652E+05   -1.8323842E+00
   2.0424671E-04   3.1087120E+05   -1.8318704E+00
   2.0518995E-04   3.0825877E+05   -1.8313558E+00
   2.0613754E-04   3.0566901E+05   -1.8308404E+00
   2.0708950E-04   3.0310173E+05   -1.8303242E+00
   2.0804586E-04   3.0055672E+05   -1.8298073E+00
   2.0900664E-04   2.9803380E+05   -1.8292897E+00
   2.0997185E-04   2.9553276E+05   -1.8287712E+00
   2.1094152E-04   2.9305341E+05   -1.8282520E+00
   2.1191567E-04   2.9059555E+05   -1.8277321E+00
   2.1289432E-04   2.8815900E+05   -1.8272114E+00
   2.1387749E-04   2.8574357E+05   -1.8266900E+00
   2.1486520E-04   2.8334906E+05   -1.8261678E+00
   2.1585747E-04   2.8097530E+05   -1.8256450E+00
   2.1685432E-04   2.7862209E+05   -1.8251213E+00
   2.1785578E-04   2.7628926E+05   -1.8245970E+00
   2.1886186E-04   2.7397662E+05   -1.8240719E+00
   2.1987259E-04   2.7168400E+05   -1.8235461E+00
   2.2088798E-04   2.6941122E+05   -1.8230196E+00
   2.2190807E-04   2.6715810E+05   -1.8224924E+00
   2.2293286E-04   2.6492446E+05   -1.8219645E+00
   2.2396239E-04   2.6271014E+05   -1.8214359E+00
   2.2499667E-04   2.6051496E+05   -1.8209066E+00
   2.2603573E-04   2.5833876E+05   -1.8203765E+00
   2.2707958E-04   2.5618136E+05   -1.8198459E+00
   2.2812826E-04   2.5404260E+05   -1.8193145E+00
   2.2918178E-04   2.5192231E+05   -1.8187824E+00
   2.3024017E-04   2.4982033E+05   -1.8182497E+00
   2.3130344E-04   2.4773649E+05   -1.8177163E+00
   2.3237162E-04   2.4567065E+05   -1.8171822E+00
   2.3344474E-04   2.4362263E+05   -1.8166475E+00
   2.3452281E-04   2.4159228E+05   -1.8161121E+00
   2.3560586E-04   2.3957944E+05   -1.8155760E+00
   2.3669392E-04   2.3758396E+05   -1.8150393E+00
   2.3778699E-04   2.3560568E+05   -1.8145020E+00
   2.3888512E-04   2.3364445E+05   -1.8139640E+00
   2.3998831E-04   2.3170013E+05   -1.8134254E+00
   2.4109661E-04   2.2977255E+05   -1.8128862E+00
   2.4221001E-04   2.2786158E+05   -1.8123463E+00
   2.4332857E-04   2.2596706E+05   -1.8118058E+00
   2.4445228E-04   2.2408885E+05   -1.8112647E+00
   2.4558119E-04   2.2222681E+05   -1.8107230E+00
   2.4671531E-04   2.2038079E+05   -1.8101806E+00
   2.4785467E-04   2.1855065E+05   -1.8096377E+00
   2.4899928E-04   2.1673625E+05   -1.8090942E+00
   2.5014919E-04   2.1493746E+05   -1.8085501E+00
   2.5130440E-04   2.1315413E+05   -1.8080054E+00
   2.5246495E-04   2.1138612E+05   -1.8074601E+00
   2.5363086E-04   2.0963331E+05   -1.8069142E+00
   2.5480216E-04   2.0789555E+05   -1.8063678E+00
   2.5597886E-04   2.0617272E+05   -1.8058207E+00
   2.5716100E-04   2.0446468E+05   -1.8052732E+00
   2.5834859E-04   2.0277131E+05   -1.8047250E+00
   2.5954168E-04   2.0109246E+05   -1.8041764E+00
   2.6074027E-04   1.9942802E+05   -1.8036271E+00
   2.6194439E-04   1.9777786E+05   -1.8030773E+00
   2.6315408E-04   1.9614185E+05   -1.8025270E+00
   2.6436935E-04   1.9451987E+05   -1.8019762E+00
   2.6559024E-04   1.9291178E+05   -1.8014248E+00
   2.6681676E-04   1.9131748E+05   -1.8008729E+00
   2.6804895E-04   1.8973684E+05   -1.8003205E+00
   2.6928683E-04   1.8816974E+05   -1.7997675E+00
   2.7053042E-04   1.8661605E+05   -1.7992141E+00
   2.7177976E-04   1.8507566E+05   -1.7986602E+00
   2.7303487E-04   1.8354846E+05   -1.7981057E+00
   2.7429577E-04   1.8203433E+05   -1.7975508E+00
   2.7556250E-04   1.8053315E+05   -1.7969954E+00
   2.7683507E-04   1.7904480E+05   -1.7964395E+00
   2.7811353E-04   1.7756918E+05   -1.7958831E+00
   2.7939788E-04   1.7610618E+05   -1.7953262E+00
   2.8068817E-04   1.7465568E+05   -1.7947689E+00
   2.8198442E-04   1.7321756E+05   -1.7942111E+00
   2.8328665E-04   1.7179174E+05   -1.7936529E+00
   2.8459490E-04   1.7037808E+05   -1.7930942E+00
   2.8590919E-04   1.6897650E+05   -1.7925351E+00
   2.8722955E-04   1.6758687E+05   -1.7919755E+00
   2.8855600E-04   1.6620911E+05   -1.7914155E+00
   2.8988859E-04   1.6484309E+05   -1.7908551E+00
   2.9122732E-04   1.6348873E+05   -1.7902942E+00
   2.9257224E-04   1.6214591E+05   -1.7897330E+00
   2.9392337E-04   1.6081454E+05   -1.7891713E+00
   2.9528074E-04   1.5949451E+05   -1.7886092E+00
   2.9664438E-04   1.5818572E+05   -1.7880467E+00
   2.9801431E-04   1.5688809E+05   -1.7874838E+00
   2.9939057E-04   1.5560150E+05   -1.7869206E+00
   3.0077319E-04   1.5432586E+05   -1.7863569E+00
   3.0216219E-04   1.5306108E+05   -1.7857929E+00
   3.0355761E-04   1.5180706E+05   -1.7852285E+00
   3.0495947E-04   1.5056370E+05   -1.7846637E+00
   3.0636780E-04   1.4933092E+05   -1.7840985E+00
   3.0778264E-04   1.4810862E+05   -1.7835331E+00
   3.0920401E-04   1.4689670E+05   -1.7829672E+00
   3.1063195E-04   1.4569508E+05   -1.7824010E+00
   3.1206648E-04   1.4450367E+05   -1.7818345E+00
   3.1350764E-04   1.4332237E+05   -1.7812676E+00
   3.1495545E-04   1.4215110E+05   -1.7807004E+00
   3.1640994E-04   1.4098978E+05   -1.7801329E+00
   3.1787116E-04   1.3983830E+05   -1.7795651E+00
   3.1933912E-04   1.3869659E+05   -1.7789970E+00
   3.2081386E-04   1.3756457E+05   -1.7784285E+00
   3.2229541E-04   1.3644214E+05   -1.7778598E+00
   3.2378381E-04   1.3532923E+05   -1.7772908E+00
   3.2527908E-04   1.3422574E+05   -1.7767215E+00
   3.2678125E-04   1.3313160E+05   -1.7761519E+00
   3.2829036E-04   1.3204673E+05   -1.7755820E+00
   3.2980644E-04   1.3097104E+05   -1.7750118E+00
   3.3132952E-04   1.2990446E+05   -1.7744414E+00
   3.3285963E-04   1.2884690E+05   -1.7738708E+00
   3.3439681E-04   1.2779828E+05   -1.7732998E+00
   3.3594109E-04   1.2675853E+05   -1.7727287E+00
   3.3749250E-04   1.2572758E+05   -1.7721573E+00
   3.3905108E-04   1.2470534E+05   -1.7715856E+00
   3.4061685E-04   1.2369173E+05   -1.7710138E+00
   3.4218986E-04   1.2268669E+05   -1.7704417E+00
   3.4377013E-04   1.2169013E+05   -1.7698694E+00
   3.4535769E-04   1.2070199E+05   -1.7692969E+00
   3.4695259E-04   1.1972218E+05   -1.7687242E+00
   3.4855485E-04   1.1875065E+05   -1.7681512E+00
   3.5016452E-04   1.1778731E+05   -1.7675781E+00
   3.5178161E-04   1.1683209E+05   -1.7670048E+00
   3.5340618E-04   1.1588492E+05   -1.7664313E+00
   3.5503824E-04   1.1494574E+05   -1.7658577E+00
   3.5667785E-04   1.1401447E+05   -1.7652839E+00
   3.5832502E-04   1.1309104E+05   -1.7647099E+00
   3.5997981E-04   1.1217539E+05   -1.7641358E+00
   3.6164223E-04   1.1126745E+05   -1.7635615E+00
   3.6331233E-04   1.1036715E+05   -1.7629870E+00
   3.6499015E-04   1.0947442E+05   -1.7624125E+00
   3.6667571E-04   1.0858920E+05   -1.7618378E+00
   3.6836906E-04   1.0771143E+05   -1.7612629E+00
   3.7007022E-04   1.0684103E+05   -1.7606880E+00
   3.7177925E-04   1.0597795E+05   -1.7601129E+00
   3.7349616E-04   1.0512212E+05   -1.7595377E+00
   3.7522101E-04   1.0427347E+05   -1.7589625E+00
   3.7695382E-04   1.0343195E+05   -1.7583871E+00
   3.7869463E-04   1.0259750E+05   -1.7578116E+00
   3.8044348E-04   1.0177004E+05   -1.7572361E+00
   3.8220041E-04   1.0094953E+05   -1.7566605E+00
   3.8396545E-04   1.0013590E+05   -1.7560848E+00
   3.8573864E-04   9.9329090E+04   -1.7555090E+00
   3.8752002E-04   9.8529042E+04   -1.7549332E+00
   3.8930963E-04   9.7735697E+04   -1.7543573E+00
   3.9110750E-04   9.6948997E+04   -1.7537814E+00
   3.9291368E-04   9.6168884E+04   -1.7532054E+00
   3.9472820E-04   9.5395302E+04   -1.7526294E+00
   3.9655109E-04   9.4628194E+04   -1.7520534E+00
   3.9838241E-04   9.3867504E+04   -1.7514774E+00
   4.0022218E-04   9.3113175E+04   -1.7509013E+00
   4.0207045E-04   9.2365154E+04   -1.7503252E+00
   4.0392725E-04   9.1623386E+04   -1.7497491E+00
   4.0579263E-04   9.0887815E+04   -1.7491731E+00
   4.0766662E-04   9.0158389E+04   -1.7485970E+00
   4.0954927E-04   8.9435055E+04   -1.7480209E+00
   4.1144061E-04   8.8717759E+04   -1.7474449E+00
   4.1334068E-04   8.8006450E+04   -1.7468689E+00
   4.1524953E-04   8.7301075E+04   -1.7462929E+00
   4.1716720E-04   8.6601584E+04   -1.7457170E+00
   4.1909372E-04   8.5907925E+04   -1.7451411E+00
   4.2102914E-04   8.5220049E+04   -1.7445652E+00
   4.2297350E-04   8.4537904E+04   -1.7439894E+00
   4.2492683E-04   8.3861443E+04   -1.7434137E+00
   4.2688919E-04   8.3190615E+04   -1.7428381E+00
   4.2886061E-04   8.2525372E+04   -1.7422625E+00
   4.3084113E-04   8.1865666E+04   -1.7416870E+00
   4.3283080E-04   8.1211449E+04   -1.7411116E+00
   4.3482966E-04   8.0562673E+04   -1.7405363E+00
   4.3683775E-04   7.9919293E+04   -1.7399610E+00
   4.3885511E-04   7.9281260E+04   -1.7393859E+00
   4.4088179E-04   7.8648529E+04   -1.7388109E+00
   4.4291783E-04   7.8021055E+04   -1.7382360E+00
   4.4496327E-04   7.7398792E+04   -1.7376613E+00
   4.4701816E-04   7.6781695E+04   -1.7370866E+00
   4.4908253E-04   7.6169720E+04   -1.7365121E+00
   4.5115644E-04   7.5562823E+04   -1.7359378E+00
   4.5323993E-04   7.4960959E+04   -1.7353636E+00
   4.5533304E-04   7.4364087E+04   -1.7347895E+00
   4.5743582E-04   7.3772161E+04   -1.7342156E+00
   4.5954830E-04   7.3185141E+04   -1.7336419E+00
   4.6167054E-04   7.2602984E+04   -1.7330683E+00
   4.6380259E-04   7.2025648E+04   -1.7324949E+00
   4.6594448E-04   7.1453092E+04   -1.7319218E+00
   4.6809626E-04   7.0885274E+04   -1.7313487E+00
   4.7025797E-04   7.0322154E+04   -1.7307759E+00
   4.7242967E-04   6.9763692E+04   -1.7302033E+00
   4.7461140E-04   6.9209847E+04   -1.7296309E+00
   4.7680321E-04   6.8660580E+04   -1.7290587E+00
   4.7900514E-04   6.8115852E+04   -1.7284868E+00
   4.8121723E-04   6.7575624E+04   -1.7279150E+00
   4.8343954E-04   6.7039857E+04   -1.7273435E+00
   4.8567212E-04   6.6508512E+04   -1.7267722E+00
   4.8791500E-04   6.5981553E+04   -1.7262012E+00
   4.9016825E-04   6.5458941E+04   -1.7256304E+00
   4.9243189E-04   6.4940639E+04   -1.7250599E+00
   4.9470600E-04   6.4426610E+04   -1.7244896E+00
   4.9699060E-04   6.3916818E+04   -1.7239196E+00
   4.9928575E-04   6.3411227E+04   -1.7233499E+00
   5.0159151E-04   6.2909799E+04   -1.7227805E+00
   5.0390791E-04   6.2412501E+04   -1.7222113E+00
   5.0623501E-04   6.1919296E+04   -1.7216424E+00
   5.0857286E-04   6.1430149E+04   -1.7210738E+00
   5.1092150E-04   6.0945026E+04   -1.7205056E+00
   5.1328099E-04   6.0463893E+04   -1.7199376E+00
   5.1565137E-04   5.9986715E+04   -1.7193699E+00
   5.1803270E-04   5.9513458E+04   -1.7188026E+00
   5.2042503E-04   5.9044089E+04   -1.7182356E+00
   5.2282841E-04   5.8578575E+04   -1.7176689E+00
   5.2524289E-04   5.8116883E+04   -1.7171026E+00
   5.2766851E-04   5.7658980E+04   -1.7165366E+00
   5.3010534E-04   5.7204835E+04   -1.7159709E+00
   5.3255342E-04   5.6754414E+04   -1.7154056E+00
   5.3501281E-04   5.6307686E+04   -1.7148407E+00
   5.3748356E-04   5.5864620E+04   -1.7142761E+00
   5.3996571E-04   5.5425184E+04   -1.7137119E+00
   5.4245933E-04   5.4989348E+04   -1.7131480E+00
   5.4496446E-04   5.4557081E+04   -1.7125846E+00
   5.4748117E-04   5.4128352E+04   -1.7120215E+00
   5.5000949E-04   5.3703132E+04   -1.7114589E+00
   5.5254949E-04   5.3281390E+04   -1.7108966E+00
   5.5510123E-04   5.2863097E+04   -1.7103347E+00
   5.5766474E-04   5.2448224E+04   -1.7097733E+00
   5.6024010E-04   5.2036741E+04   -1.7092122E+00
   5.6282734E-04   5.1628620E+04   -1.7086516E+00
   5.6542654E-04   5.1223832E+04   -1.7080914E+00
   5.6803774E-04   5.0822348E+04   -1.7075316E+00
   5.7066099E-04   5.0424142E+04   -1.7069723E+00
   5.7329637E-04   5.0029184E+04   -1.7064134E+00
   5.7594391E-04   4.9637448E+04   -1.7058549E+00
   5.7860368E-04   4.9248906E+04   -1.7052969E+00
   5.8127573E-04   4.8863531E+04   -1.7047394E+00
   5.8396012E-04   4.8481296E+04   -1.7041823E+00
   5.8665691E-04   4.8102175E+04   -1.7036257E+00
   5.8936616E-04   4.7726140E+04   -1.7030696E+00
   5.9208791E-04   4.7353166E+04   -1.7025140E+00
   5.9482223E-04   4.6983228E+04   -1.7019588E+00
   5.9756919E-04   4.6616298E+04   -1.7014041E+00
   6.0032882E-04   4.6252352E+04   -1.7008499E+00
   6.0310120E-04   4.5891365E+04   -1.7002963E+00
   6.0588639E-04   4.5533312E+04   -1.6997431E+00
   6.0868443E-04   4.5178167E+04   -1.6991904E+00
   6.1149540E-04   4.4825906E+04   -1.6986383E+00
   6.1431935E-04   4.4476505E+04   -1.6980866E+00
   6.1715634E-04   4.4129940E+04   -1.6975355E+00
   6.2000644E-04   4.3786186E+04   -1.6969850E+00
   6.2286969E-04   4.3445220E+04   -1.6964349E+00
