#        a       HoverH0(a)       dlogHdloga_of_a(a)
   1.0000000E-04   1.1027923E+06   -1.8678253E+00
   1.0046181E-04   1.0933436E+06   -1.8673767E+00
   1.0092575E-04   1.0839780E+06   -1.8669273E+00
   1.0139184E-04   1.0746950E+06   -1.8664768E+00
   1.0186008E-04   1.0654936E+06   -1.8660254E+00
   1.0233048E-04   1.0563732E+06   -1.8655730E+00
   1.0280305E-04   1.0473331E+06   -1.8651197E+00
   1.0327781E-04   1.0383725E+06   -1.8646654E+00
   1.0375475E-04   1.0294907E+06   -1.8642101E+00
   1.0423390E-04   1.0206870E+06   -1.8637539E+00
   1.0471527E-04   1.0119608E+06   -1.8632967E+00
   1.0519885E-04   1.0033112E+06   -1.8628386E+00
   1.0568467E-04   9.9473775E+05   -1.8623795E+00
   1.0617274E-04   9.8623960E+05   -1.8619194E+00
   1.0666305E-04   9.7781613E+05   -1.8614584E+00
   1.0715563E-04   9.6946666E+05   -1.8609965E+00
   1.0765049E-04   9.6119054E+05   -1.8605336E+00
   1.0814763E-04   9.5298710E+05   -1.8600697E+00
   1.0864707E-04   9.4485570E+05   -1.8596050E+00
   1.0914881E-04   9.3679569E+05   -1.8591392E+00
   1.0965287E-04   9.2880643E+05   -1.8586726E+00
   1.1015926E-04   9.2088728E+05   -1.8582050E+00
   1.1066799E-04   9.1303763E+05   -1.8577365E+00
   1.1117906E-04   9.0525684E+05   -1.8572670E+00
   1.1169250E-04   8.9754429E+05   -1.8567966E+00
   1.1220831E-04   8.8989939E+05   -1.8563253E+00
   1.1272650E-04   8.8232153E+05   -1.8558531E+00
   1.1324708E-04   8.7481009E+05   -1.8553799E+00
   1.1377007E-04   8.6736450E+05   -1.8549058E+00
   1.1429547E-04   8.5998416E+05   -1.8544308E+00
   1.1482330E-04   8.5266848E+05   -1.8539549E+00
   1.1535356E-04   8.4541690E+05   -1.8534781E+00
   1.1588628E-04   8.3822882E+05   -1.8530004E+00
   1.1642145E-04   8.3110370E+05   -1.8525217E+00
   1.1695910E-04   8.2404096E+05   -1.8520422E+00
   1.1749923E-04   8.1704004E+05   -1.8515617E+00
   1.1804185E-04   8.1010040E+05   -1.8510804E+00
   1.1858698E-04   8.0322148E+05   -1.8505981E+00
   1.1913463E-04   7.9640275E+05   -1.8501150E+00
   1.1968481E-04   7.8964366E+05   -1.8496310E+00
   1.2023752E-04   7.8294368E+05   -1.8491460E+00
   1.2079279E-04   7.7630229E+05   -1.8486602E+00
   1.2135063E-04   7.6971897E+05   -1.8481735E+00
   1.2191104E-04   7.6319318E+05   -1.8476859E+00
   1.2247403E-04   7.5672442E+05   -1.8471975E+00
   1.2303963E-04   7.5031218E+05   -1.8467081E+00
   1.2360784E-04   7.4395595E+05   -1.8462179E+00
   1.2417868E-04   7.3765524E+05   -1.8457269E+00
   1.2475215E-04   7.3140954E+05   -1.8452349E+00
   1.2532826E-04   7.2521837E+05   -1.8447421E+00
   1.2590704E-04   7.1908124E+05   -1.8442484E+00
   1.2648850E-04   7.1299767E+05   -1.8437539E+00
   1.2707263E-04   7.0696718E+05   -1.8432585E+00
   1.2765947E-04   7.0098930E+05   -1.8427623E+00
   1.2824901E-04   6.9506356E+05   -1.8422652E+00
   1.2884128E-04   6.8918949E+05   -1.8417673E+00
   1.2943628E-04   6.8336663E+05   -1.8412685E+00
   1.3003403E-04   6.7759453E+05   -1.8407689E+00
   1.3063454E-04   6.7187272E+05   -1.8402684E+00
   1.3123783E-04   6.6620077E+05   -1.8397671E+00
   1.3184390E-04   6.6057824E+05   -1.8392650E+00
   1.3245277E-04   6.5500467E+05   -1.8387621E+00
   1.3306445E-04   6.4947963E+05   -1.8382583E+00
   1.3367895E-04   6.4400269E+05   -1.8377537E+00
   1.3429630E-04   6.3857342E+05   -1.8372483E+00
   1.3491649E-04   6.3319141E+05   -1.8367421E+00
   1.3553955E-04   6.2785621E+05   -1.8362351E+00
   1.3616548E-04   6.2256743E+05   -1.8357273E+00
   1.3679431E-04   6.1732465E+05   -1.8352186E+00
   1.3742604E-04   6.1212745E+05   -1.8347092E+00
   1.3806069E-04   6.0697543E+05   -1.8341990E+00
   1.3869827E-04   6.0186819E+05   -1.8336879E+00
   1.3933879E-04   5.9680533E+05   -1.8331761E+00
   1.3998227E-04   5.9178645E+05   -1.8326635E+00
   1.4062872E-04   5.8681117E+05   -1.8321501E+00
   1.4127816E-04   5.8187909E+05   -1.8316360E+00
   1.4193060E-04   5.7698983E+05   -1.8311211E+00
   1.4258605E-04   5.7214302E+05   -1.8306054E+00
   1.4324453E-04   5.6733826E+05   -1.8300889E+00
   1.4390605E-04   5.6257520E+05   -1.8295717E+00
   1.4457062E-04   5.5785346E+05   -1.8290537E+00
   1.4523826E-04   5.5317266E+05   -1.8285349E+00
   1.4590899E-04   5.4853246E+05   -1.8280154E+00
   1.4658281E-04   5.4393248E+05   -1.8274952E+00
   1.4725974E-04   5.3937237E+05   -1.8269742E+00
   1.4793981E-04   5.3485177E+05   -1.8264524E+00
   1.4862301E-04   5.3037034E+05   -1.8259300E+00
   1.4930936E-04   5.2592773E+05   -1.8254068E+00
   1.4999889E-04   5.2152358E+05   -1.8248829E+00
   1.5069160E-04   5.1715757E+05   -1.8243582E+00
   1.5138751E-04   5.1282934E+05   -1.8238328E+00
   1.5208663E-04   5.0853858E+05   -1.8233068E+00
   1.5278899E-04   5.0428493E+05   -1.8227800E+00
   1.5349458E-04   5.0006808E+05   -1.8222525E+00
   1.5420343E-04   4.9588770E+05   -1.8217242E+00
   1.5491556E-04   4.9174346E+05   -1.8211953E+00
   1.5563098E-04   4.8763505E+05   -1.8206657E+00
   1.5634970E-04   4.8356214E+05   -1.8201355E+00
   1.5707174E-04   4.7952442E+05   -1.8196045E+00
   1.5779711E-04   4.7552158E+05   -1.8190728E+00
   1.5852584E-04   4.7155331E+05   -1.8185405E+00
   1.5925792E-04   4.6761931E+05   -1.8180075E+00
   1.5999339E-04   4.6371926E+05   -1.8174738E+00
   1.6073226E-04   4.5985287E+05   -1.8169395E+00
   1.6147454E-04   4.5601984E+05   -1.8164045E+00
   1.6222024E-04   4.5221988E+05   -1.8158688E+00
   1.6296939E-04   4.4845269E+05   -1.8153325E+00
   1.6372200E-04   4.4471798E+05   -1.8147955E+00
   1.6447809E-04   4.4101546E+05   -1.8142579E+00
   1.6523767E-04   4.3734486E+05   -1.8137197E+00
   1.6600075E-04   4.3370588E+05   -1.8131808E+00
   1.6676736E-04   4.3009825E+05   -1.8126413E+00
   1.6753751E-04   4.2652169E+05   -1.8121012E+00
   1.6831122E-04   4.2297592E+05   -1.8115605E+00
   1.6908849E-04   4.1946068E+05   -1.8110191E+00
   1.6986936E-04   4.1597568E+05   -1.8104772E+00
   1.7065384E-04   4.1252068E+05   -1.8099346E+00
   1.7144193E-04   4.0909539E+05   -1.8093914E+00
   1.7223367E-04   4.0569956E+05   -1.8088477E+00
   1.7302906E-04   4.0233292E+05   -1.8083033E+00
   1.7382813E-04   3.9899523E+05   -1.8077584E+00
   1.7463089E-04   3.9568622E+05   -1.8072129E+00
   1.7543735E-04   3.9240564E+05   -1.8066668E+00
   1.7624754E-04   3.8915323E+05   -1.8061201E+00
   1.7706147E-04   3.8592876E+05   -1.8055729E+00
   1.7787916E-04   3.8273197E+05   -1.8050251E+00
   1.7870062E-04   3.7956262E+05   -1.8044768E+00
   1.7952588E-04   3.7642046E+05   -1.8039279E+00
   1.8035495E-04   3.7330526E+05   -1.8033784E+00
   1.8118785E-04   3.7021678E+05   -1.8028284E+00
   1.8202459E-04   3.6715478E+05   -1.8022779E+00
   1.8286520E-04   3.6411903E+05   -1.8017269E+00
   1.8370969E-04   3.6110930E+05   -1.8011753E+00
   1.8455808E-04   3.5812536E+05   -1.8006232E+00
   1.8541039E-04   3.5516698E+05   -1.8000706E+00
   1.8626663E-04   3.5223393E+05   -1.7995175E+00
   1.8712683E-04   3.4932600E+05   -1.7989638E+00
   1.8799100E-04   3.4644296E+05   -1.7984097E+00
   1.8885917E-04   3.4358459E+05   -1.7978551E+00
   1.8973134E-04   3.4075067E+05   -1.7973000E+00
   1.9060754E-04   3.3794100E+05   -1.7967444E+00
   1.9148778E-04   3.3515534E+05   -1.7961883E+00
   1.9237209E-04   3.3239351E+05   -1.7956317E+00
   1.9326049E-04   3.2965527E+05   -1.7950747E+00
   1.9415299E-04   3.2694044E+05   -1.7945172E+00
   1.9504960E-04   3.2424879E+05   -1.7939593E+00
   1.9595036E-04   3.2158014E+05   -1.7934009E+00
   1.9685528E-04   3.1893426E+05   -1.7928421E+00
   1.9776438E-04   3.1631097E+05   -1.7922828E+00
   1.9867768E-04   3.1371007E+05   -1.7917231E+00
   1.9959519E-04   3.1113136E+05   -1.7911629E+00
   2.0051694E-04   3.0857464E+05   -1.7906024E+00
   2.0144295E-04   3.0603972E+05   -1.7900414E+00
   2.0237324E-04   3.0352641E+05   -1.7894800E+00
   2.0330782E-04   3.0103451E+05   -1.7889181E+00
   2.0424671E-04   2.9856385E+05   -1.7883559E+00
   2.0518995E-04   2.9611424E+05   -1.7877933E+00
   2.0613754E-04   2.9368548E+05   -1.7872303E+00
   2.0708950E-04   2.9127740E+05   -1.7866669E+00
   2.0804586E-04   2.8888982E+05   -1.7861031E+00
   2.0900664E-04   2.8652255E+05   -1.7855390E+00
   2.0997185E-04   2.8417542E+05   -1.7849744E+00
   2.1094152E-04   2.8184825E+05   -1.7844095E+00
   2.1191567E-04   2.7954086E+05   -1.7838443E+00
   2.1289432E-04   2.7725309E+05   -1.7832787E+00
   2.1387749E-04   2.7498475E+05   -1.7827127E+00
   2.1486520E-04   2.7273569E+05   -1.7821465E+00
   2.1585747E-04   2.7050573E+05   -1.7815798E+00
   2.1685432E-04   2.6829470E+05   -1.7810129E+00
   2.1785578E-04   2.6610243E+05   -1.7804456E+00
   2.1886186E-04   2.6392877E+05   -1.7798780E+00
   2.1987259E-04   2.6177356E+05   -1.7793101E+00
   2.2088798E-04   2.5963662E+05   -1.7787419E+00
   2.2190807E-04   2.5751780E+05   -1.7781733E+00
   2.2293286E-04   2.5541694E+05   -1.7776045E+00
   2.2396239E-04   2.5333388E+05   -1.7770354E+00
   2.2499667E-04   2.5126847E+05   -1.7764660E+00
   2.2603573E-04   2.4922055E+05   -1.7758964E+00
   2.2707958E-04   2.4718998E+05   -1.7753264E+00
   2.2812826E-04   2.4517659E+05   -1.7747562E+00
   2.2918178E-04   2.4318024E+05   -1.7741857E+00
   2.3024017E-04   2.4120078E+05   -1.7736150E+00
   2.3130344E-04   2.3923806E+05   -1.7730441E+00
   2.3237162E-04   2.3729194E+05   -1.7724728E+00
   2.3344474E-04   2.3536226E+05   -1.7719014E+00
   2.3452281E-04   2.3344890E+05   -1.7713297E+00
   2.3560586E-04   2.3155170E+05   -1.7707578E+00
   2.3669392E-04   2.2967052E+05   -1.7701857E+00
   2.3778699E-04   2.2780523E+05   -1.7696133E+00
   2.3888512E-04   2.2595568E+05   -1.7690408E+00
   2.3998831E-04   2.2412174E+05   -1.7684680E+00
   2.4109661E-04   2.2230327E+05   -1.7678951E+00
   2.4221001E-04   2.2050014E+05   -1.7673220E+00
   2.4332857E-04   2.1871221E+05   -1.7667486E+00
   2.4445228E-04   2.1693935E+05   -1.7661752E+00
   2.4558119E-04   2.1518143E+05   -1.7656015E+00
   2.4671531E-04   2.1343832E+05   -1.7650277E+00
   2.4785467E-04   2.1170989E+05   -1.7644537E+00
   2.4899928E-04   2.0999601E+05   -1.7638795E+00
   2.5014919E-04   2.0829656E+05   -1.7633052E+00
   2.5130440E-04   2.0661141E+05   -1.7627308E+00
   2.5246495E-04   2.0494043E+05   -1.7621562E+00
   2.5363086E-04   2.0328351E+05   -1.7615815E+00
   2.5480216E-04   2.0164052E+05   -1.7610067E+00
   2.5597886E-04   2.0001133E+05   -1.7604318E+00
   2.5716100E-04   1.9839584E+05   -1.7598567E+00
   2.5834859E-04   1.9679391E+05   -1.7592816E+00
   2.5954168E-04   1.9520544E+05   -1.7587063E+00
   2.6074027E-04   1.9363030E+05   -1.7581310E+00
   2.6194439E-04   1.9206838E+05   -1.7575556E+00
   2.6315408E-04   1.9051956E+05   -1.7569800E+00
   2.6436935E-04   1.8898373E+05   -1.7564045E+00
   2.6559024E-04   1.8746079E+05   -1.7558288E+00
   2.6681676E-04   1.8595061E+05   -1.7552531E+00
   2.6804895E-04   1.8445308E+05   -1.7546773E+00
   2.6928683E-04   1.8296810E+05   -1.7541015E+00
   2.7053042E-04   1.8149556E+05   -1.7535256E+00
   2.7177976E-04   1.8003534E+05   -1.7529497E+00
   2.7303487E-04   1.7858735E+05   -1.7523738E+00
   2.7429577E-04   1.7715147E+05   -1.7517978E+00
   2.7556250E-04   1.7572761E+05   -1.7512219E+00
   2.7683507E-04   1.7431565E+05   -1.7506459E+00
   2.7811353E-04   1.7291549E+05   -1.7500699E+00
   2.7939788E-04   1.7152704E+05   -1.7494939E+00
   2.8068817E-04   1.7015019E+05   -1.7489179E+00
   2.8198442E-04   1.6878483E+05   -1.7483419E+00
   2.8328665E-04   1.6743088E+05   -1.7477659E+00
   2.8459490E-04   1.6608823E+05   -1.7471899E+00
   2.8590919E-04   1.6475679E+05   -1.7466140E+00
   2.8722955E-04   1.6343645E+05   -1.7460381E+00
   2.8855600E-04   1.6212712E+05   -1.7454623E+00
   2.8988859E-04   1.6082871E+05   -1.7448865E+00
   2.9122732E-04   1.5954112E+05   -1.7443108E+00
   2.9257224E-04   1.5826425E+05   -1.7437351E+00
   2.9392337E-04   1.5699803E+05   -1.7431595E+00
   2.9528074E-04   1.5574234E+05   -1.7425839E+00
   2.9664438E-04   1.5449711E+05   -1.7420085E+00
   2.9801431E-04   1.5326225E+05   -1.7414331E+00
   2.9939057E-04   1.5203765E+05   -1.7408578E+00
   3.0077319E-04   1.5082324E+05   -1.7402826E+00
   3.0216219E-04   1.4961893E+05   -1.7397075E+00
   3.0355761E-04   1.4842463E+05   -1.7391325E+00
   3.0495947E-04   1.4724025E+05   -1.7385577E+00
   3.0636780E-04   1.4606570E+05   -1.7379829E+00
   3.0778264E-04   1.4490091E+05   -1.7374083E+00
   3.0920401E-04   1.4374579E+05   -1.7368338E+00
   3.1063195E-04   1.4260026E+05   -1.7362595E+00
   3.1206648E-04   1.4146423E+05   -1.7356853E+00
   3.1350764E-04   1.4033762E+05   -1.7351112E+00
   3.1495545E-04   1.3922035E+05   -1.7345373E+00
   3.1640994E-04   1.3811234E+05   -1.7339636E+00
   3.1787116E-04   1.3701351E+05   -1.7333900E+00
   3.1933912E-04   1.3592378E+05   -1.7328166E+00
   3.2081386E-04   1.3484308E+05   -1.7322434E+00
   3.2229541E-04   1.3377132E+05   -1.7316704E+00
   3.2378381E-04   1.3270843E+05   -1.7310976E+00
   3.2527908E-04   1.3165433E+05   -1.7305250E+00
   3.2678125E-04   1.3060895E+05   -1.7299525E+00
   3.2829036E-04   1.2957222E+05   -1.7293803E+00
   3.2980644E-04   1.2854405E+05   -1.7288083E+00
   3.3132952E-04   1.2752437E+05   -1.7282366E+00
   3.3285963E-04   1.2651312E+05   -1.7276650E+00
   3.3439681E-04   1.2551022E+05   -1.7270937E+00
   3.3594109E-04   1.2451559E+05   -1.7265226E+00
   3.3749250E-04   1.2352917E+05   -1.7259518E+00
   3.3905108E-04   1.2255089E+05   -1.7253812E+00
   3.4061685E-04   1.2158068E+05   -1.7248109E+00
   3.4218986E-04   1.2061846E+05   -1.7242409E+00
   3.4377013E-04   1.1966417E+05   -1.7236711E+00
   3.4535769E-04   1.1871775E+05   -1.7231016E+00
   3.4695259E-04   1.1777911E+05   -1.7225324E+00
   3.4855485E-04   1.1684821E+05   -1.7219635E+00
   3.5016452E-04   1.1592497E+05   -1.7213948E+00
   3.5178161E-04   1.1500932E+05   -1.7208265E+00
   3.5340618E-04   1.1410121E+05   -1.7202584E+00
   3.5503824E-04   1.1320056E+05   -1.7196907E+00
   3.5667785E-04   1.1230731E+05   -1.7191233E+00
   3.5832502E-04   1.1142141E+05   -1.7185562E+00
   3.5997981E-04   1.1054278E+05   -1.7179895E+00
   3.6164223E-04   1.0967136E+05   -1.7174230E+00
   3.6331233E-04   1.0880710E+05   -1.7168569E+00
   3.6499015E-04   1.0794993E+05   -1.7162912E+00
   3.6667571E-04   1.0709980E+05   -1.7157258E+00
   3.6836906E-04   1.0625663E+05   -1.7151608E+00
   3.7007022E-04   1.0542038E+05   -1.7145961E+00
   3.7177925E-04   1.0459098E+05   -1.7140318E+00
   3.7349616E-04   1.0376837E+05   -1.7134679E+00
   3.7522101E-04   1.0295251E+05   -1.7129043E+00
   3.7695382E-04   1.0214332E+05   -1.7123412E+00
   3.7869463E-04   1.0134075E+05   -1.7117784E+00
   3.8044348E-04   1.0054476E+05   -1.7112160E+00
   3.8220041E-04   9.9755269E+04   -1.7106540E+00
   3.8396545E-04   9.8972237E+04   -1.7100924E+00
   3.8573864E-04   9.8195605E+04   -1.7095313E+00
   3.8752002E-04   9.7425320E+04   -1.7089705E+00
   3.8930963E-04   9.6661326E+04   -1.7084102E+00
   3.9110750E-04   9.5903571E+04   -1.7078503E+00
   3.9291368E-04   9.5152002E+04   -1.7072909E+00
   3.9472820E-04   9.4406566E+04   -1.7067318E+00
   3.9655109E-04   9.3667211E+04   -1.7061733E+00
   3.9838241E-04   9.2933885E+04   -1.7056151E+00
   4.0022218E-04   9.2206537E+04   -1.7050575E+00
   4.0207045E-04   9.1485117E+04   -1.7045003E+00
   4.0392725E-04   9.0769575E+04   -1.7039435E+00
   4.0579263E-04   9.0059860E+04   -1.7033873E+00
   4.0766662E-04   8.9355923E+04   -1.7028315E+00
   4.0954927E-04   8.8657715E+04   -1.7022761E+00
   4.1144061E-04   8.7965188E+04   -1.7017213E+00
   4.1334068E-04   8.7278293E+04   -1.7011670E+00
   4.1524953E-04   8.6596983E+04   -1.7006132E+00
   4.1716720E-04   8.5921211E+04   -1.7000598E+00
   4.1909372E-04   8.5250929E+04   -1.6995070E+00
   4.2102914E-04   8.4586091E+04   -1.6989547E+00
   4.2297350E-04   8.3926652E+04   -1.6984029E+00
   4.2492683E-04   8.3272566E+04   -1.6978516E+00
   4.2688919E-04   8.2623787E+04   -1.6973009E+00
   4.2886061E-04   8.1980270E+04   -1.6967507E+00
   4.3084113E-04   8.1341972E+04   -1.6962010E+00
   4.3283080E-04   8.0708848E+04   -1.6956519E+00
   4.3482966E-04   8.0080854E+04   -1.6951033E+00
   4.3683775E-04   7.9457948E+04   -1.6945553E+00
   4.3885511E-04   7.8840085E+04   -1.6940079E+00
   4.4088179E-04   7.8227225E+04   -1.6934610E+00
   4.4291783E-04   7.7619323E+04   -1.6929147E+00
   4.4496327E-04   7.7016340E+04   -1.6923689E+00
   4.4701816E-04   7.6418233E+04   -1.6918237E+00
   4.4908253E-04   7.5824961E+04   -1.6912791E+00
   4.5115644E-04   7.5236483E+04   -1.6907351E+00
   4.5323993E-04   7.4652760E+04   -1.6901917E+00
   4.5533304E-04   7.4073751E+04   -1.6896489E+00
   4.5743582E-04   7.3499417E+04   -1.6891067E+00
   4.5954830E-04   7.2929718E+04   -1.6885651E+00
   4.6167054E-04   7.2364615E+04   -1.6880241E+00
   4.6380259E-04   7.1804070E+04   -1.6874837E+00
   4.6594448E-04   7.1248044E+04   -1.6869440E+00
   4.6809626E-04   7.0696499E+04   -1.6864049E+00
   4.7025797E-04   7.0149398E+04   -1.6858664E+00
   4.7242967E-04   6.9606704E+04   -1.6853285E+00
   4.7461140E-04   6.9068379E+04   -1.6847913E+00
   4.7680321E-04   6.8534387E+04   -1.6842547E+00
   4.7900514E-04   6.8004691E+04   -1.6837188E+00
   4.8121723E-04   6.7479256E+04   -1.6831835E+00
   4.8343954E-04   6.6958046E+04   -1.6826489E+00
   4.8567212E-04   6.6441025E+04   -1.6821149E+00
   4.8791500E-04   6.5928158E+04   -1.6815816E+00
   4.9016825E-04   6.5419411E+04   -1.6810490E+00
   4.9243189E-04   6.4914749E+04   -1.6805171E+00
   4.9470600E-04   6.4414138E+04   -1.6799858E+00
   4.9699060E-04   6.3917544E+04   -1.6794552E+00
   4.9928575E-04   6.3424933E+04   -1.6789254E+00
   5.0159151E-04   6.2936272E+04   -1.6783962E+00
   5.0390791E-04   6.2451529E+04   -1.6778677E+00
   5.0623501E-04   6.1970669E+04   -1.6773399E+00
   5.0857286E-04   6.1493662E+04   -1.6768128E+00
   5.1092150E-04   6.1020475E+04   -1.6762864E+00
   5.1328099E-04   6.0551075E+04   -1.6757607E+00
   5.1565137E-04   6.0085432E+04   -1.6752358E+00
   5.1803270E-04   5.9623513E+04   -1.6747115E+00
   5.2042503E-04   5.9165289E+04   -1.6741880E+00
   5.2282841E-04   5.8710727E+04   -1.6736653E+00
   5.2524289E-04   5.8259798E+04   -1.6731432E+00
   5.2766851E-04   5.7812472E+04   -1.6726219E+00
   5.3010534E-04   5.7368718E+04   -1.6721014E+00
   5.3255342E-04   5.6928506E+04   -1.6715815E+00
   5.3501281E-04   5.6491808E+04   -1.6710625E+00
   5.3748356E-04   5.6058593E+04   -1.6705442E+00
   5.3996571E-04   5.5628833E+04   -1.6700266E+00
   5.4245933E-04   5.5202500E+04   -1.6695098E+00
   5.4496446E-04   5.4779564E+04   -1.6689938E+00
   5.4748117E-04   5.4359998E+04   -1.6684785E+00
   5.5000949E-04   5.3943773E+04   -1.6679640E+00
   5.5254949E-04   5.3530862E+04   -1.6674503E+00
   5.5510123E-04   5.3121237E+04   -1.6669374E+00
   5.5766474E-04   5.2714871E+04   -1.6664253E+00
   5.6024010E-04   5.2311737E+04   -1.6659139E+00
   5.6282734E-04   5.1911809E+04   -1.6654033E+00
   5.6542654E-04   5.1515059E+04   -1.6648935E+00
   5.6803774E-04   5.1121461E+04   -1.6643846E+00
   5.7066099E-04   5.0730989E+04   -1.6638764E+00
   5.7329637E-04   5.0343617E+04   -1.6633690E+00
   5.7594391E-04   4.9959320E+04   -1.6628625E+00
   5.7860368E-04   4.9578073E+04   -1.6623567E+00
   5.8127573E-04   4.9199849E+04   -1.6618518E+00
   5.8396012E-04   4.8824624E+04   -1.6613477E+00
   5.8665691E-04   4.8452373E+04   -1.6608444E+00
   5.8936616E-04   4.8083072E+04   -1.6603419E+00
   5.9208791E-04   4.7716696E+04   -1.6598402E+00
   5.9482223E-04   4.7353221E+04   -1.6593394E+00
   5.9756919E-04   4.6992623E+04   -1.6588395E+00
   6.0032882E-04   4.6634878E+04   -1.6583403E+00
   6.0310120E-04   4.6279963E+04   -1.6578420E+00
   6.0588639E-04   4.5927855E+04   -1.6573446E+00
   6.0868443E-04   4.5578529E+04   -1.6568480E+00
   6.1149540E-04   4.5231965E+04   -1.6563522E+00
   6.1431935E-04   4.4888137E+04   -1.6558573E+00
   6.1715634E-04   4.4547025E+04   -1.6553633E+00
   6.2000644E-04   4.4208606E+04   -1.6548701E+00
   6.2286969E-04   4.3872857E+04   -1.6543778E+00
