#        a       HoverH0(a)       dlogHdloga_of_a(a)
   1.0000000E-04   1.0899266E+06   -1.8597916E+00
   1.0046181E-04   1.0806282E+06   -1.8593263E+00
   1.0092575E-04   1.0714113E+06   -1.8588600E+00
   1.0139184E-04   1.0622754E+06   -1.8583928E+00
   1.0186008E-04   1.0532196E+06   -1.8579246E+00
   1.0233048E-04   1.0442433E+06   -1.8574556E+00
   1.0280305E-04   1.0353458E+06   -1.8569856E+00
   1.0327781E-04   1.0265262E+06   -1.8565146E+00
   1.0375475E-04   1.0177840E+06   -1.8560428E+00
   1.0423390E-04   1.0091185E+06   -1.8555700E+00
   1.0471527E-04   1.0005289E+06   -1.8550963E+00
   1.0519885E-04   9.9201462E+05   -1.8546216E+00
   1.0568467E-04   9.8357492E+05   -1.8541461E+00
   1.0617274E-04   9.7520917E+05   -1.8536696E+00
   1.0666305E-04   9.6691670E+05   -1.8531923E+00
   1.0715563E-04   9.5869685E+05   -1.8527140E+00
   1.0765049E-04   9.5054898E+05   -1.8522348E+00
   1.0814763E-04   9.4247243E+05   -1.8517547E+00
   1.0864707E-04   9.3446658E+05   -1.8512737E+00
   1.0914881E-04   9.2653080E+05   -1.8507919E+00
   1.0965287E-04   9.1866444E+05   -1.8503091E+00
   1.1015926E-04   9.1086690E+05   -1.8498254E+00
   1.1066799E-04   9.0313756E+05   -1.8493408E+00
   1.1117906E-04   8.9547581E+05   -1.8488554E+00
   1.1169250E-04   8.8788104E+05   -1.8483690E+00
   1.1220831E-04   8.8035266E+05   -1.8478818E+00
   1.1272650E-04   8.7289008E+05   -1.8473937E+00
   1.1324708E-04   8.6549270E+05   -1.8469047E+00
   1.1377007E-04   8.5815995E+05   -1.8464149E+00
   1.1429547E-04   8.5089125E+05   -1.8459241E+00
   1.1482330E-04   8.4368602E+05   -1.8454326E+00
   1.1535356E-04   8.3654371E+05   -1.8449401E+00
   1.1588628E-04   8.2946374E+05   -1.8444468E+00
   1.1642145E-04   8.2244556E+05   -1.8439526E+00
   1.1695910E-04   8.1548862E+05   -1.8434576E+00
   1.1749923E-04   8.0859238E+05   -1.8429617E+00
   1.1804185E-04   8.0175628E+05   -1.8424649E+00
   1.1858698E-04   7.9497980E+05   -1.8419673E+00
   1.1913463E-04   7.8826241E+05   -1.8414689E+00
   1.1968481E-04   7.8160357E+05   -1.8409696E+00
   1.2023752E-04   7.7500277E+05   -1.8404695E+00
   1.2079279E-04   7.6845948E+05   -1.8399686E+00
   1.2135063E-04   7.6197320E+05   -1.8394668E+00
   1.2191104E-04   7.5554342E+05   -1.8389642E+00
   1.2247403E-04   7.4916963E+05   -1.8384608E+00
   1.2303963E-04   7.4285133E+05   -1.8379565E+00
   1.2360784E-04   7.3658804E+05   -1.8374514E+00
   1.2417868E-04   7.3037925E+05   -1.8369455E+00
   1.2475215E-04   7.2422449E+05   -1.8364388E+00
   1.2532826E-04   7.1812326E+05   -1.8359313E+00
   1.2590704E-04   7.1207511E+05   -1.8354230E+00
   1.2648850E-04   7.0607955E+05   -1.8349139E+00
   1.2707263E-04   7.0013611E+05   -1.8344040E+00
   1.2765947E-04   6.9424433E+05   -1.8338933E+00
   1.2824901E-04   6.8840376E+05   -1.8333818E+00
   1.2884128E-04   6.8261394E+05   -1.8328695E+00
   1.2943628E-04   6.7687440E+05   -1.8323565E+00
   1.3003403E-04   6.7118472E+05   -1.8318426E+00
   1.3063454E-04   6.6554443E+05   -1.8313280E+00
   1.3123783E-04   6.5995312E+05   -1.8308126E+00
   1.3184390E-04   6.5441033E+05   -1.8302965E+00
   1.3245277E-04   6.4891563E+05   -1.8297795E+00
   1.3306445E-04   6.4346861E+05   -1.8292619E+00
   1.3367895E-04   6.3806883E+05   -1.8287434E+00
   1.3429630E-04   6.3271587E+05   -1.8282242E+00
   1.3491649E-04   6.2740933E+05   -1.8277043E+00
   1.3553955E-04   6.2214878E+05   -1.8271836E+00
   1.3616548E-04   6.1693383E+05   -1.8266622E+00
   1.3679431E-04   6.1176405E+05   -1.8261400E+00
   1.3742604E-04   6.0663906E+05   -1.8256171E+00
   1.3806069E-04   6.0155845E+05   -1.8250935E+00
   1.3869827E-04   5.9652184E+05   -1.8245691E+00
   1.3933879E-04   5.9152882E+05   -1.8240440E+00
   1.3998227E-04   5.8657901E+05   -1.8235182E+00
   1.4062872E-04   5.8167204E+05   -1.8229917E+00
   1.4127816E-04   5.7680751E+05   -1.8224645E+00
   1.4193060E-04   5.7198505E+05   -1.8219366E+00
   1.4258605E-04   5.6720430E+05   -1.8214080E+00
   1.4324453E-04   5.6246487E+05   -1.8208787E+00
   1.4390605E-04   5.5776641E+05   -1.8203486E+00
   1.4457062E-04   5.5310854E+05   -1.8198179E+00
   1.4523826E-04   5.4849092E+05   -1.8192866E+00
   1.4590899E-04   5.4391318E+05   -1.8187545E+00
   1.4658281E-04   5.3937497E+05   -1.8182218E+00
   1.4725974E-04   5.3487593E+05   -1.8176884E+00
   1.4793981E-04   5.3041573E+05   -1.8171543E+00
   1.4862301E-04   5.2599402E+05   -1.8166196E+00
   1.4930936E-04   5.2161045E+05   -1.8160842E+00
   1.4999889E-04   5.1726469E+05   -1.8155481E+00
   1.5069160E-04   5.1295641E+05   -1.8150114E+00
   1.5138751E-04   5.0868526E+05   -1.8144741E+00
   1.5208663E-04   5.0445094E+05   -1.8139361E+00
   1.5278899E-04   5.0025309E+05   -1.8133975E+00
   1.5349458E-04   4.9609142E+05   -1.8128583E+00
   1.5420343E-04   4.9196559E+05   -1.8123184E+00
   1.5491556E-04   4.8787528E+05   -1.8117779E+00
   1.5563098E-04   4.8382019E+05   -1.8112368E+00
   1.5634970E-04   4.7980000E+05   -1.8106951E+00
   1.5707174E-04   4.7581440E+05   -1.8101528E+00
   1.5779711E-04   4.7186309E+05   -1.8096099E+00
   1.5852584E-04   4.6794577E+05   -1.8090664E+00
   1.5925792E-04   4.6406213E+05   -1.8085223E+00
   1.5999339E-04   4.6021187E+05   -1.8079776E+00
   1.6073226E-04   4.5639471E+05   -1.8074323E+00
   1.6147454E-04   4.5261034E+05   -1.8068864E+00
   1.6222024E-04   4.4885848E+05   -1.8063400E+00
   1.6296939E-04   4.4513885E+05   -1.8057930E+00
   1.6372200E-04   4.4145115E+05   -1.8052455E+00
   1.6447809E-04   4.3779511E+05   -1.8046973E+00
   1.6523767E-04   4.3417044E+05   -1.8041487E+00
   1.6600075E-04   4.3057687E+05   -1.8035995E+00
   1.6676736E-04   4.2701413E+05   -1.8030497E+00
   1.6753751E-04   4.2348194E+05   -1.8024994E+00
   1.6831122E-04   4.1998003E+05   -1.8019486E+00
   1.6908849E-04   4.1650814E+05   -1.8013972E+00
   1.6986936E-04   4.1306600E+05   -1.8008453E+00
   1.7065384E-04   4.0965335E+05   -1.8002929E+00
   1.7144193E-04   4.0626993E+05   -1.7997400E+00
   1.7223367E-04   4.0291547E+05   -1.7991866E+00
   1.7302906E-04   3.9958974E+05   -1.7986327E+00
   1.7382813E-04   3.9629247E+05   -1.7980782E+00
   1.7463089E-04   3.9302341E+05   -1.7975233E+00
   1.7543735E-04   3.8978231E+05   -1.7969679E+00
   1.7624754E-04   3.8656894E+05   -1.7964121E+00
   1.7706147E-04   3.8338303E+05   -1.7958557E+00
   1.7787916E-04   3.8022436E+05   -1.7952989E+00
   1.7870062E-04   3.7709268E+05   -1.7947416E+00
   1.7952588E-04   3.7398775E+05   -1.7941838E+00
   1.8035495E-04   3.7090934E+05   -1.7936256E+00
   1.8118785E-04   3.6785722E+05   -1.7930670E+00
   1.8202459E-04   3.6483116E+05   -1.7925079E+00
   1.8286520E-04   3.6183091E+05   -1.7919483E+00
   1.8370969E-04   3.5885627E+05   -1.7913884E+00
   1.8455808E-04   3.5590700E+05   -1.7908280E+00
   1.8541039E-04   3.5298288E+05   -1.7902672E+00
   1.8626663E-04   3.5008369E+05   -1.7897059E+00
   1.8712683E-04   3.4720921E+05   -1.7891443E+00
   1.8799100E-04   3.4435923E+05   -1.7885822E+00
   1.8885917E-04   3.4153352E+05   -1.7880198E+00
   1.8973134E-04   3.3873188E+05   -1.7874569E+00
   1.9060754E-04   3.3595409E+05   -1.7868937E+00
   1.9148778E-04   3.3319994E+05   -1.7863301E+00
   1.9237209E-04   3.3046924E+05   -1.7857661E+00
   1.9326049E-04   3.2776176E+05   -1.7852017E+00
   1.9415299E-04   3.2507731E+05   -1.7846370E+00
   1.9504960E-04   3.2241569E+05   -1.7840719E+00
   1.9595036E-04   3.1977669E+05   -1.7835064E+00
   1.9685528E-04   3.1716012E+05   -1.7829406E+00
   1.9776438E-04   3.1456578E+05   -1.7823745E+00
   1.9867768E-04   3.1199347E+05   -1.7818080E+00
   1.9959519E-04   3.0944301E+05   -1.7812412E+00
   2.0051694E-04   3.0691420E+05   -1.7806740E+00
   2.0144295E-04   3.0440685E+05   -1.7801066E+00
   2.0237324E-04   3.0192077E+05   -1.7795388E+00
   2.0330782E-04   2.9945578E+05   -1.7789707E+00
   2.0424671E-04   2.9701169E+05   -1.7784023E+00
   2.0518995E-04   2.9458832E+05   -1.7778336E+00
   2.0613754E-04   2.9218550E+05   -1.7772646E+00
   2.0708950E-04   2.8980303E+05   -1.7766953E+00
   2.0804586E-04   2.8744074E+05   -1.7761258E+00
   2.0900664E-04   2.8509845E+05   -1.7755560E+00
   2.0997185E-04   2.8277600E+05   -1.7749859E+00
   2.1094152E-04   2.8047320E+05   -1.7744155E+00
   2.1191567E-04   2.7818988E+05   -1.7738449E+00
   2.1289432E-04   2.7592588E+05   -1.7732741E+00
   2.1387749E-04   2.7368102E+05   -1.7727029E+00
   2.1486520E-04   2.7145515E+05   -1.7721316E+00
   2.1585747E-04   2.6924808E+05   -1.7715600E+00
   2.1685432E-04   2.6705966E+05   -1.7709882E+00
   2.1785578E-04   2.6488973E+05   -1.7704162E+00
   2.1886186E-04   2.6273812E+05   -1.7698439E+00
   2.1987259E-04   2.6060467E+05   -1.7692715E+00
   2.2088798E-04   2.5848923E+05   -1.7686988E+00
   2.2190807E-04   2.5639164E+05   -1.7681260E+00
   2.2293286E-04   2.5431175E+05   -1.7675529E+00
   2.2396239E-04   2.5224939E+05   -1.7669797E+00
   2.2499667E-04   2.5020441E+05   -1.7664063E+00
   2.2603573E-04   2.4817667E+05   -1.7658327E+00
   2.2707958E-04   2.4616602E+05   -1.7652589E+00
   2.2812826E-04   2.4417230E+05   -1.7646850E+00
   2.2918178E-04   2.4219537E+05   -1.7641109E+00
   2.3024017E-04   2.4023508E+05   -1.7635367E+00
   2.3130344E-04   2.3829128E+05   -1.7629623E+00
   2.3237162E-04   2.3636384E+05   -1.7623878E+00
   2.3344474E-04   2.3445261E+05   -1.7618132E+00
   2.3452281E-04   2.3255745E+05   -1.7612384E+00
   2.3560586E-04   2.3067822E+05   -1.7606636E+00
   2.3669392E-04   2.2881479E+05   -1.7600886E+00
   2.3778699E-04   2.2696700E+05   -1.7595135E+00
   2.3888512E-04   2.2513474E+05   -1.7589383E+00
   2.3998831E-04   2.2331786E+05   -1.7583630E+00
   2.4109661E-04   2.2151623E+05   -1.7577876E+00
   2.4221001E-04   2.1972971E+05   -1.7572121E+00
   2.4332857E-04   2.1795818E+05   -1.7566366E+00
   2.4445228E-04   2.1620151E+05   -1.7560609E+00
   2.4558119E-04   2.1445956E+05   -1.7554853E+00
   2.4671531E-04   2.1273222E+05   -1.7549095E+00
   2.4785467E-04   2.1101934E+05   -1.7543337E+00
   2.4899928E-04   2.0932082E+05   -1.7537579E+00
   2.5014919E-04   2.0763651E+05   -1.7531820E+00
   2.5130440E-04   2.0596631E+05   -1.7526061E+00
   2.5246495E-04   2.0431008E+05   -1.7520301E+00
   2.5363086E-04   2.0266771E+05   -1.7514542E+00
   2.5480216E-04   2.0103908E+05   -1.7508782E+00
   2.5597886E-04   1.9942406E+05   -1.7503022E+00
   2.5716100E-04   1.9782254E+05   -1.7497262E+00
   2.5834859E-04   1.9623440E+05   -1.7491502E+00
   2.5954168E-04   1.9465953E+05   -1.7485742E+00
   2.6074027E-04   1.9309781E+05   -1.7479983E+00
   2.6194439E-04   1.9154913E+05   -1.7474223E+00
   2.6315408E-04   1.9001337E+05   -1.7468464E+00
   2.6436935E-04   1.8849042E+05   -1.7462705E+00
   2.6559024E-04   1.8698018E+05   -1.7456947E+00
   2.6681676E-04   1.8548253E+05   -1.7451189E+00
   2.6804895E-04   1.8399737E+05   -1.7445431E+00
   2.6928683E-04   1.8252458E+05   -1.7439674E+00
   2.7053042E-04   1.8106406E+05   -1.7433918E+00
   2.7177976E-04   1.7961570E+05   -1.7428162E+00
   2.7303487E-04   1.7817940E+05   -1.7422408E+00
   2.7429577E-04   1.7675506E+05   -1.7416654E+00
   2.7556250E-04   1.7534257E+05   -1.7410900E+00
   2.7683507E-04   1.7394182E+05   -1.7405148E+00
   2.7811353E-04   1.7255272E+05   -1.7399397E+00
   2.7939788E-04   1.7117517E+05   -1.7393647E+00
   2.8068817E-04   1.6980907E+05   -1.7387898E+00
   2.8198442E-04   1.6845431E+05   -1.7382150E+00
   2.8328665E-04   1.6711081E+05   -1.7376403E+00
   2.8459490E-04   1.6577846E+05   -1.7370658E+00
   2.8590919E-04   1.6445716E+05   -1.7364914E+00
   2.8722955E-04   1.6314683E+05   -1.7359172E+00
   2.8855600E-04   1.6184737E+05   -1.7353431E+00
   2.8988859E-04   1.6055869E+05   -1.7347691E+00
   2.9122732E-04   1.5928068E+05   -1.7341953E+00
   2.9257224E-04   1.5801327E+05   -1.7336217E+00
   2.9392337E-04   1.5675635E+05   -1.7330483E+00
   2.9528074E-04   1.5550985E+05   -1.7324750E+00
   2.9664438E-04   1.5427366E+05   -1.7319019E+00
   2.9801431E-04   1.5304770E+05   -1.7313290E+00
   2.9939057E-04   1.5183189E+05   -1.7307563E+00
   3.0077319E-04   1.5062614E+05   -1.7301838E+00
   3.0216219E-04   1.4943035E+05   -1.7296116E+00
   3.0355761E-04   1.4824444E+05   -1.7290395E+00
   3.0495947E-04   1.4706834E+05   -1.7284676E+00
   3.0636780E-04   1.4590195E+05   -1.7278960E+00
   3.0778264E-04   1.4474519E+05   -1.7273246E+00
   3.0920401E-04   1.4359798E+05   -1.7267535E+00
   3.1063195E-04   1.4246024E+05   -1.7261826E+00
   3.1206648E-04   1.4133189E+05   -1.7256119E+00
   3.1350764E-04   1.4021284E+05   -1.7250415E+00
   3.1495545E-04   1.3910301E+05   -1.7244713E+00
   3.1640994E-04   1.3800234E+05   -1.7239015E+00
   3.1787116E-04   1.3691073E+05   -1.7233319E+00
   3.1933912E-04   1.3582811E+05   -1.7227626E+00
   3.2081386E-04   1.3475441E+05   -1.7221935E+00
   3.2229541E-04   1.3368955E+05   -1.7216248E+00
   3.2378381E-04   1.3263344E+05   -1.7210563E+00
   3.2527908E-04   1.3158603E+05   -1.7204882E+00
   3.2678125E-04   1.3054723E+05   -1.7199203E+00
   3.2829036E-04   1.2951696E+05   -1.7193528E+00
   3.2980644E-04   1.2849517E+05   -1.7187856E+00
   3.3132952E-04   1.2748177E+05   -1.7182187E+00
   3.3285963E-04   1.2647669E+05   -1.7176522E+00
   3.3439681E-04   1.2547986E+05   -1.7170860E+00
   3.3594109E-04   1.2449121E+05   -1.7165201E+00
   3.3749250E-04   1.2351068E+05   -1.7159546E+00
   3.3905108E-04   1.2253819E+05   -1.7153894E+00
   3.4061685E-04   1.2157367E+05   -1.7148246E+00
   3.4218986E-04   1.2061705E+05   -1.7142602E+00
   3.4377013E-04   1.1966828E+05   -1.7136961E+00
   3.4535769E-04   1.1872728E+05   -1.7131324E+00
   3.4695259E-04   1.1779398E+05   -1.7125691E+00
   3.4855485E-04   1.1686832E+05   -1.7120062E+00
   3.5016452E-04   1.1595024E+05   -1.7114437E+00
   3.5178161E-04   1.1503966E+05   -1.7108816E+00
   3.5340618E-04   1.1413654E+05   -1.7103198E+00
   3.5503824E-04   1.1324079E+05   -1.7097585E+00
   3.5667785E-04   1.1235237E+05   -1.7091976E+00
   3.5832502E-04   1.1147120E+05   -1.7086371E+00
   3.5997981E-04   1.1059723E+05   -1.7080771E+00
   3.6164223E-04   1.0973040E+05   -1.7075175E+00
   3.6331233E-04   1.0887064E+05   -1.7069583E+00
   3.6499015E-04   1.0801790E+05   -1.7063996E+00
   3.6667571E-04   1.0717211E+05   -1.7058413E+00
   3.6836906E-04   1.0633321E+05   -1.7052834E+00
   3.7007022E-04   1.0550116E+05   -1.7047261E+00
   3.7177925E-04   1.0467588E+05   -1.7041691E+00
   3.7349616E-04   1.0385733E+05   -1.7036127E+00
   3.7522101E-04   1.0304544E+05   -1.7030567E+00
   3.7695382E-04   1.0224015E+05   -1.7025012E+00
   3.7869463E-04   1.0144143E+05   -1.7019462E+00
   3.8044348E-04   1.0064920E+05   -1.7013917E+00
   3.8220041E-04   9.9863407E+04   -1.7008377E+00
   3.8396545E-04   9.9084005E+04   -1.7002842E+00
   3.8573864E-04   9.8310938E+04   -1.6997312E+00
   3.8752002E-04   9.7544150E+04   -1.6991787E+00
   3.8930963E-04   9.6783589E+04   -1.6986267E+00
   3.9110750E-04   9.6029203E+04   -1.6980752E+00
   3.9291368E-04   9.5280938E+04   -1.6975243E+00
   3.9472820E-04   9.4538744E+04   -1.6969739E+00
   3.9655109E-04   9.3802569E+04   -1.6964240E+00
   3.9838241E-04   9.3072362E+04   -1.6958747E+00
   4.0022218E-04   9.2348073E+04   -1.6953259E+00
   4.0207045E-04   9.1629652E+04   -1.6947777E+00
   4.0392725E-04   9.0917050E+04   -1.6942301E+00
   4.0579263E-04   9.0210218E+04   -1.6936829E+00
   4.0766662E-04   8.9509105E+04   -1.6931364E+00
   4.0954927E-04   8.8813666E+04   -1.6925904E+00
   4.1144061E-04   8.8123851E+04   -1.6920451E+00
   4.1334068E-04   8.7439614E+04   -1.6915002E+00
   4.1524953E-04   8.6760907E+04   -1.6909560E+00
   4.1716720E-04   8.6087684E+04   -1.6904124E+00
   4.1909372E-04   8.5419898E+04   -1.6898694E+00
   4.2102914E-04   8.4757505E+04   -1.6893269E+00
   4.2297350E-04   8.4100458E+04   -1.6887851E+00
   4.2492683E-04   8.3448713E+04   -1.6882439E+00
   4.2688919E-04   8.2802225E+04   -1.6877033E+00
   4.2886061E-04   8.2160950E+04   -1.6871633E+00
   4.3084113E-04   8.1524844E+04   -1.6866239E+00
   4.3283080E-04   8.0893864E+04   -1.6860852E+00
   4.3482966E-04   8.0267967E+04   -1.6855471E+00
   4.3683775E-04   7.9647110E+04   -1.6850096E+00
   4.3885511E-04   7.9031250E+04   -1.6844728E+00
   4.4088179E-04   7.8420347E+04   -1.6839367E+00
   4.4291783E-04   7.7814358E+04   -1.6834011E+00
   4.4496327E-04   7.7213241E+04   -1.6828663E+00
   4.4701816E-04   7.6616958E+04   -1.6823321E+00
   4.4908253E-04   7.6025466E+04   -1.6817985E+00
   4.5115644E-04   7.5438725E+04   -1.6812657E+00
   4.5323993E-04   7.4856697E+04   -1.6807335E+00
   4.5533304E-04   7.4279341E+04   -1.6802020E+00
   4.5743582E-04   7.3706619E+04   -1.6796711E+00
   4.5954830E-04   7.3138492E+04   -1.6791410E+00
   4.6167054E-04   7.2574920E+04   -1.6786115E+00
   4.6380259E-04   7.2015867E+04   -1.6780828E+00
   4.6594448E-04   7.1461294E+04   -1.6775547E+00
   4.6809626E-04   7.0911165E+04   -1.6770274E+00
   4.7025797E-04   7.0365441E+04   -1.6765007E+00
   4.7242967E-04   6.9824086E+04   -1.6759748E+00
   4.7461140E-04   6.9287064E+04   -1.6754495E+00
   4.7680321E-04   6.8754339E+04   -1.6749250E+00
   4.7900514E-04   6.8225874E+04   -1.6744013E+00
   4.8121723E-04   6.7701634E+04   -1.6738782E+00
   4.8343954E-04   6.7181585E+04   -1.6733559E+00
   4.8567212E-04   6.6665690E+04   -1.6728343E+00
   4.8791500E-04   6.6153916E+04   -1.6723135E+00
   4.9016825E-04   6.5646229E+04   -1.6717934E+00
   4.9243189E-04   6.5142593E+04   -1.6712741E+00
   4.9470600E-04   6.4642976E+04   -1.6707555E+00
   4.9699060E-04   6.4147343E+04   -1.6702376E+00
   4.9928575E-04   6.3655663E+04   -1.6697205E+00
   5.0159151E-04   6.3167902E+04   -1.6692042E+00
   5.0390791E-04   6.2684027E+04   -1.6686887E+00
   5.0623501E-04   6.2204006E+04   -1.6681739E+00
   5.0857286E-04   6.1727808E+04   -1.6676599E+00
   5.1092150E-04   6.1255400E+04   -1.6671467E+00
   5.1328099E-04   6.0786751E+04   -1.6666342E+00
   5.1565137E-04   6.0321830E+04   -1.6661226E+00
   5.1803270E-04   5.9860606E+04   -1.6656117E+00
   5.2042503E-04   5.9403048E+04   -1.6651017E+00
   5.2282841E-04   5.8949126E+04   -1.6645924E+00
   5.2524289E-04   5.8498809E+04   -1.6640839E+00
   5.2766851E-04   5.8052069E+04   -1.6635762E+00
   5.3010534E-04   5.7608875E+04   -1.6630694E+00
   5.3255342E-04   5.7169198E+04   -1.6625633E+00
   5.3501281E-04   5.6733008E+04   -1.6620581E+00
   5.3748356E-04   5.6300278E+04   -1.6615536E+00
   5.3996571E-04   5.5870978E+04   -1.6610500E+00
   5.4245933E-04   5.5445080E+04   -1.6605473E+00
   5.4496446E-04   5.5022556E+04   -1.6600453E+00
   5.4748117E-04   5.4603378E+04   -1.6595442E+00
   5.5000949E-04   5.4187518E+04   -1.6590439E+00
   5.5254949E-04   5.3774950E+04   -1.6585444E+00
   5.5510123E-04   5.3365645E+04   -1.6580458E+00
   5.5766474E-04   5.2959578E+04   -1.6575481E+00
   5.6024010E-04   5.2556720E+04   -1.6570511E+00
   5.6282734E-04   5.2157047E+04   -1.6565551E+00
   5.6542654E-04   5.1760531E+04   -1.6560599E+00
   5.6803774E-04   5.1367146E+04   -1.6555655E+00
   5.7066099E-04   5.0976867E+04   -1.6550720E+00
   5.7329637E-04   5.0589669E+04   -1.6545793E+00
   5.7594391E-04   5.0205525E+04   -1.6540876E+00
   5.7860368E-04   4.9824411E+04   -1.6535967E+00
   5.8127573E-04   4.9446302E+04   -1.6531066E+00
   5.8396012E-04   4.9071173E+04   -1.6526174E+00
   5.8665691E-04   4.8699000E+04   -1.6521291E+00
   5.8936616E-04   4.8329758E+04   -1.6516417E+00
   5.9208791E-04   4.7963423E+04   -1.6511552E+00
   5.9482223E-04   4.7599972E+04   -1.6506696E+00
   5.9756919E-04   4.7239380E+04   -1.6501848E+00
   6.0032882E-04   4.6881625E+04   -1.6497009E+00
   6.0310120E-04   4.6526682E+04   -1.6492179E+00
   6.0588639E-04   4.6174530E+04   -1.6487359E+00
   6.0868443E-04   4.5825144E+04   -1.6482547E+00
   6.1149540E-04   4.5478503E+04   -1.6477744E+00
   6.1431935E-04   4.5134584E+04   -1.6472950E+00
   6.1715634E-04   4.4793365E+04   -1.6468165E+00
   6.2000644E-04   4.4454823E+04   -1.6463390E+00
   6.2286969E-04   4.4118937E+04   -1.6458623E+00
