#        a       HoverH0(a)       dlogHdloga_of_a(a)
   1.0000000E-04   1.0758067E+06   -1.8911567E+00
   1.0046181E-04   1.0664744E+06   -1.8907638E+00
   1.0092575E-04   1.0572250E+06   -1.8903700E+00
   1.0139184E-04   1.0480577E+06   -1.8899751E+00
   1.0186008E-04   1.0389717E+06   -1.8895792E+00
   1.0233048E-04   1.0299665E+06   -1.8891822E+00
   1.0280305E-04   1.0210411E+06   -1.8887843E+00
   1.0327781E-04   1.0121950E+06   -1.8883853E+00
   1.0375475E-04   1.0034273E+06   -1.8879853E+00
   1.0423390E-04   9.9473741E+05   -1.8875843E+00
   1.0471527E-04   9.8612460E+05   -1.8871823E+00
   1.0519885E-04   9.7758818E+05   -1.8867793E+00
   1.0568467E-04   9.6912746E+05   -1.8863752E+00
   1.0617274E-04   9.6074176E+05   -1.8859701E+00
   1.0666305E-04   9.5243040E+05   -1.8855640E+00
   1.0715563E-04   9.4419270E+05   -1.8851569E+00
   1.0765049E-04   9.3602802E+05   -1.8847488E+00
   1.0814763E-04   9.2793568E+05   -1.8843396E+00
   1.0864707E-04   9.1991505E+05   -1.8839295E+00
   1.0914881E-04   9.1196546E+05   -1.8835183E+00
   1.0965287E-04   9.0408628E+05   -1.8831061E+00
   1.1015926E-04   8.9627689E+05   -1.8826929E+00
   1.1066799E-04   8.8853664E+05   -1.8822787E+00
   1.1117906E-04   8.8086492E+05   -1.8818635E+00
   1.1169250E-04   8.7326112E+05   -1.8814473E+00
   1.1220831E-04   8.6572461E+05   -1.8810301E+00
   1.1272650E-04   8.5825479E+05   -1.8806118E+00
   1.1324708E-04   8.5085108E+05   -1.8801926E+00
   1.1377007E-04   8.4351286E+05   -1.8797723E+00
   1.1429547E-04   8.3623955E+05   -1.8793510E+00
   1.1482330E-04   8.2903057E+05   -1.8789288E+00
   1.1535356E-04   8.2188533E+05   -1.8785055E+00
   1.1588628E-04   8.1480327E+05   -1.8780812E+00
   1.1642145E-04   8.0778382E+05   -1.8776559E+00
   1.1695910E-04   8.0082641E+05   -1.8772296E+00
   1.1749923E-04   7.9393048E+05   -1.8768023E+00
   1.1804185E-04   7.8709548E+05   -1.8763741E+00
   1.1858698E-04   7.8032087E+05   -1.8759448E+00
   1.1913463E-04   7.7360610E+05   -1.8755145E+00
   1.1968481E-04   7.6695064E+05   -1.8750832E+00
   1.2023752E-04   7.6035394E+05   -1.8746509E+00
   1.2079279E-04   7.5381549E+05   -1.8742177E+00
   1.2135063E-04   7.4733476E+05   -1.8737834E+00
   1.2191104E-04   7.4091123E+05   -1.8733481E+00
   1.2247403E-04   7.3454439E+05   -1.8729119E+00
   1.2303963E-04   7.2823372E+05   -1.8724747E+00
   1.2360784E-04   7.2197872E+05   -1.8720364E+00
   1.2417868E-04   7.1577890E+05   -1.8715972E+00
   1.2475215E-04   7.0963376E+05   -1.8711570E+00
   1.2532826E-04   7.0354280E+05   -1.8707158E+00
   1.2590704E-04   6.9750554E+05   -1.8702737E+00
   1.2648850E-04   6.9152149E+05   -1.8698305E+00
   1.2707263E-04   6.8559019E+05   -1.8693864E+00
   1.2765947E-04   6.7971115E+05   -1.8689413E+00
   1.2824901E-04   6.7388392E+05   -1.8684952E+00
   1.2884128E-04   6.6810801E+05   -1.8680482E+00
   1.2943628E-04   6.6238298E+05   -1.8676001E+00
   1.3003403E-04   6.5670836E+05   -1.8671511E+00
   1.3063454E-04   6.5108370E+05   -1.8667012E+00
   1.3123783E-04   6.4550856E+05   -1.8662502E+00
   1.3184390E-04   6.3998249E+05   -1.8657983E+00
   1.3245277E-04   6.3450504E+05   -1.8653455E+00
   1.3306445E-04   6.2907579E+05   -1.8648916E+00
   1.3367895E-04   6.2369431E+05   -1.8644368E+00
   1.3429630E-04   6.1836015E+05   -1.8639811E+00
   1.3491649E-04   6.1307291E+05   -1.8635243E+00
   1.3553955E-04   6.0783215E+05   -1.8630667E+00
   1.3616548E-04   6.0263747E+05   -1.8626080E+00
   1.3679431E-04   5.9748845E+05   -1.8621484E+00
   1.3742604E-04   5.9238467E+05   -1.8616879E+00
   1.3806069E-04   5.8732574E+05   -1.8612264E+00
   1.3869827E-04   5.8231126E+05   -1.8607640E+00
   1.3933879E-04   5.7734081E+05   -1.8603006E+00
   1.3998227E-04   5.7241402E+05   -1.8598363E+00
   1.4062872E-04   5.6753048E+05   -1.8593710E+00
   1.4127816E-04   5.6268982E+05   -1.8589048E+00
   1.4193060E-04   5.5789164E+05   -1.8584377E+00
   1.4258605E-04   5.5313557E+05   -1.8579696E+00
   1.4324453E-04   5.4842123E+05   -1.8575006E+00
   1.4390605E-04   5.4374824E+05   -1.8570307E+00
   1.4457062E-04   5.3911625E+05   -1.8565598E+00
   1.4523826E-04   5.3452487E+05   -1.8560880E+00
   1.4590899E-04   5.2997375E+05   -1.8556153E+00
   1.4658281E-04   5.2546252E+05   -1.8551417E+00
   1.4725974E-04   5.2099083E+05   -1.8546671E+00
   1.4793981E-04   5.1655832E+05   -1.8541917E+00
   1.4862301E-04   5.1216465E+05   -1.8537153E+00
   1.4930936E-04   5.0780947E+05   -1.8532380E+00
   1.4999889E-04   5.0349243E+05   -1.8527598E+00
   1.5069160E-04   4.9921319E+05   -1.8522807E+00
   1.5138751E-04   4.9497141E+05   -1.8518007E+00
   1.5208663E-04   4.9076676E+05   -1.8513198E+00
   1.5278899E-04   4.8659891E+05   -1.8508379E+00
   1.5349458E-04   4.8246752E+05   -1.8503552E+00
   1.5420343E-04   4.7837228E+05   -1.8498716E+00
   1.5491556E-04   4.7431286E+05   -1.8493871E+00
   1.5563098E-04   4.7028893E+05   -1.8489017E+00
   1.5634970E-04   4.6630019E+05   -1.8484155E+00
   1.5707174E-04   4.6234631E+05   -1.8479283E+00
   1.5779711E-04   4.5842699E+05   -1.8474403E+00
   1.5852584E-04   4.5454192E+05   -1.8469514E+00
   1.5925792E-04   4.5069079E+05   -1.8464616E+00
   1.5999339E-04   4.4687329E+05   -1.8459709E+00
   1.6073226E-04   4.4308914E+05   -1.8454794E+00
   1.6147454E-04   4.3933802E+05   -1.8449870E+00
   1.6222024E-04   4.3561965E+05   -1.8444938E+00
   1.6296939E-04   4.3193374E+05   -1.8439996E+00
   1.6372200E-04   4.2827998E+05   -1.8435047E+00
   1.6447809E-04   4.2465811E+05   -1.8430088E+00
   1.6523767E-04   4.2106782E+05   -1.8425122E+00
   1.6600075E-04   4.1750885E+05   -1.8420146E+00
   1.6676736E-04   4.1398091E+05   -1.8415163E+00
   1.6753751E-04   4.1048372E+05   -1.8410171E+00
   1.6831122E-04   4.0701701E+05   -1.8405170E+00
   1.6908849E-04   4.0358051E+05   -1.8400161E+00
   1.6986936E-04   4.0017395E+05   -1.8395144E+00
   1.7065384E-04   3.9679706E+05   -1.8390119E+00
   1.7144193E-04   3.9344958E+05   -1.8385085E+00
   1.7223367E-04   3.9013125E+05   -1.8380043E+00
   1.7302906E-04   3.8684180E+05   -1.8374993E+00
   1.7382813E-04   3.8358098E+05   -1.8369935E+00
   1.7463089E-04   3.8034853E+05   -1.8364868E+00
   1.7543735E-04   3.7714421E+05   -1.8359794E+00
   1.7624754E-04   3.7396775E+05   -1.8354711E+00
   1.7706147E-04   3.7081892E+05   -1.8349621E+00
   1.7787916E-04   3.6769746E+05   -1.8344522E+00
   1.7870062E-04   3.6460314E+05   -1.8339416E+00
   1.7952588E-04   3.6153571E+05   -1.8334301E+00
   1.8035495E-04   3.5849493E+05   -1.8329179E+00
   1.8118785E-04   3.5548056E+05   -1.8324049E+00
   1.8202459E-04   3.5249238E+05   -1.8318911E+00
   1.8286520E-04   3.4953014E+05   -1.8313765E+00
   1.8370969E-04   3.4659362E+05   -1.8308612E+00
   1.8455808E-04   3.4368258E+05   -1.8303451E+00
   1.8541039E-04   3.4079681E+05   -1.8298282E+00
   1.8626663E-04   3.3793607E+05   -1.8293106E+00
   1.8712683E-04   3.3510015E+05   -1.8287922E+00
   1.8799100E-04   3.3228882E+05   -1.8282731E+00
   1.8885917E-04   3.2950186E+05   -1.8277532E+00
   1.8973134E-04   3.2673906E+05   -1.8272325E+00
   1.9060754E-04   3.2400020E+05   -1.8267112E+00
   1.9148778E-04   3.2128508E+05   -1.8261890E+00
   1.9237209E-04   3.1859347E+05   -1.8256662E+00
   1.9326049E-04   3.1592518E+05   -1.8251426E+00
   1.9415299E-04   3.1327998E+05   -1.8246183E+00
   1.9504960E-04   3.1065769E+05   -1.8240933E+00
   1.9595036E-04   3.0805810E+05   -1.8235675E+00
   1.9685528E-04   3.0548099E+05   -1.8230410E+00
   1.9776438E-04   3.0292619E+05   -1.8225139E+00
   1.9867768E-04   3.0039347E+05   -1.8219860E+00
   1.9959519E-04   2.9788266E+05   -1.8214574E+00
   2.0051694E-04   2.9539356E+05   -1.8209281E+00
   2.0144295E-04   2.9292597E+05   -1.8203982E+00
   2.0237324E-04   2.9047970E+05   -1.8198675E+00
   2.0330782E-04   2.8805456E+05   -1.8193362E+00
   2.0424671E-04   2.8565038E+05   -1.8188042E+00
   2.0518995E-04   2.8326695E+05   -1.8182715E+00
   2.0613754E-04   2.8090410E+05   -1.8177381E+00
   2.0708950E-04   2.7856164E+05   -1.8172041E+00
   2.0804586E-04   2.7623940E+05   -1.8166694E+00
   2.0900664E-04   2.7393719E+05   -1.8161340E+00
   2.0997185E-04   2.7165484E+05   -1.8155980E+00
   2.1094152E-04   2.6939218E+05   -1.8150614E+00
   2.1191567E-04   2.6714902E+05   -1.8145241E+00
   2.1289432E-04   2.6492519E+05   -1.8139861E+00
   2.1387749E-04   2.6272053E+05   -1.8134475E+00
   2.1486520E-04   2.6053486E+05   -1.8129083E+00
   2.1585747E-04   2.5836801E+05   -1.8123685E+00
   2.1685432E-04   2.5621983E+05   -1.8118281E+00
   2.1785578E-04   2.5409014E+05   -1.8112870E+00
   2.1886186E-04   2.5197877E+05   -1.8107453E+00
   2.1987259E-04   2.4988558E+05   -1.8102030E+00
   2.2088798E-04   2.4781040E+05   -1.8096601E+00
   2.2190807E-04   2.4575306E+05   -1.8091166E+00
   2.2293286E-04   2.4371342E+05   -1.8085726E+00
   2.2396239E-04   2.4169131E+05   -1.8080279E+00
   2.2499667E-04   2.3968658E+05   -1.8074826E+00
   2.2603573E-04   2.3769907E+05   -1.8069368E+00
   2.2707958E-04   2.3572864E+05   -1.8063904E+00
   2.2812826E-04   2.3377513E+05   -1.8058434E+00
   2.2918178E-04   2.3183840E+05   -1.8052959E+00
   2.3024017E-04   2.2991829E+05   -1.8047478E+00
   2.3130344E-04   2.2801465E+05   -1.8041992E+00
   2.3237162E-04   2.2612736E+05   -1.8036500E+00
   2.3344474E-04   2.2425625E+05   -1.8031002E+00
   2.3452281E-04   2.2240119E+05   -1.8025499E+00
   2.3560586E-04   2.2056203E+05   -1.8019991E+00
   2.3669392E-04   2.1873864E+05   -1.8014478E+00
   2.3778699E-04   2.1693087E+05   -1.8008959E+00
   2.3888512E-04   2.1513859E+05   -1.8003435E+00
   2.3998831E-04   2.1336166E+05   -1.7997906E+00
   2.4109661E-04   2.1159994E+05   -1.7992372E+00
   2.4221001E-04   2.0985331E+05   -1.7986833E+00
   2.4332857E-04   2.0812163E+05   -1.7981289E+00
   2.4445228E-04   2.0640476E+05   -1.7975740E+00
   2.4558119E-04   2.0470258E+05   -1.7970186E+00
   2.4671531E-04   2.0301496E+05   -1.7964628E+00
   2.4785467E-04   2.0134177E+05   -1.7959064E+00
   2.4899928E-04   1.9968288E+05   -1.7953496E+00
   2.5014919E-04   1.9803816E+05   -1.7947923E+00
   2.5130440E-04   1.9640750E+05   -1.7942346E+00
   2.5246495E-04   1.9479076E+05   -1.7936764E+00
   2.5363086E-04   1.9318783E+05   -1.7931178E+00
   2.5480216E-04   1.9159859E+05   -1.7925587E+00
   2.5597886E-04   1.9002290E+05   -1.7919991E+00
   2.5716100E-04   1.8846066E+05   -1.7914392E+00
   2.5834859E-04   1.8691175E+05   -1.7908788E+00
   2.5954168E-04   1.8537605E+05   -1.7903180E+00
   2.6074027E-04   1.8385344E+05   -1.7897567E+00
   2.6194439E-04   1.8234380E+05   -1.7891951E+00
   2.6315408E-04   1.8084704E+05   -1.7886330E+00
   2.6436935E-04   1.7936302E+05   -1.7880706E+00
   2.6559024E-04   1.7789164E+05   -1.7875077E+00
   2.6681676E-04   1.7643279E+05   -1.7869445E+00
   2.6804895E-04   1.7498635E+05   -1.7863809E+00
   2.6928683E-04   1.7355223E+05   -1.7858169E+00
   2.7053042E-04   1.7213031E+05   -1.7852525E+00
   2.7177976E-04   1.7072048E+05   -1.7846878E+00
   2.7303487E-04   1.6932264E+05   -1.7841227E+00
   2.7429577E-04   1.6793668E+05   -1.7835572E+00
   2.7556250E-04   1.6656250E+05   -1.7829914E+00
   2.7683507E-04   1.6519999E+05   -1.7824252E+00
   2.7811353E-04   1.6384906E+05   -1.7818587E+00
   2.7939788E-04   1.6250960E+05   -1.7812919E+00
   2.8068817E-04   1.6118151E+05   -1.7807248E+00
   2.8198442E-04   1.5986469E+05   -1.7801573E+00
   2.8328665E-04   1.5855905E+05   -1.7795895E+00
   2.8459490E-04   1.5726448E+05   -1.7790214E+00
   2.8590919E-04   1.5598089E+05   -1.7784530E+00
   2.8722955E-04   1.5470818E+05   -1.7778843E+00
   2.8855600E-04   1.5344625E+05   -1.7773153E+00
   2.8988859E-04   1.5219502E+05   -1.7767460E+00
   2.9122732E-04   1.5095439E+05   -1.7761764E+00
   2.9257224E-04   1.4972427E+05   -1.7756066E+00
   2.9392337E-04   1.4850455E+05   -1.7750365E+00
   2.9528074E-04   1.4729517E+05   -1.7744661E+00
   2.9664438E-04   1.4609601E+05   -1.7738955E+00
   2.9801431E-04   1.4490700E+05   -1.7733246E+00
   2.9939057E-04   1.4372804E+05   -1.7727535E+00
   3.0077319E-04   1.4255905E+05   -1.7721821E+00
   3.0216219E-04   1.4139994E+05   -1.7716105E+00
   3.0355761E-04   1.4025063E+05   -1.7710387E+00
   3.0495947E-04   1.3911102E+05   -1.7704666E+00
   3.0636780E-04   1.3798104E+05   -1.7698943E+00
   3.0778264E-04   1.3686059E+05   -1.7693219E+00
   3.0920401E-04   1.3574961E+05   -1.7687492E+00
   3.1063195E-04   1.3464799E+05   -1.7681763E+00
   3.1206648E-04   1.3355567E+05   -1.7676032E+00
   3.1350764E-04   1.3247256E+05   -1.7670299E+00
   3.1495545E-04   1.3139858E+05   -1.7664565E+00
   3.1640994E-04   1.3033366E+05   -1.7658829E+00
   3.1787116E-04   1.2927770E+05   -1.7653091E+00
   3.1933912E-04   1.2823064E+05   -1.7647351E+00
   3.2081386E-04   1.2719240E+05   -1.7641610E+00
   3.2229541E-04   1.2616289E+05   -1.7635868E+00
   3.2378381E-04   1.2514205E+05   -1.7630124E+00
   3.2527908E-04   1.2412980E+05   -1.7624378E+00
   3.2678125E-04   1.2312606E+05   -1.7618632E+00
   3.2829036E-04   1.2213077E+05   -1.7612884E+00
   3.2980644E-04   1.2114383E+05   -1.7607134E+00
   3.3132952E-04   1.2016520E+05   -1.7601384E+00
   3.3285963E-04   1.1919478E+05   -1.7595633E+00
   3.3439681E-04   1.1823251E+05   -1.7589880E+00
   3.3594109E-04   1.1727833E+05   -1.7584127E+00
   3.3749250E-04   1.1633215E+05   -1.7578372E+00
   3.3905108E-04   1.1539391E+05   -1.7572617E+00
   3.4061685E-04   1.1446355E+05   -1.7566861E+00
   3.4218986E-04   1.1354098E+05   -1.7561105E+00
   3.4377013E-04   1.1262615E+05   -1.7555347E+00
   3.4535769E-04   1.1171899E+05   -1.7549590E+00
   3.4695259E-04   1.1081943E+05   -1.7543831E+00
   3.4855485E-04   1.0992740E+05   -1.7538072E+00
   3.5016452E-04   1.0904284E+05   -1.7532313E+00
   3.5178161E-04   1.0816569E+05   -1.7526553E+00
   3.5340618E-04   1.0729587E+05   -1.7520793E+00
   3.5503824E-04   1.0643334E+05   -1.7515033E+00
   3.5667785E-04   1.0557802E+05   -1.7509273E+00
   3.5832502E-04   1.0472985E+05   -1.7503512E+00
   3.5997981E-04   1.0388877E+05   -1.7497752E+00
   3.6164223E-04   1.0305472E+05   -1.7491991E+00
   3.6331233E-04   1.0222763E+05   -1.7486231E+00
   3.6499015E-04   1.0140746E+05   -1.7480471E+00
   3.6667571E-04   1.0059413E+05   -1.7474711E+00
   3.6836906E-04   9.9787583E+04   -1.7468951E+00
   3.7007022E-04   9.8987771E+04   -1.7463191E+00
   3.7177925E-04   9.8194629E+04   -1.7457432E+00
   3.7349616E-04   9.7408101E+04   -1.7451674E+00
   3.7522101E-04   9.6628129E+04   -1.7445915E+00
   3.7695382E-04   9.5854657E+04   -1.7440158E+00
   3.7869463E-04   9.5087629E+04   -1.7434401E+00
   3.8044348E-04   9.4326989E+04   -1.7428645E+00
   3.8220041E-04   9.3572681E+04   -1.7422889E+00
   3.8396545E-04   9.2824652E+04   -1.7417134E+00
   3.8573864E-04   9.2082847E+04   -1.7411381E+00
   3.8752002E-04   9.1347211E+04   -1.7405628E+00
   3.8930963E-04   9.0617693E+04   -1.7399876E+00
   3.9110750E-04   8.9894239E+04   -1.7394125E+00
   3.9291368E-04   8.9176797E+04   -1.7388375E+00
   3.9472820E-04   8.8465316E+04   -1.7382626E+00
   3.9655109E-04   8.7759743E+04   -1.7376879E+00
   3.9838241E-04   8.7060028E+04   -1.7371133E+00
   4.0022218E-04   8.6366120E+04   -1.7365388E+00
   4.0207045E-04   8.5677971E+04   -1.7359645E+00
   4.0392725E-04   8.4995529E+04   -1.7353903E+00
   4.0579263E-04   8.4318746E+04   -1.7348163E+00
   4.0766662E-04   8.3647573E+04   -1.7342424E+00
   4.0954927E-04   8.2981962E+04   -1.7336687E+00
   4.1144061E-04   8.2321865E+04   -1.7330952E+00
   4.1334068E-04   8.1667235E+04   -1.7325219E+00
   4.1524953E-04   8.1018024E+04   -1.7319487E+00
   4.1716720E-04   8.0374187E+04   -1.7313757E+00
   4.1909372E-04   7.9735676E+04   -1.7308029E+00
   4.2102914E-04   7.9102446E+04   -1.7302303E+00
   4.2297350E-04   7.8474453E+04   -1.7296580E+00
   4.2492683E-04   7.7851650E+04   -1.7290858E+00
   4.2688919E-04   7.7233994E+04   -1.7285139E+00
   4.2886061E-04   7.6621440E+04   -1.7279421E+00
   4.3084113E-04   7.6013944E+04   -1.7273707E+00
   4.3283080E-04   7.5411464E+04   -1.7267994E+00
   4.3482966E-04   7.4813955E+04   -1.7262284E+00
   4.3683775E-04   7.4221376E+04   -1.7256577E+00
   4.3885511E-04   7.3633684E+04   -1.7250872E+00
   4.4088179E-04   7.3050838E+04   -1.7245169E+00
   4.4291783E-04   7.2472795E+04   -1.7239470E+00
   4.4496327E-04   7.1899515E+04   -1.7233773E+00
   4.4701816E-04   7.1330957E+04   -1.7228078E+00
   4.4908253E-04   7.0767081E+04   -1.7222387E+00
   4.5115644E-04   7.0207846E+04   -1.7216698E+00
   4.5323993E-04   6.9653214E+04   -1.7211013E+00
   4.5533304E-04   6.9103143E+04   -1.7205330E+00
   4.5743582E-04   6.8557597E+04   -1.7199651E+00
   4.5954830E-04   6.8016535E+04   -1.7193975E+00
   4.6167054E-04   6.7479919E+04   -1.7188302E+00
   4.6380259E-04   6.6947712E+04   -1.7182632E+00
   4.6594448E-04   6.6419876E+04   -1.7176965E+00
   4.6809626E-04   6.5896374E+04   -1.7171302E+00
   4.7025797E-04   6.5377168E+04   -1.7165642E+00
   4.7242967E-04   6.4862223E+04   -1.7159986E+00
   4.7461140E-04   6.4351500E+04   -1.7154333E+00
   4.7680321E-04   6.3844966E+04   -1.7148684E+00
   4.7900514E-04   6.3342583E+04   -1.7143039E+00
   4.8121723E-04   6.2844317E+04   -1.7137397E+00
   4.8343954E-04   6.2350133E+04   -1.7131759E+00
   4.8567212E-04   6.1859995E+04   -1.7126125E+00
   4.8791500E-04   6.1373870E+04   -1.7120494E+00
   4.9016825E-04   6.0891722E+04   -1.7114868E+00
   4.9243189E-04   6.0413519E+04   -1.7109245E+00
   4.9470600E-04   5.9939227E+04   -1.7103627E+00
   4.9699060E-04   5.9468812E+04   -1.7098012E+00
   4.9928575E-04   5.9002242E+04   -1.7092402E+00
   5.0159151E-04   5.8539483E+04   -1.7086796E+00
   5.0390791E-04   5.8080503E+04   -1.7081194E+00
   5.0623501E-04   5.7625271E+04   -1.7075597E+00
   5.0857286E-04   5.7173755E+04   -1.7070004E+00
   5.1092150E-04   5.6725922E+04   -1.7064415E+00
   5.1328099E-04   5.6281743E+04   -1.7058831E+00
   5.1565137E-04   5.5841184E+04   -1.7053251E+00
   5.1803270E-04   5.5404217E+04   -1.7047676E+00
   5.2042503E-04   5.4970810E+04   -1.7042106E+00
   5.2282841E-04   5.4540934E+04   -1.7036540E+00
   5.2524289E-04   5.4114558E+04   -1.7030979E+00
   5.2766851E-04   5.3691653E+04   -1.7025423E+00
   5.3010534E-04   5.3272188E+04   -1.7019872E+00
   5.3255342E-04   5.2856137E+04   -1.7014325E+00
   5.3501281E-04   5.2443468E+04   -1.7008784E+00
   5.3748356E-04   5.2034154E+04   -1.7003247E+00
   5.3996571E-04   5.1628166E+04   -1.6997716E+00
   5.4245933E-04   5.1225477E+04   -1.6992189E+00
   5.4496446E-04   5.0826058E+04   -1.6986668E+00
   5.4748117E-04   5.0429881E+04   -1.6981152E+00
   5.5000949E-04   5.0036920E+04   -1.6975641E+00
   5.5254949E-04   4.9647146E+04   -1.6970136E+00
   5.5510123E-04   4.9260534E+04   -1.6964636E+00
   5.5766474E-04   4.8877056E+04   -1.6959141E+00
   5.6024010E-04   4.8496687E+04   -1.6953652E+00
   5.6282734E-04   4.8119398E+04   -1.6948168E+00
   5.6542654E-04   4.7745166E+04   -1.6942690E+00
   5.6803774E-04   4.7373964E+04   -1.6937217E+00
   5.7066099E-04   4.7005766E+04   -1.6931751E+00
   5.7329637E-04   4.6640547E+04   -1.6926289E+00
   5.7594391E-04   4.6278282E+04   -1.6920834E+00
   5.7860368E-04   4.5918946E+04   -1.6915384E+00
   5.8127573E-04   4.5562515E+04   -1.6909941E+00
   5.8396012E-04   4.5208964E+04   -1.6904503E+00
   5.8665691E-04   4.4858269E+04   -1.6899071E+00
   5.8936616E-04   4.4510405E+04   -1.6893645E+00
   5.9208791E-04   4.4165349E+04   -1.6888225E+00
   5.9482223E-04   4.3823078E+04   -1.6882811E+00
   5.9756919E-04   4.3483567E+04   -1.6877404E+00
   6.0032882E-04   4.3146794E+04   -1.6872002E+00
   6.0310120E-04   4.2812736E+04   -1.6866607E+00
   6.0588639E-04   4.2481370E+04   -1.6861218E+00
   6.0868443E-04   4.2152673E+04   -1.6855836E+00
   6.1149540E-04   4.1826624E+04   -1.6850459E+00
   6.1431935E-04   4.1503199E+04   -1.6845090E+00
   6.1715634E-04   4.1182376E+04   -1.6839726E+00
   6.2000644E-04   4.0864135E+04   -1.6834369E+00
   6.2286969E-04   4.0548453E+04   -1.6829019E+00
