#        a       HoverH0(a)       dlogHdloga_of_a(a)
   1.0000000E-04   1.1461436E+06   -1.8860528E+00
   1.0046181E-04   1.1362279E+06   -1.8856469E+00
   1.0092575E-04   1.1264001E+06   -1.8852400E+00
   1.0139184E-04   1.1166593E+06   -1.8848321E+00
   1.0186008E-04   1.1070050E+06   -1.8844231E+00
   1.0233048E-04   1.0974361E+06   -1.8840132E+00
   1.0280305E-04   1.0879520E+06   -1.8836022E+00
   1.0327781E-04   1.0785519E+06   -1.8831902E+00
   1.0375475E-04   1.0692351E+06   -1.8827773E+00
   1.0423390E-04   1.0600008E+06   -1.8823633E+00
   1.0471527E-04   1.0508482E+06   -1.8819483E+00
   1.0519885E-04   1.0417767E+06   -1.8815322E+00
   1.0568467E-04   1.0327854E+06   -1.8811152E+00
   1.0617274E-04   1.0238737E+06   -1.8806972E+00
   1.0666305E-04   1.0150409E+06   -1.8802781E+00
   1.0715563E-04   1.0062862E+06   -1.8798581E+00
   1.0765049E-04   9.9760900E+05   -1.8794370E+00
   1.0814763E-04   9.8900850E+05   -1.8790149E+00
   1.0864707E-04   9.8048406E+05   -1.8785919E+00
   1.0914881E-04   9.7203499E+05   -1.8781678E+00
   1.0965287E-04   9.6366062E+05   -1.8777427E+00
   1.1015926E-04   9.5536026E+05   -1.8773166E+00
   1.1066799E-04   9.4713326E+05   -1.8768896E+00
   1.1117906E-04   9.3897896E+05   -1.8764615E+00
   1.1169250E-04   9.3089669E+05   -1.8760324E+00
   1.1220831E-04   9.2288582E+05   -1.8756023E+00
   1.1272650E-04   9.1494571E+05   -1.8751712E+00
   1.1324708E-04   9.0707571E+05   -1.8747392E+00
   1.1377007E-04   8.9927520E+05   -1.8743061E+00
   1.1429547E-04   8.9154356E+05   -1.8738720E+00
   1.1482330E-04   8.8388015E+05   -1.8734370E+00
   1.1535356E-04   8.7628438E+05   -1.8730009E+00
   1.1588628E-04   8.6875563E+05   -1.8725639E+00
   1.1642145E-04   8.6129330E+05   -1.8721259E+00
   1.1695910E-04   8.5389679E+05   -1.8716869E+00
   1.1749923E-04   8.4656552E+05   -1.8712469E+00
   1.1804185E-04   8.3929889E+05   -1.8708059E+00
   1.1858698E-04   8.3209634E+05   -1.8703640E+00
   1.1913463E-04   8.2495727E+05   -1.8699210E+00
   1.1968481E-04   8.1788112E+05   -1.8694771E+00
   1.2023752E-04   8.1086733E+05   -1.8690322E+00
   1.2079279E-04   8.0391534E+05   -1.8685863E+00
   1.2135063E-04   7.9702459E+05   -1.8681395E+00
   1.2191104E-04   7.9019453E+05   -1.8676916E+00
   1.2247403E-04   7.8342463E+05   -1.8672428E+00
   1.2303963E-04   7.7671433E+05   -1.8667931E+00
   1.2360784E-04   7.7006310E+05   -1.8663423E+00
   1.2417868E-04   7.6347041E+05   -1.8658906E+00
   1.2475215E-04   7.5693575E+05   -1.8654379E+00
   1.2532826E-04   7.5045858E+05   -1.8649843E+00
   1.2590704E-04   7.4403840E+05   -1.8645297E+00
   1.2648850E-04   7.3767468E+05   -1.8640741E+00
   1.2707263E-04   7.3136693E+05   -1.8636176E+00
   1.2765947E-04   7.2511465E+05   -1.8631601E+00
   1.2824901E-04   7.1891733E+05   -1.8627017E+00
   1.2884128E-04   7.1277449E+05   -1.8622423E+00
   1.2943628E-04   7.0668563E+05   -1.8617820E+00
   1.3003403E-04   7.0065027E+05   -1.8613207E+00
   1.3063454E-04   6.9466794E+05   -1.8608585E+00
   1.3123783E-04   6.8873815E+05   -1.8603953E+00
   1.3184390E-04   6.8286044E+05   -1.8599311E+00
   1.3245277E-04   6.7703433E+05   -1.8594661E+00
   1.3306445E-04   6.7125938E+05   -1.8590001E+00
   1.3367895E-04   6.6553511E+05   -1.8585331E+00
   1.3429630E-04   6.5986108E+05   -1.8580653E+00
   1.3491649E-04   6.5423684E+05   -1.8575964E+00
   1.3553955E-04   6.4866193E+05   -1.8571267E+00
   1.3616548E-04   6.4313593E+05   -1.8566560E+00
   1.3679431E-04   6.3765838E+05   -1.8561844E+00
   1.3742604E-04   6.3222887E+05   -1.8557119E+00
   1.3806069E-04   6.2684695E+05   -1.8552385E+00
   1.3869827E-04   6.2151220E+05   -1.8547641E+00
   1.3933879E-04   6.1622420E+05   -1.8542888E+00
   1.3998227E-04   6.1098253E+05   -1.8538126E+00
   1.4062872E-04   6.0578678E+05   -1.8533355E+00
   1.4127816E-04   6.0063653E+05   -1.8528575E+00
   1.4193060E-04   5.9553138E+05   -1.8523786E+00
   1.4258605E-04   5.9047093E+05   -1.8518988E+00
   1.4324453E-04   5.8545477E+05   -1.8514180E+00
   1.4390605E-04   5.8048251E+05   -1.8509364E+00
   1.4457062E-04   5.7555377E+05   -1.8504539E+00
   1.4523826E-04   5.7066814E+05   -1.8499705E+00
   1.4590899E-04   5.6582524E+05   -1.8494862E+00
   1.4658281E-04   5.6102470E+05   -1.8490010E+00
   1.4725974E-04   5.5626613E+05   -1.8485149E+00
   1.4793981E-04   5.5154916E+05   -1.8480279E+00
   1.4862301E-04   5.4687341E+05   -1.8475401E+00
   1.4930936E-04   5.4223852E+05   -1.8470513E+00
   1.4999889E-04   5.3764413E+05   -1.8465617E+00
   1.5069160E-04   5.3308987E+05   -1.8460712E+00
   1.5138751E-04   5.2857538E+05   -1.8455799E+00
   1.5208663E-04   5.2410031E+05   -1.8450877E+00
   1.5278899E-04   5.1966430E+05   -1.8445946E+00
   1.5349458E-04   5.1526702E+05   -1.8441007E+00
   1.5420343E-04   5.1090811E+05   -1.8436059E+00
   1.5491556E-04   5.0658723E+05   -1.8431102E+00
   1.5563098E-04   5.0230403E+05   -1.8426137E+00
   1.5634970E-04   4.9805820E+05   -1.8421164E+00
   1.5707174E-04   4.9384938E+05   -1.8416182E+00
   1.5779711E-04   4.8967726E+05   -1.8411192E+00
   1.5852584E-04   4.8554150E+05   -1.8406193E+00
   1.5925792E-04   4.8144178E+05   -1.8401186E+00
   1.5999339E-04   4.7737778E+05   -1.8396170E+00
   1.6073226E-04   4.7334918E+05   -1.8391147E+00
   1.6147454E-04   4.6935566E+05   -1.8386115E+00
   1.6222024E-04   4.6539692E+05   -1.8381074E+00
   1.6296939E-04   4.6147264E+05   -1.8376026E+00
   1.6372200E-04   4.5758251E+05   -1.8370969E+00
   1.6447809E-04   4.5372624E+05   -1.8365905E+00
   1.6523767E-04   4.4990351E+05   -1.8360832E+00
   1.6600075E-04   4.4611403E+05   -1.8355751E+00
   1.6676736E-04   4.4235751E+05   -1.8350662E+00
   1.6753751E-04   4.3863365E+05   -1.8345565E+00
   1.6831122E-04   4.3494217E+05   -1.8340461E+00
   1.6908849E-04   4.3128276E+05   -1.8335348E+00
   1.6986936E-04   4.2765515E+05   -1.8330227E+00
   1.7065384E-04   4.2405905E+05   -1.8325099E+00
   1.7144193E-04   4.2049419E+05   -1.8319963E+00
   1.7223367E-04   4.1696028E+05   -1.8314819E+00
   1.7302906E-04   4.1345705E+05   -1.8309667E+00
   1.7382813E-04   4.0998423E+05   -1.8304507E+00
   1.7463089E-04   4.0654155E+05   -1.8299340E+00
   1.7543735E-04   4.0312874E+05   -1.8294166E+00
   1.7624754E-04   3.9974553E+05   -1.8288983E+00
   1.7706147E-04   3.9639166E+05   -1.8283793E+00
   1.7787916E-04   3.9306687E+05   -1.8278596E+00
   1.7870062E-04   3.8977090E+05   -1.8273391E+00
   1.7952588E-04   3.8650350E+05   -1.8268179E+00
   1.8035495E-04   3.8326440E+05   -1.8262959E+00
   1.8118785E-04   3.8005337E+05   -1.8257732E+00
   1.8202459E-04   3.7687015E+05   -1.8252498E+00
   1.8286520E-04   3.7371449E+05   -1.8247256E+00
   1.8370969E-04   3.7058615E+05   -1.8242008E+00
   1.8455808E-04   3.6748489E+05   -1.8236752E+00
   1.8541039E-04   3.6441046E+05   -1.8231489E+00
   1.8626663E-04   3.6136263E+05   -1.8226218E+00
   1.8712683E-04   3.5834117E+05   -1.8220941E+00
   1.8799100E-04   3.5534583E+05   -1.8215657E+00
   1.8885917E-04   3.5237639E+05   -1.8210366E+00
   1.8973134E-04   3.4943261E+05   -1.8205067E+00
   1.9060754E-04   3.4651427E+05   -1.8199762E+00
   1.9148778E-04   3.4362115E+05   -1.8194450E+00
   1.9237209E-04   3.4075302E+05   -1.8189131E+00
   1.9326049E-04   3.3790965E+05   -1.8183806E+00
   1.9415299E-04   3.3509083E+05   -1.8178474E+00
   1.9504960E-04   3.3229635E+05   -1.8173135E+00
   1.9595036E-04   3.2952598E+05   -1.8167789E+00
   1.9685528E-04   3.2677951E+05   -1.8162437E+00
   1.9776438E-04   3.2405673E+05   -1.8157078E+00
   1.9867768E-04   3.2135744E+05   -1.8151713E+00
   1.9959519E-04   3.1868141E+05   -1.8146342E+00
   2.0051694E-04   3.1602845E+05   -1.8140964E+00
   2.0144295E-04   3.1339836E+05   -1.8135579E+00
   2.0237324E-04   3.1079092E+05   -1.8130189E+00
   2.0330782E-04   3.0820595E+05   -1.8124792E+00
   2.0424671E-04   3.0564323E+05   -1.8119388E+00
   2.0518995E-04   3.0310258E+05   -1.8113979E+00
   2.0613754E-04   3.0058380E+05   -1.8108564E+00
   2.0708950E-04   2.9808669E+05   -1.8103142E+00
   2.0804586E-04   2.9561107E+05   -1.8097714E+00
   2.0900664E-04   2.9315674E+05   -1.8092281E+00
   2.0997185E-04   2.9072351E+05   -1.8086841E+00
   2.1094152E-04   2.8831121E+05   -1.8081396E+00
   2.1191567E-04   2.8591964E+05   -1.8075945E+00
   2.1289432E-04   2.8354862E+05   -1.8070487E+00
   2.1387749E-04   2.8119796E+05   -1.8065025E+00
   2.1486520E-04   2.7886750E+05   -1.8059556E+00
   2.1585747E-04   2.7655705E+05   -1.8054082E+00
   2.1685432E-04   2.7426643E+05   -1.8048602E+00
   2.1785578E-04   2.7199548E+05   -1.8043117E+00
   2.1886186E-04   2.6974401E+05   -1.8037626E+00
   2.1987259E-04   2.6751185E+05   -1.8032130E+00
   2.2088798E-04   2.6529884E+05   -1.8026628E+00
   2.2190807E-04   2.6310480E+05   -1.8021121E+00
   2.2293286E-04   2.6092957E+05   -1.8015609E+00
   2.2396239E-04   2.5877297E+05   -1.8010092E+00
   2.2499667E-04   2.5663486E+05   -1.8004569E+00
   2.2603573E-04   2.5451506E+05   -1.7999041E+00
   2.2707958E-04   2.5241342E+05   -1.7993508E+00
   2.2812826E-04   2.5032976E+05   -1.7987970E+00
   2.2918178E-04   2.4826394E+05   -1.7982427E+00
   2.3024017E-04   2.4621580E+05   -1.7976879E+00
   2.3130344E-04   2.4418518E+05   -1.7971327E+00
   2.3237162E-04   2.4217192E+05   -1.7965769E+00
   2.3344474E-04   2.4017588E+05   -1.7960207E+00
   2.3452281E-04   2.3819690E+05   -1.7954639E+00
   2.3560586E-04   2.3623484E+05   -1.7949068E+00
   2.3669392E-04   2.3428954E+05   -1.7943491E+00
   2.3778699E-04   2.3236085E+05   -1.7937910E+00
   2.3888512E-04   2.3044864E+05   -1.7932325E+00
   2.3998831E-04   2.2855275E+05   -1.7926735E+00
   2.4109661E-04   2.2667304E+05   -1.7921141E+00
   2.4221001E-04   2.2480937E+05   -1.7915542E+00
   2.4332857E-04   2.2296159E+05   -1.7909939E+00
   2.4445228E-04   2.2112958E+05   -1.7904332E+00
   2.4558119E-04   2.1931319E+05   -1.7898720E+00
   2.4671531E-04   2.1751228E+05   -1.7893105E+00
   2.4785467E-04   2.1572671E+05   -1.7887485E+00
   2.4899928E-04   2.1395636E+05   -1.7881861E+00
   2.5014919E-04   2.1220109E+05   -1.7876234E+00
   2.5130440E-04   2.1046076E+05   -1.7870602E+00
   2.5246495E-04   2.0873524E+05   -1.7864967E+00
   2.5363086E-04   2.0702442E+05   -1.7859328E+00
   2.5480216E-04   2.0532814E+05   -1.7853685E+00
   2.5597886E-04   2.0364630E+05   -1.7848038E+00
   2.5716100E-04   2.0197876E+05   -1.7842388E+00
   2.5834859E-04   2.0032539E+05   -1.7836735E+00
   2.5954168E-04   1.9868608E+05   -1.7831077E+00
   2.6074027E-04   1.9706069E+05   -1.7825416E+00
   2.6194439E-04   1.9544911E+05   -1.7819752E+00
   2.6315408E-04   1.9385122E+05   -1.7814085E+00
   2.6436935E-04   1.9226689E+05   -1.7808414E+00
   2.6559024E-04   1.9069601E+05   -1.7802740E+00
   2.6681676E-04   1.8913846E+05   -1.7797063E+00
   2.6804895E-04   1.8759412E+05   -1.7791383E+00
   2.6928683E-04   1.8606288E+05   -1.7785699E+00
   2.7053042E-04   1.8454462E+05   -1.7780013E+00
   2.7177976E-04   1.8303922E+05   -1.7774324E+00
   2.7303487E-04   1.8154659E+05   -1.7768632E+00
   2.7429577E-04   1.8006660E+05   -1.7762937E+00
   2.7556250E-04   1.7859914E+05   -1.7757239E+00
   2.7683507E-04   1.7714411E+05   -1.7751538E+00
   2.7811353E-04   1.7570139E+05   -1.7745835E+00
   2.7939788E-04   1.7427088E+05   -1.7740129E+00
   2.8068817E-04   1.7285247E+05   -1.7734421E+00
   2.8198442E-04   1.7144606E+05   -1.7728711E+00
   2.8328665E-04   1.7005154E+05   -1.7722997E+00
   2.8459490E-04   1.6866880E+05   -1.7717282E+00
   2.8590919E-04   1.6729775E+05   -1.7711564E+00
   2.8722955E-04   1.6593828E+05   -1.7705844E+00
   2.8855600E-04   1.6459030E+05   -1.7700122E+00
   2.8988859E-04   1.6325369E+05   -1.7694398E+00
   2.9122732E-04   1.6192836E+05   -1.7688671E+00
   2.9257224E-04   1.6061422E+05   -1.7682943E+00
   2.9392337E-04   1.5931116E+05   -1.7677213E+00
   2.9528074E-04   1.5801910E+05   -1.7671481E+00
   2.9664438E-04   1.5673792E+05   -1.7665747E+00
   2.9801431E-04   1.5546754E+05   -1.7660011E+00
   2.9939057E-04   1.5420787E+05   -1.7654273E+00
   3.0077319E-04   1.5295881E+05   -1.7648534E+00
   3.0216219E-04   1.5172027E+05   -1.7642794E+00
   3.0355761E-04   1.5049215E+05   -1.7637052E+00
   3.0495947E-04   1.4927437E+05   -1.7631308E+00
   3.0636780E-04   1.4806684E+05   -1.7625563E+00
   3.0778264E-04   1.4686946E+05   -1.7619817E+00
   3.0920401E-04   1.4568215E+05   -1.7614069E+00
   3.1063195E-04   1.4450482E+05   -1.7608320E+00
   3.1206648E-04   1.4333739E+05   -1.7602570E+00
   3.1350764E-04   1.4217977E+05   -1.7596819E+00
   3.1495545E-04   1.4103186E+05   -1.7591067E+00
   3.1640994E-04   1.3989360E+05   -1.7585314E+00
   3.1787116E-04   1.3876489E+05   -1.7579560E+00
   3.1933912E-04   1.3764566E+05   -1.7573805E+00
   3.2081386E-04   1.3653581E+05   -1.7568049E+00
   3.2229541E-04   1.3543527E+05   -1.7562293E+00
   3.2378381E-04   1.3434396E+05   -1.7556536E+00
   3.2527908E-04   1.3326179E+05   -1.7550778E+00
   3.2678125E-04   1.3218869E+05   -1.7545020E+00
   3.2829036E-04   1.3112459E+05   -1.7539261E+00
   3.2980644E-04   1.3006939E+05   -1.7533502E+00
   3.3132952E-04   1.2902302E+05   -1.7527743E+00
   3.3285963E-04   1.2798542E+05   -1.7521983E+00
   3.3439681E-04   1.2695649E+05   -1.7516223E+00
   3.3594109E-04   1.2593618E+05   -1.7510463E+00
   3.3749250E-04   1.2492439E+05   -1.7504702E+00
   3.3905108E-04   1.2392106E+05   -1.7498942E+00
   3.4061685E-04   1.2292611E+05   -1.7493182E+00
   3.4218986E-04   1.2193948E+05   -1.7487421E+00
   3.4377013E-04   1.2096109E+05   -1.7481661E+00
   3.4535769E-04   1.1999086E+05   -1.7475901E+00
   3.4695259E-04   1.1902874E+05   -1.7470142E+00
   3.4855485E-04   1.1807464E+05   -1.7464382E+00
   3.5016452E-04   1.1712850E+05   -1.7458623E+00
   3.5178161E-04   1.1619025E+05   -1.7452864E+00
   3.5340618E-04   1.1525982E+05   -1.7447106E+00
   3.5503824E-04   1.1433715E+05   -1.7441349E+00
   3.5667785E-04   1.1342216E+05   -1.7435592E+00
   3.5832502E-04   1.1251479E+05   -1.7429836E+00
   3.5997981E-04   1.1161498E+05   -1.7424080E+00
   3.6164223E-04   1.1072266E+05   -1.7418325E+00
   3.6331233E-04   1.0983776E+05   -1.7412571E+00
   3.6499015E-04   1.0896023E+05   -1.7406818E+00
   3.6667571E-04   1.0808999E+05   -1.7401066E+00
   3.6836906E-04   1.0722698E+05   -1.7395315E+00
   3.7007022E-04   1.0637115E+05   -1.7389566E+00
   3.7177925E-04   1.0552243E+05   -1.7383817E+00
   3.7349616E-04   1.0468076E+05   -1.7378069E+00
   3.7522101E-04   1.0384607E+05   -1.7372323E+00
   3.7695382E-04   1.0301832E+05   -1.7366578E+00
   3.7869463E-04   1.0219743E+05   -1.7360835E+00
   3.8044348E-04   1.0138335E+05   -1.7355093E+00
   3.8220041E-04   1.0057602E+05   -1.7349353E+00
   3.8396545E-04   9.9775389E+04   -1.7343614E+00
   3.8573864E-04   9.8981389E+04   -1.7337877E+00
   3.8752002E-04   9.8193968E+04   -1.7332141E+00
   3.8930963E-04   9.7413068E+04   -1.7326407E+00
   3.9110750E-04   9.6638633E+04   -1.7320675E+00
   3.9291368E-04   9.5870608E+04   -1.7314945E+00
   3.9472820E-04   9.5108939E+04   -1.7309217E+00
   3.9655109E-04   9.4353569E+04   -1.7303491E+00
   3.9838241E-04   9.3604446E+04   -1.7297767E+00
   4.0022218E-04   9.2861515E+04   -1.7292045E+00
   4.0207045E-04   9.2124723E+04   -1.7286326E+00
   4.0392725E-04   9.1394019E+04   -1.7280608E+00
   4.0579263E-04   9.0669349E+04   -1.7274893E+00
   4.0766662E-04   8.9950662E+04   -1.7269180E+00
   4.0954927E-04   8.9237906E+04   -1.7263470E+00
   4.1144061E-04   8.8531031E+04   -1.7257762E+00
   4.1334068E-04   8.7829986E+04   -1.7252057E+00
   4.1524953E-04   8.7134721E+04   -1.7246354E+00
   4.1716720E-04   8.6445187E+04   -1.7240654E+00
   4.1909372E-04   8.5761335E+04   -1.7234956E+00
   4.2102914E-04   8.5083116E+04   -1.7229262E+00
   4.2297350E-04   8.4410482E+04   -1.7223570E+00
   4.2492683E-04   8.3743385E+04   -1.7217881E+00
   4.2688919E-04   8.3081778E+04   -1.7212195E+00
   4.2886061E-04   8.2425614E+04   -1.7206512E+00
   4.3084113E-04   8.1774846E+04   -1.7200832E+00
   4.3283080E-04   8.1129428E+04   -1.7195155E+00
   4.3482966E-04   8.0489315E+04   -1.7189482E+00
   4.3683775E-04   7.9854461E+04   -1.7183812E+00
   4.3885511E-04   7.9224822E+04   -1.7178144E+00
   4.4088179E-04   7.8600352E+04   -1.7172481E+00
   4.4291783E-04   7.7981007E+04   -1.7166821E+00
   4.4496327E-04   7.7366745E+04   -1.7161164E+00
   4.4701816E-04   7.6757521E+04   -1.7155510E+00
   4.4908253E-04   7.6153293E+04   -1.7149861E+00
   4.5115644E-04   7.5554018E+04   -1.7144215E+00
   4.5323993E-04   7.4959653E+04   -1.7138572E+00
   4.5533304E-04   7.4370158E+04   -1.7132934E+00
   4.5743582E-04   7.3785491E+04   -1.7127299E+00
   4.5954830E-04   7.3205609E+04   -1.7121668E+00
   4.6167054E-04   7.2630474E+04   -1.7116041E+00
   4.6380259E-04   7.2060043E+04   -1.7110417E+00
   4.6594448E-04   7.1494278E+04   -1.7104798E+00
   4.6809626E-04   7.0933139E+04   -1.7099183E+00
   4.7025797E-04   7.0376585E+04   -1.7093573E+00
   4.7242967E-04   6.9824579E+04   -1.7087966E+00
   4.7461140E-04   6.9277082E+04   -1.7082363E+00
   4.7680321E-04   6.8734054E+04   -1.7076765E+00
   4.7900514E-04   6.8195459E+04   -1.7071172E+00
   4.8121723E-04   6.7661259E+04   -1.7065582E+00
   4.8343954E-04   6.7131417E+04   -1.7059997E+00
   4.8567212E-04   6.6605894E+04   -1.7054417E+00
   4.8791500E-04   6.6084656E+04   -1.7048841E+00
   4.9016825E-04   6.5567665E+04   -1.7043270E+00
   4.9243189E-04   6.5054885E+04   -1.7037703E+00
   4.9470600E-04   6.4546281E+04   -1.7032142E+00
   4.9699060E-04   6.4041818E+04   -1.7026585E+00
   4.9928575E-04   6.3541459E+04   -1.7021032E+00
   5.0159151E-04   6.3045172E+04   -1.7015485E+00
   5.0390791E-04   6.2552920E+04   -1.7009943E+00
   5.0623501E-04   6.2064670E+04   -1.7004405E+00
   5.0857286E-04   6.1580388E+04   -1.6998873E+00
   5.1092150E-04   6.1100040E+04   -1.6993346E+00
   5.1328099E-04   6.0623594E+04   -1.6987824E+00
   5.1565137E-04   6.0151016E+04   -1.6982307E+00
   5.1803270E-04   5.9682274E+04   -1.6976795E+00
   5.2042503E-04   5.9217335E+04   -1.6971289E+00
   5.2282841E-04   5.8756166E+04   -1.6965788E+00
   5.2524289E-04   5.8298737E+04   -1.6960292E+00
   5.2766851E-04   5.7845015E+04   -1.6954802E+00
   5.3010534E-04   5.7394970E+04   -1.6949318E+00
   5.3255342E-04   5.6948570E+04   -1.6943839E+00
   5.3501281E-04   5.6505784E+04   -1.6938365E+00
   5.3748356E-04   5.6066582E+04   -1.6932897E+00
   5.3996571E-04   5.5630934E+04   -1.6927435E+00
   5.4245933E-04   5.5198811E+04   -1.6921979E+00
   5.4496446E-04   5.4770181E+04   -1.6916528E+00
   5.4748117E-04   5.4345017E+04   -1.6911084E+00
   5.5000949E-04   5.3923288E+04   -1.6905645E+00
   5.5254949E-04   5.3504965E+04   -1.6900212E+00
   5.5510123E-04   5.3090021E+04   -1.6894785E+00
   5.5766474E-04   5.2678426E+04   -1.6889364E+00
   5.6024010E-04   5.2270153E+04   -1.6883949E+00
   5.6282734E-04   5.1865173E+04   -1.6878541E+00
   5.6542654E-04   5.1463459E+04   -1.6873138E+00
   5.6803774E-04   5.1064984E+04   -1.6867742E+00
   5.7066099E-04   5.0669720E+04   -1.6862352E+00
   5.7329637E-04   5.0277640E+04   -1.6856968E+00
   5.7594391E-04   4.9888718E+04   -1.6851591E+00
   5.7860368E-04   4.9502927E+04   -1.6846220E+00
   5.8127573E-04   4.9120240E+04   -1.6840856E+00
   5.8396012E-04   4.8740633E+04   -1.6835498E+00
   5.8665691E-04   4.8364078E+04   -1.6830146E+00
   5.8936616E-04   4.7990551E+04   -1.6824801E+00
   5.9208791E-04   4.7620026E+04   -1.6819463E+00
   5.9482223E-04   4.7252478E+04   -1.6814132E+00
   5.9756919E-04   4.6887881E+04   -1.6808807E+00
   6.0032882E-04   4.6526212E+04   -1.6803489E+00
   6.0310120E-04   4.6167446E+04   -1.6798178E+00
   6.0588639E-04   4.5811558E+04   -1.6792874E+00
   6.0868443E-04   4.5458525E+04   -1.6787576E+00
   6.1149540E-04   4.5108322E+04   -1.6782286E+00
   6.1431935E-04   4.4760927E+04   -1.6777002E+00
   6.1715634E-04   4.4416314E+04   -1.6771725E+00
   6.2000644E-04   4.4074462E+04   -1.6766456E+00
   6.2286969E-04   4.3735347E+04   -1.6761194E+00
