#        a       HoverH0(a)       dlogHdloga_of_a(a)
   1.0000000E-04   1.0903977E+06   -1.8980423E+00
   1.0046181E-04   1.0809045E+06   -1.8976678E+00
   1.0092575E-04   1.0714957E+06   -1.8972923E+00
   1.0139184E-04   1.0621708E+06   -1.8969158E+00
   1.0186008E-04   1.0529288E+06   -1.8965382E+00
   1.0233048E-04   1.0437690E+06   -1.8961596E+00
   1.0280305E-04   1.0346907E+06   -1.8957800E+00
   1.0327781E-04   1.0256932E+06   -1.8953994E+00
   1.0375475E-04   1.0167757E+06   -1.8950178E+00
   1.0423390E-04   1.0079375E+06   -1.8946351E+00
   1.0471527E-04   9.9917795E+05   -1.8942514E+00
   1.0519885E-04   9.9049623E+05   -1.8938667E+00
   1.0568467E-04   9.8189169E+05   -1.8934810E+00
   1.0617274E-04   9.7336363E+05   -1.8930942E+00
   1.0666305E-04   9.6491136E+05   -1.8927064E+00
   1.0715563E-04   9.5653420E+05   -1.8923176E+00
   1.0765049E-04   9.4823147E+05   -1.8919278E+00
   1.0814763E-04   9.4000249E+05   -1.8915370E+00
   1.0864707E-04   9.3184662E+05   -1.8911451E+00
   1.0914881E-04   9.2376317E+05   -1.8907522E+00
   1.0965287E-04   9.1575150E+05   -1.8903583E+00
   1.1015926E-04   9.0781097E+05   -1.8899634E+00
   1.1066799E-04   8.9994093E+05   -1.8895675E+00
   1.1117906E-04   8.9214075E+05   -1.8891705E+00
   1.1169250E-04   8.8440979E+05   -1.8887725E+00
   1.1220831E-04   8.7674744E+05   -1.8883735E+00
   1.1272650E-04   8.6915307E+05   -1.8879735E+00
   1.1324708E-04   8.6162608E+05   -1.8875724E+00
   1.1377007E-04   8.5416585E+05   -1.8871704E+00
   1.1429547E-04   8.4677179E+05   -1.8867673E+00
   1.1482330E-04   8.3944329E+05   -1.8863632E+00
   1.1535356E-04   8.3217977E+05   -1.8859581E+00
   1.1588628E-04   8.2498064E+05   -1.8855520E+00
   1.1642145E-04   8.1784532E+05   -1.8851448E+00
   1.1695910E-04   8.1077324E+05   -1.8847367E+00
   1.1749923E-04   8.0376383E+05   -1.8843275E+00
   1.1804185E-04   7.9681651E+05   -1.8839173E+00
   1.1858698E-04   7.8993075E+05   -1.8835061E+00
   1.1913463E-04   7.8310597E+05   -1.8830939E+00
   1.1968481E-04   7.7634163E+05   -1.8826807E+00
   1.2023752E-04   7.6963719E+05   -1.8822664E+00
   1.2079279E-04   7.6299210E+05   -1.8818512E+00
   1.2135063E-04   7.5640584E+05   -1.8814349E+00
   1.2191104E-04   7.4987788E+05   -1.8810177E+00
   1.2247403E-04   7.4340768E+05   -1.8805994E+00
   1.2303963E-04   7.3699473E+05   -1.8801801E+00
   1.2360784E-04   7.3063851E+05   -1.8797598E+00
   1.2417868E-04   7.2433852E+05   -1.8793385E+00
   1.2475215E-04   7.1809425E+05   -1.8789162E+00
   1.2532826E-04   7.1190519E+05   -1.8784929E+00
   1.2590704E-04   7.0577085E+05   -1.8780686E+00
   1.2648850E-04   6.9969074E+05   -1.8776433E+00
   1.2707263E-04   6.9366437E+05   -1.8772169E+00
   1.2765947E-04   6.8769125E+05   -1.8767896E+00
   1.2824901E-04   6.8177092E+05   -1.8763613E+00
   1.2884128E-04   6.7590289E+05   -1.8759320E+00
   1.2943628E-04   6.7008669E+05   -1.8755017E+00
   1.3003403E-04   6.6432186E+05   -1.8750703E+00
   1.3063454E-04   6.5860794E+05   -1.8746380E+00
   1.3123783E-04   6.5294446E+05   -1.8742047E+00
   1.3184390E-04   6.4733098E+05   -1.8737704E+00
   1.3245277E-04   6.4176704E+05   -1.8733352E+00
   1.3306445E-04   6.3625221E+05   -1.8728989E+00
   1.3367895E-04   6.3078603E+05   -1.8724616E+00
   1.3429630E-04   6.2536808E+05   -1.8720233E+00
   1.3491649E-04   6.1999792E+05   -1.8715841E+00
   1.3553955E-04   6.1467511E+05   -1.8711439E+00
   1.3616548E-04   6.0939924E+05   -1.8707027E+00
   1.3679431E-04   6.0416989E+05   -1.8702605E+00
   1.3742604E-04   5.9898663E+05   -1.8698173E+00
   1.3806069E-04   5.9384905E+05   -1.8693731E+00
   1.3869827E-04   5.8875675E+05   -1.8689280E+00
   1.3933879E-04   5.8370931E+05   -1.8684819E+00
   1.3998227E-04   5.7870633E+05   -1.8680348E+00
   1.4062872E-04   5.7374741E+05   -1.8675867E+00
   1.4127816E-04   5.6883217E+05   -1.8671377E+00
   1.4193060E-04   5.6396020E+05   -1.8666877E+00
   1.4258605E-04   5.5913112E+05   -1.8662367E+00
   1.4324453E-04   5.5434454E+05   -1.8657848E+00
   1.4390605E-04   5.4960008E+05   -1.8653319E+00
   1.4457062E-04   5.4489737E+05   -1.8648780E+00
   1.4523826E-04   5.4023603E+05   -1.8644232E+00
   1.4590899E-04   5.3561569E+05   -1.8639674E+00
   1.4658281E-04   5.3103598E+05   -1.8635106E+00
   1.4725974E-04   5.2649654E+05   -1.8630529E+00
   1.4793981E-04   5.2199700E+05   -1.8625942E+00
   1.4862301E-04   5.1753702E+05   -1.8621346E+00
   1.4930936E-04   5.1311622E+05   -1.8616741E+00
   1.4999889E-04   5.0873427E+05   -1.8612125E+00
   1.5069160E-04   5.0439082E+05   -1.8607501E+00
   1.5138751E-04   5.0008551E+05   -1.8602867E+00
   1.5208663E-04   4.9581802E+05   -1.8598223E+00
   1.5278899E-04   4.9158799E+05   -1.8593570E+00
   1.5349458E-04   4.8739510E+05   -1.8588908E+00
   1.5420343E-04   4.8323901E+05   -1.8584236E+00
   1.5491556E-04   4.7911939E+05   -1.8579555E+00
   1.5563098E-04   4.7503591E+05   -1.8574865E+00
   1.5634970E-04   4.7098826E+05   -1.8570165E+00
   1.5707174E-04   4.6697611E+05   -1.8565456E+00
   1.5779711E-04   4.6299914E+05   -1.8560738E+00
   1.5852584E-04   4.5905704E+05   -1.8556010E+00
   1.5925792E-04   4.5514950E+05   -1.8551274E+00
   1.5999339E-04   4.5127620E+05   -1.8546528E+00
   1.6073226E-04   4.4743685E+05   -1.8541773E+00
   1.6147454E-04   4.4363113E+05   -1.8537009E+00
   1.6222024E-04   4.3985875E+05   -1.8532236E+00
   1.6296939E-04   4.3611941E+05   -1.8527453E+00
   1.6372200E-04   4.3241281E+05   -1.8522662E+00
   1.6447809E-04   4.2873866E+05   -1.8517861E+00
   1.6523767E-04   4.2509667E+05   -1.8513052E+00
   1.6600075E-04   4.2148655E+05   -1.8508233E+00
   1.6676736E-04   4.1790802E+05   -1.8503406E+00
   1.6753751E-04   4.1436079E+05   -1.8498570E+00
   1.6831122E-04   4.1084459E+05   -1.8493724E+00
   1.6908849E-04   4.0735914E+05   -1.8488870E+00
   1.6986936E-04   4.0390416E+05   -1.8484007E+00
   1.7065384E-04   4.0047938E+05   -1.8479135E+00
   1.7144193E-04   3.9708454E+05   -1.8474255E+00
   1.7223367E-04   3.9371935E+05   -1.8469365E+00
   1.7302906E-04   3.9038357E+05   -1.8464467E+00
   1.7382813E-04   3.8707693E+05   -1.8459560E+00
   1.7463089E-04   3.8379916E+05   -1.8454644E+00
   1.7543735E-04   3.8055001E+05   -1.8449720E+00
   1.7624754E-04   3.7732922E+05   -1.8444787E+00
   1.7706147E-04   3.7413654E+05   -1.8439846E+00
   1.7787916E-04   3.7097173E+05   -1.8434896E+00
   1.7870062E-04   3.6783452E+05   -1.8429937E+00
   1.7952588E-04   3.6472468E+05   -1.8424970E+00
   1.8035495E-04   3.6164196E+05   -1.8419995E+00
   1.8118785E-04   3.5858611E+05   -1.8415011E+00
   1.8202459E-04   3.5555691E+05   -1.8410018E+00
   1.8286520E-04   3.5255410E+05   -1.8405017E+00
   1.8370969E-04   3.4957747E+05   -1.8400008E+00
   1.8455808E-04   3.4662676E+05   -1.8394991E+00
   1.8541039E-04   3.4370176E+05   -1.8389965E+00
   1.8626663E-04   3.4080223E+05   -1.8384931E+00
   1.8712683E-04   3.3792794E+05   -1.8379889E+00
   1.8799100E-04   3.3507868E+05   -1.8374838E+00
   1.8885917E-04   3.3225421E+05   -1.8369780E+00
   1.8973134E-04   3.2945432E+05   -1.8364713E+00
   1.9060754E-04   3.2667879E+05   -1.8359638E+00
   1.9148778E-04   3.2392739E+05   -1.8354555E+00
   1.9237209E-04   3.2119993E+05   -1.8349464E+00
   1.9326049E-04   3.1849617E+05   -1.8344366E+00
   1.9415299E-04   3.1581592E+05   -1.8339259E+00
   1.9504960E-04   3.1315896E+05   -1.8334144E+00
   1.9595036E-04   3.1052509E+05   -1.8329022E+00
   1.9685528E-04   3.0791410E+05   -1.8323891E+00
   1.9776438E-04   3.0532578E+05   -1.8318753E+00
   1.9867768E-04   3.0275994E+05   -1.8313607E+00
   1.9959519E-04   3.0021637E+05   -1.8308453E+00
   2.0051694E-04   2.9769488E+05   -1.8303292E+00
   2.0144295E-04   2.9519527E+05   -1.8298123E+00
   2.0237324E-04   2.9271734E+05   -1.8292946E+00
   2.0330782E-04   2.9026091E+05   -1.8287762E+00
   2.0424671E-04   2.8782578E+05   -1.8282570E+00
   2.0518995E-04   2.8541176E+05   -1.8277371E+00
   2.0613754E-04   2.8301867E+05   -1.8272164E+00
   2.0708950E-04   2.8064631E+05   -1.8266950E+00
   2.0804586E-04   2.7829452E+05   -1.8261729E+00
   2.0900664E-04   2.7596309E+05   -1.8256500E+00
   2.0997185E-04   2.7365186E+05   -1.8251264E+00
   2.1094152E-04   2.7136063E+05   -1.8246020E+00
   2.1191567E-04   2.6908924E+05   -1.8240770E+00
   2.1289432E-04   2.6683751E+05   -1.8235512E+00
   2.1387749E-04   2.6460527E+05   -1.8230247E+00
   2.1486520E-04   2.6239233E+05   -1.8224975E+00
   2.1585747E-04   2.6019854E+05   -1.8219696E+00
   2.1685432E-04   2.5802371E+05   -1.8214410E+00
   2.1785578E-04   2.5586768E+05   -1.8209117E+00
   2.1886186E-04   2.5373029E+05   -1.8203817E+00
   2.1987259E-04   2.5161137E+05   -1.8198510E+00
   2.2088798E-04   2.4951076E+05   -1.8193196E+00
   2.2190807E-04   2.4742829E+05   -1.8187876E+00
   2.2293286E-04   2.4536380E+05   -1.8182549E+00
   2.2396239E-04   2.4331714E+05   -1.8177215E+00
   2.2499667E-04   2.4128814E+05   -1.8171874E+00
   2.2603573E-04   2.3927665E+05   -1.8166527E+00
   2.2707958E-04   2.3728251E+05   -1.8161173E+00
   2.2812826E-04   2.3530557E+05   -1.8155813E+00
   2.2918178E-04   2.3334568E+05   -1.8150446E+00
   2.3024017E-04   2.3140269E+05   -1.8145073E+00
   2.3130344E-04   2.2947644E+05   -1.8139693E+00
   2.3237162E-04   2.2756679E+05   -1.8134307E+00
   2.3344474E-04   2.2567360E+05   -1.8128914E+00
   2.3452281E-04   2.2379671E+05   -1.8123516E+00
   2.3560586E-04   2.2193598E+05   -1.8118111E+00
   2.3669392E-04   2.2009128E+05   -1.8112700E+00
   2.3778699E-04   2.1826245E+05   -1.8107283E+00
   2.3888512E-04   2.1644935E+05   -1.8101860E+00
   2.3998831E-04   2.1465186E+05   -1.8096431E+00
   2.4109661E-04   2.1286982E+05   -1.8090996E+00
   2.4221001E-04   2.1110311E+05   -1.8085554E+00
   2.4332857E-04   2.0935159E+05   -1.8080107E+00
   2.4445228E-04   2.0761512E+05   -1.8074655E+00
   2.4558119E-04   2.0589357E+05   -1.8069196E+00
   2.4671531E-04   2.0418681E+05   -1.8063732E+00
   2.4785467E-04   2.0249471E+05   -1.8058262E+00
   2.4899928E-04   2.0081713E+05   -1.8052786E+00
   2.5014919E-04   1.9915396E+05   -1.8047305E+00
   2.5130440E-04   1.9750506E+05   -1.8041818E+00
   2.5246495E-04   1.9587031E+05   -1.8036326E+00
   2.5363086E-04   1.9424958E+05   -1.8030828E+00
   2.5480216E-04   1.9264275E+05   -1.8025325E+00
   2.5597886E-04   1.9104970E+05   -1.8019817E+00
   2.5716100E-04   1.8947030E+05   -1.8014303E+00
   2.5834859E-04   1.8790444E+05   -1.8008784E+00
   2.5954168E-04   1.8635199E+05   -1.8003260E+00
   2.6074027E-04   1.8481283E+05   -1.7997731E+00
   2.6194439E-04   1.8328686E+05   -1.7992196E+00
   2.6315408E-04   1.8177395E+05   -1.7986657E+00
   2.6436935E-04   1.8027399E+05   -1.7981113E+00
   2.6559024E-04   1.7878686E+05   -1.7975564E+00
   2.6681676E-04   1.7731246E+05   -1.7970009E+00
   2.6804895E-04   1.7585066E+05   -1.7964450E+00
   2.6928683E-04   1.7440136E+05   -1.7958887E+00
   2.7053042E-04   1.7296445E+05   -1.7953318E+00
   2.7177976E-04   1.7153982E+05   -1.7947745E+00
   2.7303487E-04   1.7012736E+05   -1.7942168E+00
   2.7429577E-04   1.6872697E+05   -1.7936585E+00
   2.7556250E-04   1.6733853E+05   -1.7930999E+00
   2.7683507E-04   1.6596194E+05   -1.7925407E+00
   2.7811353E-04   1.6459711E+05   -1.7919812E+00
   2.7939788E-04   1.6324391E+05   -1.7914212E+00
   2.8068817E-04   1.6190227E+05   -1.7908608E+00
   2.8198442E-04   1.6057206E+05   -1.7902999E+00
   2.8328665E-04   1.5925319E+05   -1.7897387E+00
   2.8459490E-04   1.5794557E+05   -1.7891770E+00
   2.8590919E-04   1.5664908E+05   -1.7886149E+00
   2.8722955E-04   1.5536365E+05   -1.7880525E+00
   2.8855600E-04   1.5408915E+05   -1.7874896E+00
   2.8988859E-04   1.5282551E+05   -1.7869263E+00
   2.9122732E-04   1.5157263E+05   -1.7863627E+00
   2.9257224E-04   1.5033041E+05   -1.7857986E+00
   2.9392337E-04   1.4909876E+05   -1.7852342E+00
   2.9528074E-04   1.4787758E+05   -1.7846695E+00
   2.9664438E-04   1.4666679E+05   -1.7841044E+00
   2.9801431E-04   1.4546628E+05   -1.7835389E+00
   2.9939057E-04   1.4427599E+05   -1.7829730E+00
   3.0077319E-04   1.4309580E+05   -1.7824069E+00
   3.0216219E-04   1.4192564E+05   -1.7818403E+00
   3.0355761E-04   1.4076541E+05   -1.7812735E+00
   3.0495947E-04   1.3961504E+05   -1.7807063E+00
   3.0636780E-04   1.3847443E+05   -1.7801388E+00
   3.0778264E-04   1.3734349E+05   -1.7795710E+00
   3.0920401E-04   1.3622215E+05   -1.7790029E+00
   3.1063195E-04   1.3511032E+05   -1.7784344E+00
   3.1206648E-04   1.3400791E+05   -1.7778657E+00
   3.1350764E-04   1.3291484E+05   -1.7772967E+00
   3.1495545E-04   1.3183104E+05   -1.7767274E+00
   3.1640994E-04   1.3075642E+05   -1.7761578E+00
   3.1787116E-04   1.2969090E+05   -1.7755879E+00
   3.1933912E-04   1.2863440E+05   -1.7750178E+00
   3.2081386E-04   1.2758684E+05   -1.7744474E+00
   3.2229541E-04   1.2654814E+05   -1.7738767E+00
   3.2378381E-04   1.2551824E+05   -1.7733058E+00
   3.2527908E-04   1.2449704E+05   -1.7727347E+00
   3.2678125E-04   1.2348447E+05   -1.7721633E+00
   3.2829036E-04   1.2248046E+05   -1.7715917E+00
   3.2980644E-04   1.2148494E+05   -1.7710198E+00
   3.3132952E-04   1.2049782E+05   -1.7704477E+00
   3.3285963E-04   1.1951904E+05   -1.7698754E+00
   3.3439681E-04   1.1854852E+05   -1.7693029E+00
   3.3594109E-04   1.1758620E+05   -1.7687302E+00
   3.3749250E-04   1.1663199E+05   -1.7681573E+00
   3.3905108E-04   1.1568583E+05   -1.7675842E+00
   3.4061685E-04   1.1474765E+05   -1.7670109E+00
   3.4218986E-04   1.1381738E+05   -1.7664375E+00
   3.4377013E-04   1.1289495E+05   -1.7658638E+00
   3.4535769E-04   1.1198030E+05   -1.7652900E+00
   3.4695259E-04   1.1107334E+05   -1.7647160E+00
   3.4855485E-04   1.1017402E+05   -1.7641419E+00
   3.5016452E-04   1.0928228E+05   -1.7635676E+00
   3.5178161E-04   1.0839804E+05   -1.7629932E+00
   3.5340618E-04   1.0752123E+05   -1.7624186E+00
   3.5503824E-04   1.0665181E+05   -1.7618439E+00
   3.5667785E-04   1.0578969E+05   -1.7612691E+00
   3.5832502E-04   1.0493482E+05   -1.7606942E+00
   3.5997981E-04   1.0408713E+05   -1.7601191E+00
   3.6164223E-04   1.0324657E+05   -1.7595439E+00
   3.6331233E-04   1.0241306E+05   -1.7589687E+00
   3.6499015E-04   1.0158655E+05   -1.7583933E+00
   3.6667571E-04   1.0076698E+05   -1.7578179E+00
   3.6836906E-04   9.9954288E+04   -1.7572423E+00
   3.7007022E-04   9.9148412E+04   -1.7566667E+00
   3.7177925E-04   9.8349294E+04   -1.7560910E+00
   3.7349616E-04   9.7556876E+04   -1.7555153E+00
   3.7522101E-04   9.6771099E+04   -1.7549395E+00
   3.7695382E-04   9.5991906E+04   -1.7543636E+00
   3.7869463E-04   9.5219240E+04   -1.7537877E+00
   3.8044348E-04   9.4453044E+04   -1.7532117E+00
   3.8220041E-04   9.3693261E+04   -1.7526358E+00
   3.8396545E-04   9.2939837E+04   -1.7520597E+00
   3.8573864E-04   9.2192716E+04   -1.7514837E+00
   3.8752002E-04   9.1451844E+04   -1.7509076E+00
   3.8930963E-04   9.0717167E+04   -1.7503316E+00
   3.9110750E-04   8.9988630E+04   -1.7497555E+00
   3.9291368E-04   8.9266181E+04   -1.7491794E+00
   3.9472820E-04   8.8549767E+04   -1.7486034E+00
   3.9655109E-04   8.7839335E+04   -1.7480273E+00
   3.9838241E-04   8.7134835E+04   -1.7474513E+00
   4.0022218E-04   8.6436214E+04   -1.7468753E+00
   4.0207045E-04   8.5743423E+04   -1.7462993E+00
   4.0392725E-04   8.5056410E+04   -1.7457234E+00
   4.0579263E-04   8.4375125E+04   -1.7451475E+00
   4.0766662E-04   8.3699520E+04   -1.7445717E+00
   4.0954927E-04   8.3029544E+04   -1.7439959E+00
   4.1144061E-04   8.2365150E+04   -1.7434202E+00
   4.1334068E-04   8.1706289E+04   -1.7428445E+00
   4.1524953E-04   8.1052913E+04   -1.7422690E+00
   4.1716720E-04   8.0404975E+04   -1.7416935E+00
   4.1909372E-04   7.9762428E+04   -1.7411181E+00
   4.2102914E-04   7.9125226E+04   -1.7405428E+00
   4.2297350E-04   7.8493323E+04   -1.7399676E+00
   4.2492683E-04   7.7866672E+04   -1.7393924E+00
   4.2688919E-04   7.7245229E+04   -1.7388174E+00
   4.2886061E-04   7.6628948E+04   -1.7382426E+00
   4.3084113E-04   7.6017786E+04   -1.7376678E+00
   4.3283080E-04   7.5411698E+04   -1.7370932E+00
   4.3482966E-04   7.4810640E+04   -1.7365187E+00
   4.3683775E-04   7.4214569E+04   -1.7359444E+00
   4.3885511E-04   7.3623442E+04   -1.7353702E+00
   4.4088179E-04   7.3037217E+04   -1.7347961E+00
   4.4291783E-04   7.2455851E+04   -1.7342222E+00
   4.4496327E-04   7.1879303E+04   -1.7336485E+00
   4.4701816E-04   7.1307531E+04   -1.7330750E+00
   4.4908253E-04   7.0740494E+04   -1.7325016E+00
   4.5115644E-04   7.0178151E+04   -1.7319284E+00
   4.5323993E-04   6.9620463E+04   -1.7313554E+00
   4.5533304E-04   6.9067389E+04   -1.7307826E+00
   4.5743582E-04   6.8518889E+04   -1.7302100E+00
   4.5954830E-04   6.7974925E+04   -1.7296376E+00
   4.6167054E-04   6.7435457E+04   -1.7290654E+00
   4.6380259E-04   6.6900446E+04   -1.7284935E+00
   4.6594448E-04   6.6369855E+04   -1.7279217E+00
   4.6809626E-04   6.5843646E+04   -1.7273502E+00
   4.7025797E-04   6.5321780E+04   -1.7267790E+00
   4.7242967E-04   6.4804222E+04   -1.7262079E+00
   4.7461140E-04   6.4290933E+04   -1.7256372E+00
   4.7680321E-04   6.3781877E+04   -1.7250667E+00
   4.7900514E-04   6.3277018E+04   -1.7244964E+00
   4.8121723E-04   6.2776321E+04   -1.7239264E+00
   4.8343954E-04   6.2279749E+04   -1.7233567E+00
   4.8567212E-04   6.1787267E+04   -1.7227872E+00
   4.8791500E-04   6.1298840E+04   -1.7222181E+00
   4.9016825E-04   6.0814434E+04   -1.7216492E+00
   4.9243189E-04   6.0334013E+04   -1.7210807E+00
   4.9470600E-04   5.9857545E+04   -1.7205124E+00
   4.9699060E-04   5.9384995E+04   -1.7199444E+00
   4.9928575E-04   5.8916329E+04   -1.7193768E+00
   5.0159151E-04   5.8451515E+04   -1.7188095E+00
   5.0390791E-04   5.7990520E+04   -1.7182425E+00
   5.0623501E-04   5.7533311E+04   -1.7176758E+00
   5.0857286E-04   5.7079855E+04   -1.7171095E+00
   5.1092150E-04   5.6630121E+04   -1.7165435E+00
   5.1328099E-04   5.6184077E+04   -1.7159778E+00
   5.1565137E-04   5.5741692E+04   -1.7154125E+00
   5.1803270E-04   5.5302934E+04   -1.7148476E+00
   5.2042503E-04   5.4867772E+04   -1.7142830E+00
   5.2282841E-04   5.4436176E+04   -1.7137188E+00
   5.2524289E-04   5.4008115E+04   -1.7131550E+00
   5.2766851E-04   5.3583560E+04   -1.7125915E+00
   5.3010534E-04   5.3162479E+04   -1.7120285E+00
   5.3255342E-04   5.2744845E+04   -1.7114658E+00
   5.3501281E-04   5.2330627E+04   -1.7109036E+00
   5.3748356E-04   5.1919797E+04   -1.7103417E+00
   5.3996571E-04   5.1512325E+04   -1.7097802E+00
   5.4245933E-04   5.1108183E+04   -1.7092192E+00
   5.4496446E-04   5.0707343E+04   -1.7086586E+00
   5.4748117E-04   5.0309776E+04   -1.7080984E+00
   5.5000949E-04   4.9915456E+04   -1.7075386E+00
   5.5254949E-04   4.9524354E+04   -1.7069793E+00
   5.5510123E-04   4.9136442E+04   -1.7064204E+00
   5.5766474E-04   4.8751695E+04   -1.7058620E+00
   5.6024010E-04   4.8370085E+04   -1.7053040E+00
   5.6282734E-04   4.7991585E+04   -1.7047465E+00
   5.6542654E-04   4.7616169E+04   -1.7041894E+00
   5.6803774E-04   4.7243811E+04   -1.7036328E+00
   5.7066099E-04   4.6874485E+04   -1.7030767E+00
   5.7329637E-04   4.6508165E+04   -1.7025211E+00
   5.7594391E-04   4.6144826E+04   -1.7019659E+00
   5.7860368E-04   4.5784443E+04   -1.7014113E+00
   5.8127573E-04   4.5426991E+04   -1.7008571E+00
   5.8396012E-04   4.5072444E+04   -1.7003034E+00
   5.8665691E-04   4.4720778E+04   -1.6997503E+00
   5.8936616E-04   4.4371969E+04   -1.6991976E+00
   5.9208791E-04   4.4025993E+04   -1.6986455E+00
   5.9482223E-04   4.3682826E+04   -1.6980938E+00
   5.9756919E-04   4.3342443E+04   -1.6975427E+00
   6.0032882E-04   4.3004822E+04   -1.6969922E+00
   6.0310120E-04   4.2669939E+04   -1.6964422E+00
   6.0588639E-04   4.2337771E+04   -1.6958927E+00
   6.0868443E-04   4.2008295E+04   -1.6953437E+00
   6.1149540E-04   4.1681489E+04   -1.6947954E+00
   6.1431935E-04   4.1357329E+04   -1.6942475E+00
   6.1715634E-04   4.1035794E+04   -1.6937002E+00
   6.2000644E-04   4.0716862E+04   -1.6931535E+00
   6.2286969E-04   4.0400509E+04   -1.6926074E+00
