#        a       HoverH0(a)       dlogHdloga_of_a(a)
   1.0000000E-04   1.0930372E+06   -1.8977573E+00
   1.0046181E-04   1.0835224E+06   -1.8973821E+00
   1.0092575E-04   1.0740923E+06   -1.8970058E+00
   1.0139184E-04   1.0647462E+06   -1.8966285E+00
   1.0186008E-04   1.0554832E+06   -1.8962501E+00
   1.0233048E-04   1.0463026E+06   -1.8958708E+00
   1.0280305E-04   1.0372036E+06   -1.8954904E+00
   1.0327781E-04   1.0281856E+06   -1.8951090E+00
   1.0375475E-04   1.0192479E+06   -1.8947265E+00
   1.0423390E-04   1.0103895E+06   -1.8943431E+00
   1.0471527E-04   1.0016100E+06   -1.8939586E+00
   1.0519885E-04   9.9290847E+05   -1.8935731E+00
   1.0568467E-04   9.8428431E+05   -1.8931866E+00
   1.0617274E-04   9.7573679E+05   -1.8927991E+00
   1.0666305E-04   9.6726523E+05   -1.8924105E+00
   1.0715563E-04   9.5886894E+05   -1.8920210E+00
   1.0765049E-04   9.5054725E+05   -1.8916304E+00
   1.0814763E-04   9.4229947E+05   -1.8912388E+00
   1.0864707E-04   9.3412495E+05   -1.8908461E+00
   1.0914881E-04   9.2602302E+05   -1.8904525E+00
   1.0965287E-04   9.1799302E+05   -1.8900578E+00
   1.1015926E-04   9.1003432E+05   -1.8896621E+00
   1.1066799E-04   9.0214626E+05   -1.8892654E+00
   1.1117906E-04   8.9432820E+05   -1.8888676E+00
   1.1169250E-04   8.8657953E+05   -1.8884689E+00
   1.1220831E-04   8.7889961E+05   -1.8880691E+00
   1.1272650E-04   8.7128783E+05   -1.8876683E+00
   1.1324708E-04   8.6374356E+05   -1.8872665E+00
   1.1377007E-04   8.5626621E+05   -1.8868636E+00
   1.1429547E-04   8.4885516E+05   -1.8864598E+00
   1.1482330E-04   8.4150983E+05   -1.8860549E+00
   1.1535356E-04   8.3422961E+05   -1.8856490E+00
   1.1588628E-04   8.2701393E+05   -1.8852421E+00
   1.1642145E-04   8.1986220E+05   -1.8848342E+00
   1.1695910E-04   8.1277384E+05   -1.8844253E+00
   1.1749923E-04   8.0574829E+05   -1.8840154E+00
   1.1804185E-04   7.9878497E+05   -1.8836044E+00
   1.1858698E-04   7.9188334E+05   -1.8831924E+00
   1.1913463E-04   7.8504282E+05   -1.8827794E+00
   1.1968481E-04   7.7826288E+05   -1.8823654E+00
   1.2023752E-04   7.7154297E+05   -1.8819504E+00
   1.2079279E-04   7.6488255E+05   -1.8815344E+00
   1.2135063E-04   7.5828108E+05   -1.8811174E+00
   1.2191104E-04   7.5173803E+05   -1.8806993E+00
   1.2247403E-04   7.4525288E+05   -1.8802803E+00
   1.2303963E-04   7.3882510E+05   -1.8798602E+00
   1.2360784E-04   7.3245418E+05   -1.8794392E+00
   1.2417868E-04   7.2613960E+05   -1.8790171E+00
   1.2475215E-04   7.1988087E+05   -1.8785940E+00
   1.2532826E-04   7.1367747E+05   -1.8781700E+00
   1.2590704E-04   7.0752891E+05   -1.8777449E+00
   1.2648850E-04   7.0143471E+05   -1.8773188E+00
   1.2707263E-04   6.9539435E+05   -1.8768917E+00
   1.2765947E-04   6.8940738E+05   -1.8764637E+00
   1.2824901E-04   6.8347330E+05   -1.8760346E+00
   1.2884128E-04   6.7759164E+05   -1.8756045E+00
   1.2943628E-04   6.7176192E+05   -1.8751734E+00
   1.3003403E-04   6.6598369E+05   -1.8747413E+00
   1.3063454E-04   6.6025647E+05   -1.8743083E+00
   1.3123783E-04   6.5457982E+05   -1.8738742E+00
   1.3184390E-04   6.4895327E+05   -1.8734392E+00
   1.3245277E-04   6.4337637E+05   -1.8730031E+00
   1.3306445E-04   6.3784868E+05   -1.8725661E+00
   1.3367895E-04   6.3236976E+05   -1.8721281E+00
   1.3429630E-04   6.2693917E+05   -1.8716891E+00
   1.3491649E-04   6.2155647E+05   -1.8712491E+00
   1.3553955E-04   6.1622124E+05   -1.8708081E+00
   1.3616548E-04   6.1093305E+05   -1.8703661E+00
   1.3679431E-04   6.0569147E+05   -1.8699232E+00
   1.3742604E-04   6.0049609E+05   -1.8694793E+00
   1.3806069E-04   5.9534650E+05   -1.8690344E+00
   1.3869827E-04   5.9024227E+05   -1.8685885E+00
   1.3933879E-04   5.8518301E+05   -1.8681416E+00
   1.3998227E-04   5.8016831E+05   -1.8676938E+00
   1.4062872E-04   5.7519778E+05   -1.8672450E+00
   1.4127816E-04   5.7027100E+05   -1.8667952E+00
   1.4193060E-04   5.6538760E+05   -1.8663445E+00
   1.4258605E-04   5.6054719E+05   -1.8658928E+00
   1.4324453E-04   5.5574937E+05   -1.8654401E+00
   1.4390605E-04   5.5099376E+05   -1.8649864E+00
   1.4457062E-04   5.4628000E+05   -1.8645318E+00
   1.4523826E-04   5.4160770E+05   -1.8640763E+00
   1.4590899E-04   5.3697648E+05   -1.8636198E+00
   1.4658281E-04   5.3238599E+05   -1.8631623E+00
   1.4725974E-04   5.2783586E+05   -1.8627038E+00
   1.4793981E-04   5.2332572E+05   -1.8622445E+00
   1.4862301E-04   5.1885522E+05   -1.8617841E+00
   1.4930936E-04   5.1442399E+05   -1.8613228E+00
   1.4999889E-04   5.1003170E+05   -1.8608606E+00
   1.5069160E-04   5.0567799E+05   -1.8603974E+00
   1.5138751E-04   5.0136251E+05   -1.8599333E+00
   1.5208663E-04   4.9708493E+05   -1.8594682E+00
   1.5278899E-04   4.9284490E+05   -1.8590022E+00
   1.5349458E-04   4.8864209E+05   -1.8585353E+00
   1.5420343E-04   4.8447616E+05   -1.8580674E+00
   1.5491556E-04   4.8034678E+05   -1.8575986E+00
   1.5563098E-04   4.7625363E+05   -1.8571288E+00
   1.5634970E-04   4.7219638E+05   -1.8566581E+00
   1.5707174E-04   4.6817471E+05   -1.8561865E+00
   1.5779711E-04   4.6418830E+05   -1.8557140E+00
   1.5852584E-04   4.6023684E+05   -1.8552406E+00
   1.5925792E-04   4.5632002E+05   -1.8547662E+00
   1.5999339E-04   4.5243751E+05   -1.8542909E+00
   1.6073226E-04   4.4858903E+05   -1.8538147E+00
   1.6147454E-04   4.4477425E+05   -1.8533376E+00
   1.6222024E-04   4.4099289E+05   -1.8528596E+00
   1.6296939E-04   4.3724464E+05   -1.8523807E+00
   1.6372200E-04   4.3352920E+05   -1.8519008E+00
   1.6447809E-04   4.2984629E+05   -1.8514201E+00
   1.6523767E-04   4.2619561E+05   -1.8509385E+00
   1.6600075E-04   4.2257688E+05   -1.8504559E+00
   1.6676736E-04   4.1898980E+05   -1.8499725E+00
   1.6753751E-04   4.1543410E+05   -1.8494882E+00
   1.6831122E-04   4.1190949E+05   -1.8490030E+00
   1.6908849E-04   4.0841570E+05   -1.8485169E+00
   1.6986936E-04   4.0495245E+05   -1.8480299E+00
   1.7065384E-04   4.0151947E+05   -1.8475421E+00
   1.7144193E-04   3.9811649E+05   -1.8470533E+00
   1.7223367E-04   3.9474324E+05   -1.8465637E+00
   1.7302906E-04   3.9139945E+05   -1.8460733E+00
   1.7382813E-04   3.8808487E+05   -1.8455819E+00
   1.7463089E-04   3.8479923E+05   -1.8450897E+00
   1.7543735E-04   3.8154227E+05   -1.8445966E+00
   1.7624754E-04   3.7831375E+05   -1.8441027E+00
   1.7706147E-04   3.7511339E+05   -1.8436079E+00
   1.7787916E-04   3.7194095E+05   -1.8431122E+00
   1.7870062E-04   3.6879619E+05   -1.8426157E+00
   1.7952588E-04   3.6567886E+05   -1.8421183E+00
   1.8035495E-04   3.6258870E+05   -1.8416201E+00
   1.8118785E-04   3.5952549E+05   -1.8411211E+00
   1.8202459E-04   3.5648897E+05   -1.8406212E+00
   1.8286520E-04   3.5347892E+05   -1.8401205E+00
   1.8370969E-04   3.5049509E+05   -1.8396190E+00
   1.8455808E-04   3.4753725E+05   -1.8391166E+00
   1.8541039E-04   3.4460517E+05   -1.8386134E+00
   1.8626663E-04   3.4169862E+05   -1.8381093E+00
   1.8712683E-04   3.3881738E+05   -1.8376045E+00
   1.8799100E-04   3.3596121E+05   -1.8370988E+00
   1.8885917E-04   3.3312990E+05   -1.8365924E+00
   1.8973134E-04   3.3032321E+05   -1.8360851E+00
   1.9060754E-04   3.2754094E+05   -1.8355770E+00
   1.9148778E-04   3.2478287E+05   -1.8350681E+00
   1.9237209E-04   3.2204877E+05   -1.8345584E+00
   1.9326049E-04   3.1933845E+05   -1.8340479E+00
   1.9415299E-04   3.1665167E+05   -1.8335366E+00
   1.9504960E-04   3.1398825E+05   -1.8330246E+00
   1.9595036E-04   3.1134796E+05   -1.8325117E+00
   1.9685528E-04   3.0873060E+05   -1.8319981E+00
   1.9776438E-04   3.0613597E+05   -1.8314837E+00
   1.9867768E-04   3.0356387E+05   -1.8309685E+00
   1.9959519E-04   3.0101409E+05   -1.8304525E+00
   2.0051694E-04   2.9848644E+05   -1.8299358E+00
   2.0144295E-04   2.9598072E+05   -1.8294183E+00
   2.0237324E-04   2.9349674E+05   -1.8289001E+00
   2.0330782E-04   2.9103429E+05   -1.8283811E+00
   2.0424671E-04   2.8859320E+05   -1.8278613E+00
   2.0518995E-04   2.8617327E+05   -1.8273409E+00
   2.0613754E-04   2.8377431E+05   -1.8268196E+00
   2.0708950E-04   2.8139614E+05   -1.8262976E+00
   2.0804586E-04   2.7903857E+05   -1.8257749E+00
   2.0900664E-04   2.7670141E+05   -1.8252515E+00
   2.0997185E-04   2.7438450E+05   -1.8247273E+00
   2.1094152E-04   2.7208764E+05   -1.8242024E+00
   2.1191567E-04   2.6981067E+05   -1.8236768E+00
   2.1289432E-04   2.6755339E+05   -1.8231505E+00
   2.1387749E-04   2.6531565E+05   -1.8226235E+00
   2.1486520E-04   2.6309726E+05   -1.8220957E+00
   2.1585747E-04   2.6089805E+05   -1.8215673E+00
   2.1685432E-04   2.5871786E+05   -1.8210382E+00
   2.1785578E-04   2.5655651E+05   -1.8205083E+00
   2.1886186E-04   2.5441384E+05   -1.8199778E+00
   2.1987259E-04   2.5228968E+05   -1.8194466E+00
   2.2088798E-04   2.5018387E+05   -1.8189147E+00
   2.2190807E-04   2.4809624E+05   -1.8183822E+00
   2.2293286E-04   2.4602664E+05   -1.8178489E+00
   2.2396239E-04   2.4397490E+05   -1.8173150E+00
   2.2499667E-04   2.4194087E+05   -1.8167804E+00
   2.2603573E-04   2.3992439E+05   -1.8162452E+00
   2.2707958E-04   2.3792530E+05   -1.8157093E+00
   2.2812826E-04   2.3594345E+05   -1.8151728E+00
   2.2918178E-04   2.3397869E+05   -1.8146356E+00
   2.3024017E-04   2.3203086E+05   -1.8140978E+00
   2.3130344E-04   2.3009982E+05   -1.8135594E+00
   2.3237162E-04   2.2818542E+05   -1.8130203E+00
   2.3344474E-04   2.2628751E+05   -1.8124806E+00
   2.3452281E-04   2.2440594E+05   -1.8119402E+00
   2.3560586E-04   2.2254057E+05   -1.8113993E+00
   2.3669392E-04   2.2069125E+05   -1.8108577E+00
   2.3778699E-04   2.1885785E+05   -1.8103156E+00
   2.3888512E-04   2.1704023E+05   -1.8097728E+00
   2.3998831E-04   2.1523824E+05   -1.8092294E+00
   2.4109661E-04   2.1345174E+05   -1.8086854E+00
   2.4221001E-04   2.1168060E+05   -1.8081409E+00
   2.4332857E-04   2.0992469E+05   -1.8075958E+00
   2.4445228E-04   2.0818386E+05   -1.8070500E+00
   2.4558119E-04   2.0645799E+05   -1.8065037E+00
   2.4671531E-04   2.0474695E+05   -1.8059569E+00
   2.4785467E-04   2.0305059E+05   -1.8054094E+00
   2.4899928E-04   2.0136880E+05   -1.8048615E+00
   2.5014919E-04   1.9970144E+05   -1.8043129E+00
   2.5130440E-04   1.9804839E+05   -1.8037638E+00
   2.5246495E-04   1.9640952E+05   -1.8032142E+00
   2.5363086E-04   1.9478471E+05   -1.8026640E+00
   2.5480216E-04   1.9317382E+05   -1.8021133E+00
   2.5597886E-04   1.9157675E+05   -1.8015620E+00
   2.5716100E-04   1.8999336E+05   -1.8010103E+00
   2.5834859E-04   1.8842354E+05   -1.8004580E+00
   2.5954168E-04   1.8686716E+05   -1.7999052E+00
   2.6074027E-04   1.8532411E+05   -1.7993519E+00
   2.6194439E-04   1.8379428E+05   -1.7987981E+00
   2.6315408E-04   1.8227753E+05   -1.7982438E+00
   2.6436935E-04   1.8077377E+05   -1.7976889E+00
   2.6559024E-04   1.7928287E+05   -1.7971336E+00
   2.6681676E-04   1.7780472E+05   -1.7965779E+00
   2.6804895E-04   1.7633921E+05   -1.7960216E+00
   2.6928683E-04   1.7488622E+05   -1.7954649E+00
   2.7053042E-04   1.7344566E+05   -1.7949077E+00
   2.7177976E-04   1.7201740E+05   -1.7943500E+00
   2.7303487E-04   1.7060134E+05   -1.7937919E+00
   2.7429577E-04   1.6919738E+05   -1.7932333E+00
   2.7556250E-04   1.6780540E+05   -1.7926743E+00
   2.7683507E-04   1.6642530E+05   -1.7921149E+00
   2.7811353E-04   1.6505697E+05   -1.7915550E+00
   2.7939788E-04   1.6370032E+05   -1.7909947E+00
   2.8068817E-04   1.6235524E+05   -1.7904339E+00
   2.8198442E-04   1.6102163E+05   -1.7898728E+00
   2.8328665E-04   1.5969938E+05   -1.7893112E+00
   2.8459490E-04   1.5838841E+05   -1.7887492E+00
   2.8590919E-04   1.5708860E+05   -1.7881868E+00
   2.8722955E-04   1.5579986E+05   -1.7876241E+00
   2.8855600E-04   1.5452210E+05   -1.7870609E+00
   2.8988859E-04   1.5325521E+05   -1.7864973E+00
   2.9122732E-04   1.5199910E+05   -1.7859334E+00
   2.9257224E-04   1.5075369E+05   -1.7853691E+00
   2.9392337E-04   1.4951886E+05   -1.7848044E+00
   2.9528074E-04   1.4829454E+05   -1.7842394E+00
   2.9664438E-04   1.4708062E+05   -1.7836740E+00
   2.9801431E-04   1.4587702E+05   -1.7831082E+00
   2.9939057E-04   1.4468365E+05   -1.7825421E+00
   3.0077319E-04   1.4350041E+05   -1.7819757E+00
   3.0216219E-04   1.4232723E+05   -1.7814089E+00
   3.0355761E-04   1.4116400E+05   -1.7808418E+00
   3.0495947E-04   1.4001064E+05   -1.7802744E+00
   3.0636780E-04   1.3886708E+05   -1.7797067E+00
   3.0778264E-04   1.3773321E+05   -1.7791386E+00
   3.0920401E-04   1.3660896E+05   -1.7785703E+00
   3.1063195E-04   1.3549424E+05   -1.7780016E+00
   3.1206648E-04   1.3438897E+05   -1.7774327E+00
   3.1350764E-04   1.3329306E+05   -1.7768634E+00
   3.1495545E-04   1.3220644E+05   -1.7762939E+00
   3.1640994E-04   1.3112902E+05   -1.7757241E+00
   3.1787116E-04   1.3006072E+05   -1.7751540E+00
   3.1933912E-04   1.2900147E+05   -1.7745837E+00
   3.2081386E-04   1.2795117E+05   -1.7740131E+00
   3.2229541E-04   1.2690977E+05   -1.7734423E+00
   3.2378381E-04   1.2587717E+05   -1.7728712E+00
   3.2527908E-04   1.2485330E+05   -1.7722998E+00
   3.2678125E-04   1.2383808E+05   -1.7717282E+00
   3.2829036E-04   1.2283144E+05   -1.7711564E+00
   3.2980644E-04   1.2183331E+05   -1.7705844E+00
   3.3132952E-04   1.2084360E+05   -1.7700122E+00
   3.3285963E-04   1.1986226E+05   -1.7694397E+00
   3.3439681E-04   1.1888919E+05   -1.7688671E+00
   3.3594109E-04   1.1792434E+05   -1.7682942E+00
   3.3749250E-04   1.1696762E+05   -1.7677211E+00
   3.3905108E-04   1.1601897E+05   -1.7671479E+00
   3.4061685E-04   1.1507832E+05   -1.7665745E+00
   3.4218986E-04   1.1414560E+05   -1.7660009E+00
   3.4377013E-04   1.1322074E+05   -1.7654271E+00
   3.4535769E-04   1.1230367E+05   -1.7648532E+00
   3.4695259E-04   1.1139432E+05   -1.7642791E+00
   3.4855485E-04   1.1049263E+05   -1.7637048E+00
   3.5016452E-04   1.0959852E+05   -1.7631304E+00
   3.5178161E-04   1.0871194E+05   -1.7625559E+00
   3.5340618E-04   1.0783282E+05   -1.7619813E+00
   3.5503824E-04   1.0696108E+05   -1.7614065E+00
   3.5667785E-04   1.0609668E+05   -1.7608315E+00
   3.5832502E-04   1.0523954E+05   -1.7602565E+00
   3.5997981E-04   1.0438960E+05   -1.7596814E+00
   3.6164223E-04   1.0354681E+05   -1.7591061E+00
   3.6331233E-04   1.0271108E+05   -1.7585308E+00
   3.6499015E-04   1.0188238E+05   -1.7579554E+00
   3.6667571E-04   1.0106062E+05   -1.7573799E+00
   3.6836906E-04   1.0024576E+05   -1.7568043E+00
   3.7007022E-04   9.9437738E+04   -1.7562286E+00
   3.7177925E-04   9.8636487E+04   -1.7556529E+00
   3.7349616E-04   9.7841952E+04   -1.7550771E+00
   3.7522101E-04   9.7054075E+04   -1.7545012E+00
   3.7695382E-04   9.6272798E+04   -1.7539253E+00
   3.7869463E-04   9.5498064E+04   -1.7533494E+00
   3.8044348E-04   9.4729815E+04   -1.7527734E+00
   3.8220041E-04   9.3967996E+04   -1.7521974E+00
   3.8396545E-04   9.3212551E+04   -1.7516213E+00
   3.8573864E-04   9.2463425E+04   -1.7510453E+00
   3.8752002E-04   9.1720563E+04   -1.7504692E+00
   3.8930963E-04   9.0983910E+04   -1.7498932E+00
   3.9110750E-04   9.0253413E+04   -1.7493171E+00
   3.9291368E-04   8.9529019E+04   -1.7487410E+00
   3.9472820E-04   8.8810675E+04   -1.7481650E+00
   3.9655109E-04   8.8098328E+04   -1.7475890E+00
   3.9838241E-04   8.7391927E+04   -1.7470129E+00
   4.0022218E-04   8.6691421E+04   -1.7464370E+00
   4.0207045E-04   8.5996757E+04   -1.7458610E+00
   4.0392725E-04   8.5307887E+04   -1.7452851E+00
   4.0579263E-04   8.4624759E+04   -1.7447093E+00
   4.0766662E-04   8.3947324E+04   -1.7441335E+00
   4.0954927E-04   8.3275533E+04   -1.7435578E+00
   4.1144061E-04   8.2609337E+04   -1.7429821E+00
   4.1334068E-04   8.1948688E+04   -1.7424065E+00
   4.1524953E-04   8.1293538E+04   -1.7418310E+00
   4.1716720E-04   8.0643839E+04   -1.7412556E+00
   4.1909372E-04   7.9999545E+04   -1.7406802E+00
   4.2102914E-04   7.9360609E+04   -1.7401050E+00
   4.2297350E-04   7.8726984E+04   -1.7395299E+00
   4.2492683E-04   7.8098625E+04   -1.7389549E+00
   4.2688919E-04   7.7475487E+04   -1.7383800E+00
   4.2886061E-04   7.6857524E+04   -1.7378052E+00
   4.3084113E-04   7.6244693E+04   -1.7372305E+00
   4.3283080E-04   7.5636948E+04   -1.7366560E+00
   4.3482966E-04   7.5034245E+04   -1.7360816E+00
   4.3683775E-04   7.4436543E+04   -1.7355074E+00
   4.3885511E-04   7.3843797E+04   -1.7349333E+00
   4.4088179E-04   7.3255964E+04   -1.7343594E+00
   4.4291783E-04   7.2673003E+04   -1.7337856E+00
   4.4496327E-04   7.2094872E+04   -1.7332120E+00
   4.4701816E-04   7.1521529E+04   -1.7326386E+00
   4.4908253E-04   7.0952933E+04   -1.7320654E+00
   4.5115644E-04   7.0389043E+04   -1.7314923E+00
   4.5323993E-04   6.9829820E+04   -1.7309195E+00
   4.5533304E-04   6.9275222E+04   -1.7303468E+00
   4.5743582E-04   6.8725209E+04   -1.7297744E+00
   4.5954830E-04   6.8179744E+04   -1.7292022E+00
   4.6167054E-04   6.7638786E+04   -1.7286302E+00
   4.6380259E-04   6.7102297E+04   -1.7280584E+00
   4.6594448E-04   6.6570238E+04   -1.7274868E+00
   4.6809626E-04   6.6042573E+04   -1.7269155E+00
   4.7025797E-04   6.5519262E+04   -1.7263444E+00
   4.7242967E-04   6.5000268E+04   -1.7257736E+00
   4.7461140E-04   6.4485556E+04   -1.7252030E+00
   4.7680321E-04   6.3975087E+04   -1.7246327E+00
   4.7900514E-04   6.3468826E+04   -1.7240626E+00
   4.8121723E-04   6.2966736E+04   -1.7234929E+00
   4.8343954E-04   6.2468783E+04   -1.7229233E+00
   4.8567212E-04   6.1974930E+04   -1.7223541E+00
   4.8791500E-04   6.1485142E+04   -1.7217852E+00
   4.9016825E-04   6.0999385E+04   -1.7212166E+00
   4.9243189E-04   6.0517624E+04   -1.7206482E+00
   4.9470600E-04   6.0039826E+04   -1.7200802E+00
   4.9699060E-04   5.9565955E+04   -1.7195125E+00
   4.9928575E-04   5.9095979E+04   -1.7189451E+00
   5.0159151E-04   5.8629864E+04   -1.7183780E+00
   5.0390791E-04   5.8167578E+04   -1.7178112E+00
   5.0623501E-04   5.7709087E+04   -1.7172448E+00
   5.0857286E-04   5.7254360E+04   -1.7166787E+00
   5.1092150E-04   5.6803364E+04   -1.7161130E+00
   5.1328099E-04   5.6356067E+04   -1.7155476E+00
   5.1565137E-04   5.5912438E+04   -1.7149826E+00
   5.1803270E-04   5.5472446E+04   -1.7144180E+00
   5.2042503E-04   5.5036059E+04   -1.7138537E+00
   5.2282841E-04   5.4603247E+04   -1.7132898E+00
   5.2524289E-04   5.4173980E+04   -1.7127262E+00
   5.2766851E-04   5.3748227E+04   -1.7121631E+00
   5.3010534E-04   5.3325958E+04   -1.7116003E+00
   5.3255342E-04   5.2907143E+04   -1.7110380E+00
   5.3501281E-04   5.2491754E+04   -1.7104760E+00
   5.3748356E-04   5.2079761E+04   -1.7099145E+00
   5.3996571E-04   5.1671136E+04   -1.7093533E+00
   5.4245933E-04   5.1265849E+04   -1.7087926E+00
   5.4496446E-04   5.0863872E+04   -1.7082323E+00
   5.4748117E-04   5.0465177E+04   -1.7076725E+00
   5.5000949E-04   5.0069737E+04   -1.7071130E+00
   5.5254949E-04   4.9677523E+04   -1.7065540E+00
   5.5510123E-04   4.9288509E+04   -1.7059955E+00
   5.5766474E-04   4.8902667E+04   -1.7054374E+00
   5.6024010E-04   4.8519969E+04   -1.7048798E+00
   5.6282734E-04   4.8140391E+04   -1.7043226E+00
   5.6542654E-04   4.7763904E+04   -1.7037659E+00
   5.6803774E-04   4.7390483E+04   -1.7032097E+00
   5.7066099E-04   4.7020102E+04   -1.7026539E+00
   5.7329637E-04   4.6652735E+04   -1.7020986E+00
   5.7594391E-04   4.6288357E+04   -1.7015439E+00
   5.7860368E-04   4.5926942E+04   -1.7009896E+00
   5.8127573E-04   4.5568466E+04   -1.7004358E+00
   5.8396012E-04   4.5212903E+04   -1.6998825E+00
   5.8665691E-04   4.4860228E+04   -1.6993297E+00
   5.8936616E-04   4.4510418E+04   -1.6987775E+00
   5.9208791E-04   4.4163447E+04   -1.6982257E+00
   5.9482223E-04   4.3819293E+04   -1.6976745E+00
   5.9756919E-04   4.3477931E+04   -1.6971238E+00
   6.0032882E-04   4.3139338E+04   -1.6965737E+00
   6.0310120E-04   4.2803490E+04   -1.6960241E+00
   6.0588639E-04   4.2470364E+04   -1.6954750E+00
   6.0868443E-04   4.2139937E+04   -1.6949265E+00
   6.1149540E-04   4.1812187E+04   -1.6943785E+00
   6.1431935E-04   4.1487091E+04   -1.6938311E+00
   6.1715634E-04   4.1164626E+04   -1.6932843E+00
   6.2000644E-04   4.0844770E+04   -1.6927380E+00
   6.2286969E-04   4.0527502E+04   -1.6921923E+00
