#        a       HoverH0(a)       dlogHdloga_of_a(a)
   1.0000000E-04   1.1346771E+06   -1.8763035E+00
   1.0046181E-04   1.1249112E+06   -1.8758740E+00
   1.0092575E-04   1.1152316E+06   -1.8754436E+00
   1.0139184E-04   1.1056374E+06   -1.8750121E+00
   1.0186008E-04   1.0961280E+06   -1.8745797E+00
   1.0233048E-04   1.0867025E+06   -1.8741463E+00
   1.0280305E-04   1.0773602E+06   -1.8737118E+00
   1.0327781E-04   1.0681004E+06   -1.8732764E+00
   1.0375475E-04   1.0589223E+06   -1.8728400E+00
   1.0423390E-04   1.0498251E+06   -1.8724026E+00
   1.0471527E-04   1.0408082E+06   -1.8719643E+00
   1.0519885E-04   1.0318709E+06   -1.8715249E+00
   1.0568467E-04   1.0230123E+06   -1.8710845E+00
   1.0617274E-04   1.0142319E+06   -1.8706432E+00
   1.0666305E-04   1.0055289E+06   -1.8702009E+00
   1.0715563E-04   9.9690260E+05   -1.8697576E+00
   1.0765049E-04   9.8835232E+05   -1.8693133E+00
   1.0814763E-04   9.7987739E+05   -1.8688680E+00
   1.0864707E-04   9.7147712E+05   -1.8684218E+00
   1.0914881E-04   9.6315085E+05   -1.8679746E+00
   1.0965287E-04   9.5489791E+05   -1.8675264E+00
   1.1015926E-04   9.4671764E+05   -1.8670773E+00
   1.1066799E-04   9.3860940E+05   -1.8666271E+00
   1.1117906E-04   9.3057253E+05   -1.8661760E+00
   1.1169250E-04   9.2260639E+05   -1.8657240E+00
   1.1220831E-04   9.1471036E+05   -1.8652710E+00
   1.1272650E-04   9.0688380E+05   -1.8648170E+00
   1.1324708E-04   8.9912609E+05   -1.8643620E+00
   1.1377007E-04   8.9143661E+05   -1.8639061E+00
   1.1429547E-04   8.8381475E+05   -1.8634492E+00
   1.1482330E-04   8.7625991E+05   -1.8629914E+00
   1.1535356E-04   8.6877148E+05   -1.8625326E+00
   1.1588628E-04   8.6134886E+05   -1.8620729E+00
   1.1642145E-04   8.5399148E+05   -1.8616122E+00
   1.1695910E-04   8.4669874E+05   -1.8611506E+00
   1.1749923E-04   8.3947006E+05   -1.8606880E+00
   1.1804185E-04   8.3230487E+05   -1.8602245E+00
   1.1858698E-04   8.2520261E+05   -1.8597600E+00
   1.1913463E-04   8.1816270E+05   -1.8592946E+00
   1.1968481E-04   8.1118459E+05   -1.8588283E+00
   1.2023752E-04   8.0426773E+05   -1.8583610E+00
   1.2079279E-04   7.9741157E+05   -1.8578928E+00
   1.2135063E-04   7.9061556E+05   -1.8574236E+00
   1.2191104E-04   7.8387916E+05   -1.8569535E+00
   1.2247403E-04   7.7720185E+05   -1.8564825E+00
   1.2303963E-04   7.7058310E+05   -1.8560106E+00
   1.2360784E-04   7.6402237E+05   -1.8555377E+00
   1.2417868E-04   7.5751915E+05   -1.8550640E+00
   1.2475215E-04   7.5107292E+05   -1.8545893E+00
   1.2532826E-04   7.4468318E+05   -1.8541137E+00
   1.2590704E-04   7.3834942E+05   -1.8536371E+00
   1.2648850E-04   7.3207114E+05   -1.8531597E+00
   1.2707263E-04   7.2584785E+05   -1.8526813E+00
   1.2765947E-04   7.1967904E+05   -1.8522021E+00
   1.2824901E-04   7.1356424E+05   -1.8517219E+00
   1.2884128E-04   7.0750297E+05   -1.8512409E+00
   1.2943628E-04   7.0149473E+05   -1.8507589E+00
   1.3003403E-04   6.9553907E+05   -1.8502761E+00
   1.3063454E-04   6.8963550E+05   -1.8497923E+00
   1.3123783E-04   6.8378356E+05   -1.8493077E+00
   1.3184390E-04   6.7798280E+05   -1.8488222E+00
   1.3245277E-04   6.7223276E+05   -1.8483358E+00
   1.3306445E-04   6.6653297E+05   -1.8478485E+00
   1.3367895E-04   6.6088300E+05   -1.8473603E+00
   1.3429630E-04   6.5528239E+05   -1.8468713E+00
   1.3491649E-04   6.4973071E+05   -1.8463814E+00
   1.3553955E-04   6.4422753E+05   -1.8458906E+00
   1.3616548E-04   6.3877240E+05   -1.8453989E+00
   1.3679431E-04   6.3336490E+05   -1.8449064E+00
   1.3742604E-04   6.2800460E+05   -1.8444130E+00
   1.3806069E-04   6.2269109E+05   -1.8439188E+00
   1.3869827E-04   6.1742394E+05   -1.8434236E+00
   1.3933879E-04   6.1220274E+05   -1.8429277E+00
   1.3998227E-04   6.0702708E+05   -1.8424309E+00
   1.4062872E-04   6.0189656E+05   -1.8419332E+00
   1.4127816E-04   5.9681076E+05   -1.8414347E+00
   1.4193060E-04   5.9176931E+05   -1.8409354E+00
   1.4258605E-04   5.8677178E+05   -1.8404352E+00
   1.4324453E-04   5.8181781E+05   -1.8399342E+00
   1.4390605E-04   5.7690699E+05   -1.8394324E+00
   1.4457062E-04   5.7203895E+05   -1.8389297E+00
   1.4523826E-04   5.6721330E+05   -1.8384262E+00
   1.4590899E-04   5.6242967E+05   -1.8379219E+00
   1.4658281E-04   5.5768767E+05   -1.8374167E+00
   1.4725974E-04   5.5298694E+05   -1.8369108E+00
   1.4793981E-04   5.4832712E+05   -1.8364040E+00
   1.4862301E-04   5.4370783E+05   -1.8358965E+00
   1.4930936E-04   5.3912872E+05   -1.8353881E+00
   1.4999889E-04   5.3458942E+05   -1.8348789E+00
   1.5069160E-04   5.3008959E+05   -1.8343689E+00
   1.5138751E-04   5.2562888E+05   -1.8338582E+00
   1.5208663E-04   5.2120692E+05   -1.8333466E+00
   1.5278899E-04   5.1682339E+05   -1.8328343E+00
   1.5349458E-04   5.1247794E+05   -1.8323212E+00
   1.5420343E-04   5.0817022E+05   -1.8318073E+00
   1.5491556E-04   5.0389991E+05   -1.8312926E+00
   1.5563098E-04   4.9966667E+05   -1.8307771E+00
   1.5634970E-04   4.9547017E+05   -1.8302609E+00
   1.5707174E-04   4.9131008E+05   -1.8297439E+00
   1.5779711E-04   4.8718608E+05   -1.8292262E+00
   1.5852584E-04   4.8309785E+05   -1.8287077E+00
   1.5925792E-04   4.7904508E+05   -1.8281884E+00
   1.5999339E-04   4.7502744E+05   -1.8276684E+00
   1.6073226E-04   4.7104462E+05   -1.8271477E+00
   1.6147454E-04   4.6709632E+05   -1.8266262E+00
   1.6222024E-04   4.6318223E+05   -1.8261040E+00
   1.6296939E-04   4.5930205E+05   -1.8255810E+00
   1.6372200E-04   4.5545546E+05   -1.8250573E+00
   1.6447809E-04   4.5164219E+05   -1.8245329E+00
   1.6523767E-04   4.4786192E+05   -1.8240078E+00
   1.6600075E-04   4.4411437E+05   -1.8234819E+00
   1.6676736E-04   4.4039924E+05   -1.8229553E+00
   1.6753751E-04   4.3671625E+05   -1.8224281E+00
   1.6831122E-04   4.3306512E+05   -1.8219001E+00
   1.6908849E-04   4.2944555E+05   -1.8213714E+00
   1.6986936E-04   4.2585728E+05   -1.8208420E+00
   1.7065384E-04   4.2230001E+05   -1.8203120E+00
   1.7144193E-04   4.1877349E+05   -1.8197812E+00
   1.7223367E-04   4.1527743E+05   -1.8192498E+00
   1.7302906E-04   4.1181157E+05   -1.8187177E+00
   1.7382813E-04   4.0837563E+05   -1.8181849E+00
   1.7463089E-04   4.0496936E+05   -1.8176514E+00
   1.7543735E-04   4.0159249E+05   -1.8171173E+00
   1.7624754E-04   3.9824475E+05   -1.8165825E+00
   1.7706147E-04   3.9492590E+05   -1.8160470E+00
   1.7787916E-04   3.9163567E+05   -1.8155109E+00
   1.7870062E-04   3.8837381E+05   -1.8149742E+00
   1.7952588E-04   3.8514008E+05   -1.8144368E+00
   1.8035495E-04   3.8193421E+05   -1.8138988E+00
   1.8118785E-04   3.7875597E+05   -1.8133601E+00
   1.8202459E-04   3.7560511E+05   -1.8128208E+00
   1.8286520E-04   3.7248139E+05   -1.8122809E+00
   1.8370969E-04   3.6938456E+05   -1.8117404E+00
   1.8455808E-04   3.6631440E+05   -1.8111992E+00
   1.8541039E-04   3.6327066E+05   -1.8106575E+00
   1.8626663E-04   3.6025311E+05   -1.8101151E+00
   1.8712683E-04   3.5726152E+05   -1.8095721E+00
   1.8799100E-04   3.5429566E+05   -1.8090286E+00
   1.8885917E-04   3.5135530E+05   -1.8084844E+00
   1.8973134E-04   3.4844022E+05   -1.8079396E+00
   1.9060754E-04   3.4555019E+05   -1.8073943E+00
   1.9148778E-04   3.4268499E+05   -1.8068484E+00
   1.9237209E-04   3.3984440E+05   -1.8063019E+00
   1.9326049E-04   3.3702821E+05   -1.8057549E+00
   1.9415299E-04   3.3423620E+05   -1.8052073E+00
   1.9504960E-04   3.3146816E+05   -1.8046591E+00
   1.9595036E-04   3.2872387E+05   -1.8041104E+00
   1.9685528E-04   3.2600313E+05   -1.8035611E+00
   1.9776438E-04   3.2330572E+05   -1.8030113E+00
   1.9867768E-04   3.2063145E+05   -1.8024610E+00
   1.9959519E-04   3.1798010E+05   -1.8019101E+00
   2.0051694E-04   3.1535148E+05   -1.8013587E+00
   2.0144295E-04   3.1274538E+05   -1.8008067E+00
   2.0237324E-04   3.1016161E+05   -1.8002543E+00
   2.0330782E-04   3.0759997E+05   -1.7997013E+00
   2.0424671E-04   3.0506026E+05   -1.7991478E+00
   2.0518995E-04   3.0254229E+05   -1.7985939E+00
   2.0613754E-04   3.0004587E+05   -1.7980394E+00
   2.0708950E-04   2.9757082E+05   -1.7974845E+00
   2.0804586E-04   2.9511693E+05   -1.7969290E+00
   2.0900664E-04   2.9268403E+05   -1.7963731E+00
   2.0997185E-04   2.9027193E+05   -1.7958167E+00
   2.1094152E-04   2.8788045E+05   -1.7952598E+00
   2.1191567E-04   2.8550940E+05   -1.7947025E+00
   2.1289432E-04   2.8315861E+05   -1.7941447E+00
   2.1387749E-04   2.8082789E+05   -1.7935864E+00
   2.1486520E-04   2.7851708E+05   -1.7930277E+00
   2.1585747E-04   2.7622599E+05   -1.7924686E+00
   2.1685432E-04   2.7395446E+05   -1.7919090E+00
   2.1785578E-04   2.7170230E+05   -1.7913490E+00
   2.1886186E-04   2.6946936E+05   -1.7907885E+00
   2.1987259E-04   2.6725546E+05   -1.7902277E+00
   2.2088798E-04   2.6506043E+05   -1.7896664E+00
   2.2190807E-04   2.6288411E+05   -1.7891047E+00
   2.2293286E-04   2.6072633E+05   -1.7885426E+00
   2.2396239E-04   2.5858694E+05   -1.7879801E+00
   2.2499667E-04   2.5646577E+05   -1.7874172E+00
   2.2603573E-04   2.5436265E+05   -1.7868540E+00
   2.2707958E-04   2.5227744E+05   -1.7862903E+00
   2.2812826E-04   2.5020997E+05   -1.7857263E+00
   2.2918178E-04   2.4816009E+05   -1.7851618E+00
   2.3024017E-04   2.4612764E+05   -1.7845971E+00
   2.3130344E-04   2.4411247E+05   -1.7840319E+00
   2.3237162E-04   2.4211444E+05   -1.7834664E+00
   2.3344474E-04   2.4013338E+05   -1.7829006E+00
   2.3452281E-04   2.3816916E+05   -1.7823344E+00
   2.3560586E-04   2.3622162E+05   -1.7817679E+00
   2.3669392E-04   2.3429061E+05   -1.7812010E+00
   2.3778699E-04   2.3237600E+05   -1.7806338E+00
   2.3888512E-04   2.3047763E+05   -1.7800663E+00
   2.3998831E-04   2.2859538E+05   -1.7794985E+00
   2.4109661E-04   2.2672908E+05   -1.7789304E+00
   2.4221001E-04   2.2487862E+05   -1.7783620E+00
   2.4332857E-04   2.2304384E+05   -1.7777932E+00
   2.4445228E-04   2.2122461E+05   -1.7772242E+00
   2.4558119E-04   2.1942079E+05   -1.7766549E+00
   2.4671531E-04   2.1763225E+05   -1.7760853E+00
   2.4785467E-04   2.1585886E+05   -1.7755155E+00
   2.4899928E-04   2.1410048E+05   -1.7749453E+00
   2.5014919E-04   2.1235698E+05   -1.7743749E+00
   2.5130440E-04   2.1062824E+05   -1.7738043E+00
   2.5246495E-04   2.0891411E+05   -1.7732334E+00
   2.5363086E-04   2.0721448E+05   -1.7726622E+00
   2.5480216E-04   2.0552922E+05   -1.7720909E+00
   2.5597886E-04   2.0385821E+05   -1.7715192E+00
   2.5716100E-04   2.0220131E+05   -1.7709474E+00
   2.5834859E-04   2.0055841E+05   -1.7703753E+00
   2.5954168E-04   1.9892937E+05   -1.7698031E+00
   2.6074027E-04   1.9731410E+05   -1.7692306E+00
   2.6194439E-04   1.9571245E+05   -1.7686579E+00
   2.6315408E-04   1.9412432E+05   -1.7680850E+00
   2.6436935E-04   1.9254958E+05   -1.7675119E+00
   2.6559024E-04   1.9098812E+05   -1.7669386E+00
   2.6681676E-04   1.8943983E+05   -1.7663652E+00
   2.6804895E-04   1.8790458E+05   -1.7657916E+00
   2.6928683E-04   1.8638227E+05   -1.7652178E+00
   2.7053042E-04   1.8487278E+05   -1.7646438E+00
   2.7177976E-04   1.8337600E+05   -1.7640697E+00
   2.7303487E-04   1.8189181E+05   -1.7634955E+00
   2.7429577E-04   1.8042012E+05   -1.7629211E+00
   2.7556250E-04   1.7896081E+05   -1.7623465E+00
   2.7683507E-04   1.7751377E+05   -1.7617719E+00
   2.7811353E-04   1.7607890E+05   -1.7611971E+00
   2.7939788E-04   1.7465610E+05   -1.7606222E+00
   2.8068817E-04   1.7324524E+05   -1.7600472E+00
   2.8198442E-04   1.7184624E+05   -1.7594720E+00
   2.8328665E-04   1.7045899E+05   -1.7588968E+00
   2.8459490E-04   1.6908338E+05   -1.7583215E+00
   2.8590919E-04   1.6771932E+05   -1.7577461E+00
   2.8722955E-04   1.6636671E+05   -1.7571706E+00
   2.8855600E-04   1.6502544E+05   -1.7565950E+00
   2.8988859E-04   1.6369542E+05   -1.7560193E+00
   2.9122732E-04   1.6237655E+05   -1.7554436E+00
   2.9257224E-04   1.6106873E+05   -1.7548679E+00
   2.9392337E-04   1.5977187E+05   -1.7542920E+00
   2.9528074E-04   1.5848588E+05   -1.7537162E+00
   2.9664438E-04   1.5721065E+05   -1.7531403E+00
   2.9801431E-04   1.5594609E+05   -1.7525643E+00
   2.9939057E-04   1.5469212E+05   -1.7519884E+00
   3.0077319E-04   1.5344864E+05   -1.7514124E+00
   3.0216219E-04   1.5221556E+05   -1.7508364E+00
   3.0355761E-04   1.5099278E+05   -1.7502604E+00
   3.0495947E-04   1.4978023E+05   -1.7496843E+00
   3.0636780E-04   1.4857781E+05   -1.7491083E+00
   3.0778264E-04   1.4738543E+05   -1.7485323E+00
   3.0920401E-04   1.4620301E+05   -1.7479563E+00
   3.1063195E-04   1.4503047E+05   -1.7473804E+00
   3.1206648E-04   1.4386770E+05   -1.7468044E+00
   3.1350764E-04   1.4271464E+05   -1.7462285E+00
   3.1495545E-04   1.4157120E+05   -1.7456526E+00
   3.1640994E-04   1.4043728E+05   -1.7450768E+00
   3.1787116E-04   1.3931283E+05   -1.7445011E+00
   3.1933912E-04   1.3819774E+05   -1.7439253E+00
   3.2081386E-04   1.3709194E+05   -1.7433497E+00
   3.2229541E-04   1.3599535E+05   -1.7427741E+00
   3.2378381E-04   1.3490788E+05   -1.7421986E+00
   3.2527908E-04   1.3382947E+05   -1.7416232E+00
   3.2678125E-04   1.3276003E+05   -1.7410478E+00
   3.2829036E-04   1.3169949E+05   -1.7404726E+00
   3.2980644E-04   1.3064776E+05   -1.7398975E+00
   3.3132952E-04   1.2960478E+05   -1.7393224E+00
   3.3285963E-04   1.2857046E+05   -1.7387475E+00
   3.3439681E-04   1.2754474E+05   -1.7381727E+00
   3.3594109E-04   1.2652753E+05   -1.7375980E+00
   3.3749250E-04   1.2551877E+05   -1.7370235E+00
   3.3905108E-04   1.2451838E+05   -1.7364491E+00
   3.4061685E-04   1.2352629E+05   -1.7358748E+00
   3.4218986E-04   1.2254243E+05   -1.7353007E+00
   3.4377013E-04   1.2156673E+05   -1.7347267E+00
   3.4535769E-04   1.2059911E+05   -1.7341529E+00
   3.4695259E-04   1.1963952E+05   -1.7335793E+00
   3.4855485E-04   1.1868787E+05   -1.7330058E+00
   3.5016452E-04   1.1774410E+05   -1.7324325E+00
   3.5178161E-04   1.1680815E+05   -1.7318594E+00
   3.5340618E-04   1.1587994E+05   -1.7312865E+00
   3.5503824E-04   1.1495941E+05   -1.7307138E+00
   3.5667785E-04   1.1404649E+05   -1.7301413E+00
   3.5832502E-04   1.1314113E+05   -1.7295690E+00
   3.5997981E-04   1.1224324E+05   -1.7289969E+00
   3.6164223E-04   1.1135278E+05   -1.7284251E+00
   3.6331233E-04   1.1046967E+05   -1.7278534E+00
   3.6499015E-04   1.0959385E+05   -1.7272820E+00
   3.6667571E-04   1.0872526E+05   -1.7267109E+00
   3.6836906E-04   1.0786384E+05   -1.7261399E+00
   3.7007022E-04   1.0700953E+05   -1.7255693E+00
   3.7177925E-04   1.0616226E+05   -1.7249988E+00
   3.7349616E-04   1.0532198E+05   -1.7244287E+00
   3.7522101E-04   1.0448862E+05   -1.7238588E+00
   3.7695382E-04   1.0366213E+05   -1.7232892E+00
   3.7869463E-04   1.0284244E+05   -1.7227199E+00
   3.8044348E-04   1.0202951E+05   -1.7221508E+00
   3.8220041E-04   1.0122326E+05   -1.7215821E+00
   3.8396545E-04   1.0042365E+05   -1.7210136E+00
   3.8573864E-04   9.9630620E+04   -1.7204454E+00
   3.8752002E-04   9.8844108E+04   -1.7198776E+00
   3.8930963E-04   9.8064062E+04   -1.7193101E+00
   3.9110750E-04   9.7290426E+04   -1.7187429E+00
   3.9291368E-04   9.6523146E+04   -1.7181760E+00
   3.9472820E-04   9.5762167E+04   -1.7176094E+00
   3.9655109E-04   9.5007435E+04   -1.7170432E+00
   3.9838241E-04   9.4258897E+04   -1.7164773E+00
   4.0022218E-04   9.3516501E+04   -1.7159118E+00
   4.0207045E-04   9.2780193E+04   -1.7153466E+00
   4.0392725E-04   9.2049923E+04   -1.7147818E+00
   4.0579263E-04   9.1325638E+04   -1.7142174E+00
   4.0766662E-04   9.0607288E+04   -1.7136533E+00
   4.0954927E-04   8.9894821E+04   -1.7130896E+00
   4.1144061E-04   8.9188189E+04   -1.7125263E+00
   4.1334068E-04   8.8487340E+04   -1.7119633E+00
   4.1524953E-04   8.7792227E+04   -1.7114008E+00
   4.1716720E-04   8.7102800E+04   -1.7108387E+00
   4.1909372E-04   8.6419010E+04   -1.7102769E+00
   4.2102914E-04   8.5740810E+04   -1.7097156E+00
   4.2297350E-04   8.5068153E+04   -1.7091547E+00
   4.2492683E-04   8.4400990E+04   -1.7085942E+00
   4.2688919E-04   8.3739277E+04   -1.7080342E+00
   4.2886061E-04   8.3082965E+04   -1.7074746E+00
   4.3084113E-04   8.2432010E+04   -1.7069154E+00
   4.3283080E-04   8.1786366E+04   -1.7063566E+00
   4.3482966E-04   8.1145988E+04   -1.7057983E+00
   4.3683775E-04   8.0510830E+04   -1.7052405E+00
   4.3885511E-04   7.9880850E+04   -1.7046831E+00
   4.4088179E-04   7.9256002E+04   -1.7041262E+00
   4.4291783E-04   7.8636244E+04   -1.7035697E+00
   4.4496327E-04   7.8021532E+04   -1.7030138E+00
   4.4701816E-04   7.7411824E+04   -1.7024583E+00
   4.4908253E-04   7.6807076E+04   -1.7019033E+00
   4.5115644E-04   7.6207248E+04   -1.7013488E+00
   4.5323993E-04   7.5612297E+04   -1.7007947E+00
   4.5533304E-04   7.5022183E+04   -1.7002412E+00
   4.5743582E-04   7.4436864E+04   -1.6996882E+00
   4.5954830E-04   7.3856299E+04   -1.6991357E+00
   4.6167054E-04   7.3280450E+04   -1.6985837E+00
   4.6380259E-04   7.2709274E+04   -1.6980323E+00
   4.6594448E-04   7.2142734E+04   -1.6974813E+00
   4.6809626E-04   7.1580790E+04   -1.6969309E+00
   4.7025797E-04   7.1023403E+04   -1.6963810E+00
   4.7242967E-04   7.0470535E+04   -1.6958317E+00
   4.7461140E-04   6.9922147E+04   -1.6952829E+00
   4.7680321E-04   6.9378202E+04   -1.6947347E+00
   4.7900514E-04   6.8838663E+04   -1.6941870E+00
   4.8121723E-04   6.8303491E+04   -1.6936399E+00
   4.8343954E-04   6.7772652E+04   -1.6930934E+00
   4.8567212E-04   6.7246106E+04   -1.6925474E+00
   4.8791500E-04   6.6723820E+04   -1.6920020E+00
   4.9016825E-04   6.6205756E+04   -1.6914572E+00
   4.9243189E-04   6.5691880E+04   -1.6909130E+00
   4.9470600E-04   6.5182155E+04   -1.6903694E+00
   4.9699060E-04   6.4676547E+04   -1.6898263E+00
   4.9928575E-04   6.4175022E+04   -1.6892839E+00
   5.0159151E-04   6.3677545E+04   -1.6887421E+00
   5.0390791E-04   6.3184082E+04   -1.6882009E+00
   5.0623501E-04   6.2694599E+04   -1.6876603E+00
   5.0857286E-04   6.2209063E+04   -1.6871203E+00
   5.1092150E-04   6.1727441E+04   -1.6865809E+00
   5.1328099E-04   6.1249699E+04   -1.6860422E+00
   5.1565137E-04   6.0775806E+04   -1.6855041E+00
   5.1803270E-04   6.0305729E+04   -1.6849666E+00
   5.2042503E-04   5.9839436E+04   -1.6844298E+00
   5.2282841E-04   5.9376895E+04   -1.6838937E+00
   5.2524289E-04   5.8918075E+04   -1.6833581E+00
   5.2766851E-04   5.8462944E+04   -1.6828233E+00
   5.3010534E-04   5.8011472E+04   -1.6822891E+00
   5.3255342E-04   5.7563628E+04   -1.6817555E+00
   5.3501281E-04   5.7119382E+04   -1.6812227E+00
   5.3748356E-04   5.6678703E+04   -1.6806905E+00
   5.3996571E-04   5.6241562E+04   -1.6801590E+00
   5.4245933E-04   5.5807929E+04   -1.6796281E+00
   5.4496446E-04   5.5377774E+04   -1.6790980E+00
   5.4748117E-04   5.4951070E+04   -1.6785685E+00
   5.5000949E-04   5.4527786E+04   -1.6780398E+00
   5.5254949E-04   5.4107895E+04   -1.6775117E+00
   5.5510123E-04   5.3691367E+04   -1.6769844E+00
   5.5766474E-04   5.3278175E+04   -1.6764577E+00
   5.6024010E-04   5.2868291E+04   -1.6759318E+00
   5.6282734E-04   5.2461688E+04   -1.6754066E+00
   5.6542654E-04   5.2058338E+04   -1.6748821E+00
   5.6803774E-04   5.1658213E+04   -1.6743583E+00
   5.7066099E-04   5.1261288E+04   -1.6738353E+00
   5.7329637E-04   5.0867535E+04   -1.6733129E+00
   5.7594391E-04   5.0476927E+04   -1.6727914E+00
   5.7860368E-04   5.0089440E+04   -1.6722705E+00
   5.8127573E-04   4.9705046E+04   -1.6717504E+00
   5.8396012E-04   4.9323721E+04   -1.6712311E+00
   5.8665691E-04   4.8945437E+04   -1.6707125E+00
   5.8936616E-04   4.8570171E+04   -1.6701947E+00
   5.9208791E-04   4.8197897E+04   -1.6696776E+00
   5.9482223E-04   4.7828591E+04   -1.6691613E+00
   5.9756919E-04   4.7462227E+04   -1.6686457E+00
   6.0032882E-04   4.7098780E+04   -1.6681310E+00
   6.0310120E-04   4.6738228E+04   -1.6676170E+00
   6.0588639E-04   4.6380546E+04   -1.6671038E+00
   6.0868443E-04   4.6025710E+04   -1.6665913E+00
   6.1149540E-04   4.5673696E+04   -1.6660797E+00
   6.1431935E-04   4.5324481E+04   -1.6655688E+00
   6.1715634E-04   4.4978042E+04   -1.6650587E+00
   6.2000644E-04   4.4634356E+04   -1.6645495E+00
   6.2286969E-04   4.4293400E+04   -1.6640410E+00
