#        a       HoverH0(a)       dlogHdloga_of_a(a)
   1.0000000E-04   1.1285137E+06   -1.8868535E+00
   1.0046181E-04   1.1187464E+06   -1.8864496E+00
   1.0092575E-04   1.1090657E+06   -1.8860447E+00
   1.0139184E-04   1.0994708E+06   -1.8856388E+00
   1.0186008E-04   1.0899609E+06   -1.8852319E+00
   1.0233048E-04   1.0805354E+06   -1.8848240E+00
   1.0280305E-04   1.0711933E+06   -1.8844150E+00
   1.0327781E-04   1.0619341E+06   -1.8840050E+00
   1.0375475E-04   1.0527569E+06   -1.8835941E+00
   1.0423390E-04   1.0436609E+06   -1.8831821E+00
   1.0471527E-04   1.0346455E+06   -1.8827691E+00
   1.0519885E-04   1.0257100E+06   -1.8823550E+00
   1.0568467E-04   1.0168535E+06   -1.8819400E+00
   1.0617274E-04   1.0080755E+06   -1.8815240E+00
   1.0666305E-04   9.9937512E+05   -1.8811069E+00
   1.0715563E-04   9.9075177E+05   -1.8806889E+00
   1.0765049E-04   9.8220472E+05   -1.8802698E+00
   1.0814763E-04   9.7373329E+05   -1.8798497E+00
   1.0864707E-04   9.6533679E+05   -1.8794286E+00
   1.0914881E-04   9.5701455E+05   -1.8790066E+00
   1.0965287E-04   9.4876591E+05   -1.8785835E+00
   1.1015926E-04   9.4059020E+05   -1.8781594E+00
   1.1066799E-04   9.3248677E+05   -1.8777343E+00
   1.1117906E-04   9.2445496E+05   -1.8773082E+00
   1.1169250E-04   9.1649413E+05   -1.8768811E+00
   1.1220831E-04   9.0860365E+05   -1.8764530E+00
   1.1272650E-04   9.0078288E+05   -1.8760239E+00
   1.1324708E-04   8.9303119E+05   -1.8755938E+00
   1.1377007E-04   8.8534797E+05   -1.8751627E+00
   1.1429547E-04   8.7773259E+05   -1.8747306E+00
   1.1482330E-04   8.7018446E+05   -1.8742975E+00
   1.1535356E-04   8.6270296E+05   -1.8738634E+00
   1.1588628E-04   8.5528749E+05   -1.8734283E+00
   1.1642145E-04   8.4793747E+05   -1.8729923E+00
   1.1695910E-04   8.4065230E+05   -1.8725552E+00
   1.1749923E-04   8.3343140E+05   -1.8721172E+00
   1.1804185E-04   8.2627420E+05   -1.8716782E+00
   1.1858698E-04   8.1918011E+05   -1.8712381E+00
   1.1913463E-04   8.1214859E+05   -1.8707972E+00
   1.1968481E-04   8.0517905E+05   -1.8703552E+00
   1.2023752E-04   7.9827096E+05   -1.8699122E+00
   1.2079279E-04   7.9142375E+05   -1.8694683E+00
   1.2135063E-04   7.8463688E+05   -1.8690233E+00
   1.2191104E-04   7.7790981E+05   -1.8685774E+00
   1.2247403E-04   7.7124200E+05   -1.8681306E+00
   1.2303963E-04   7.6463291E+05   -1.8676827E+00
   1.2360784E-04   7.5808203E+05   -1.8672339E+00
   1.2417868E-04   7.5158883E+05   -1.8667841E+00
   1.2475215E-04   7.4515279E+05   -1.8663334E+00
   1.2532826E-04   7.3877340E+05   -1.8658816E+00
   1.2590704E-04   7.3245015E+05   -1.8654289E+00
   1.2648850E-04   7.2618254E+05   -1.8649753E+00
   1.2707263E-04   7.1997006E+05   -1.8645207E+00
   1.2765947E-04   7.1381224E+05   -1.8640651E+00
   1.2824901E-04   7.0770856E+05   -1.8636085E+00
   1.2884128E-04   7.0165856E+05   -1.8631510E+00
   1.2943628E-04   6.9566174E+05   -1.8626926E+00
   1.3003403E-04   6.8971764E+05   -1.8622332E+00
   1.3063454E-04   6.8382577E+05   -1.8617728E+00
   1.3123783E-04   6.7798567E+05   -1.8613115E+00
   1.3184390E-04   6.7219688E+05   -1.8608493E+00
   1.3245277E-04   6.6645894E+05   -1.8603861E+00
   1.3306445E-04   6.6077138E+05   -1.8599219E+00
   1.3367895E-04   6.5513377E+05   -1.8594568E+00
   1.3429630E-04   6.4954565E+05   -1.8589908E+00
   1.3491649E-04   6.4400658E+05   -1.8585238E+00
   1.3553955E-04   6.3851612E+05   -1.8580559E+00
   1.3616548E-04   6.3307383E+05   -1.8575871E+00
   1.3679431E-04   6.2767929E+05   -1.8571174E+00
   1.3742604E-04   6.2233207E+05   -1.8566467E+00
   1.3806069E-04   6.1703173E+05   -1.8561750E+00
   1.3869827E-04   6.1177787E+05   -1.8557025E+00
   1.3933879E-04   6.0657007E+05   -1.8552290E+00
   1.3998227E-04   6.0140791E+05   -1.8547547E+00
   1.4062872E-04   5.9629099E+05   -1.8542794E+00
   1.4127816E-04   5.9121890E+05   -1.8538032E+00
   1.4193060E-04   5.8619124E+05   -1.8533260E+00
   1.4258605E-04   5.8120762E+05   -1.8528480E+00
   1.4324453E-04   5.7626763E+05   -1.8523691E+00
   1.4390605E-04   5.7137089E+05   -1.8518892E+00
   1.4457062E-04   5.6651702E+05   -1.8514085E+00
   1.4523826E-04   5.6170563E+05   -1.8509268E+00
   1.4590899E-04   5.5693634E+05   -1.8504443E+00
   1.4658281E-04   5.5220877E+05   -1.8499608E+00
   1.4725974E-04   5.4752255E+05   -1.8494765E+00
   1.4793981E-04   5.4287731E+05   -1.8489913E+00
   1.4862301E-04   5.3827269E+05   -1.8485052E+00
   1.4930936E-04   5.3370832E+05   -1.8480182E+00
   1.4999889E-04   5.2918384E+05   -1.8475303E+00
   1.5069160E-04   5.2469890E+05   -1.8470416E+00
   1.5138751E-04   5.2025314E+05   -1.8465520E+00
   1.5208663E-04   5.1584622E+05   -1.8460615E+00
   1.5278899E-04   5.1147778E+05   -1.8455701E+00
   1.5349458E-04   5.0714749E+05   -1.8450779E+00
   1.5420343E-04   5.0285500E+05   -1.8445848E+00
   1.5491556E-04   4.9859997E+05   -1.8440908E+00
   1.5563098E-04   4.9438208E+05   -1.8435960E+00
   1.5634970E-04   4.9020099E+05   -1.8431004E+00
   1.5707174E-04   4.8605636E+05   -1.8426038E+00
   1.5779711E-04   4.8194788E+05   -1.8421065E+00
   1.5852584E-04   4.7787523E+05   -1.8416083E+00
   1.5925792E-04   4.7383808E+05   -1.8411092E+00
   1.5999339E-04   4.6983612E+05   -1.8406093E+00
   1.6073226E-04   4.6586903E+05   -1.8401086E+00
   1.6147454E-04   4.6193650E+05   -1.8396070E+00
   1.6222024E-04   4.5803823E+05   -1.8391046E+00
   1.6296939E-04   4.5417391E+05   -1.8386014E+00
   1.6372200E-04   4.5034324E+05   -1.8380974E+00
   1.6447809E-04   4.4654591E+05   -1.8375925E+00
   1.6523767E-04   4.4278164E+05   -1.8370869E+00
   1.6600075E-04   4.3905012E+05   -1.8365804E+00
   1.6676736E-04   4.3535106E+05   -1.8360731E+00
   1.6753751E-04   4.3168418E+05   -1.8355650E+00
   1.6831122E-04   4.2804918E+05   -1.8350561E+00
   1.6908849E-04   4.2444580E+05   -1.8345464E+00
   1.6986936E-04   4.2087373E+05   -1.8340359E+00
   1.7065384E-04   4.1733271E+05   -1.8335246E+00
   1.7144193E-04   4.1382245E+05   -1.8330125E+00
   1.7223367E-04   4.1034269E+05   -1.8324996E+00
   1.7302906E-04   4.0689316E+05   -1.8319860E+00
   1.7382813E-04   4.0347357E+05   -1.8314716E+00
   1.7463089E-04   4.0008368E+05   -1.8309564E+00
   1.7543735E-04   3.9672321E+05   -1.8304404E+00
   1.7624754E-04   3.9339190E+05   -1.8299237E+00
   1.7706147E-04   3.9008949E+05   -1.8294062E+00
   1.7787916E-04   3.8681573E+05   -1.8288880E+00
   1.7870062E-04   3.8357036E+05   -1.8283690E+00
   1.7952588E-04   3.8035313E+05   -1.8278492E+00
   1.8035495E-04   3.7716379E+05   -1.8273287E+00
   1.8118785E-04   3.7400208E+05   -1.8268075E+00
   1.8202459E-04   3.7086778E+05   -1.8262855E+00
   1.8286520E-04   3.6776062E+05   -1.8257628E+00
   1.8370969E-04   3.6468038E+05   -1.8252393E+00
   1.8455808E-04   3.6162681E+05   -1.8247152E+00
   1.8541039E-04   3.5859967E+05   -1.8241903E+00
   1.8626663E-04   3.5559874E+05   -1.8236647E+00
   1.8712683E-04   3.5262377E+05   -1.8231383E+00
   1.8799100E-04   3.4967454E+05   -1.8226113E+00
   1.8885917E-04   3.4675081E+05   -1.8220836E+00
   1.8973134E-04   3.4385237E+05   -1.8215551E+00
   1.9060754E-04   3.4097899E+05   -1.8210260E+00
   1.9148778E-04   3.3813045E+05   -1.8204961E+00
   1.9237209E-04   3.3530652E+05   -1.8199656E+00
   1.9326049E-04   3.3250699E+05   -1.8194344E+00
   1.9415299E-04   3.2973164E+05   -1.8189025E+00
   1.9504960E-04   3.2698025E+05   -1.8183700E+00
   1.9595036E-04   3.2425262E+05   -1.8178367E+00
   1.9685528E-04   3.2154854E+05   -1.8173028E+00
   1.9776438E-04   3.1886779E+05   -1.8167682E+00
   1.9867768E-04   3.1621017E+05   -1.8162330E+00
   1.9959519E-04   3.1357548E+05   -1.8156971E+00
   2.0051694E-04   3.1096350E+05   -1.8151606E+00
   2.0144295E-04   3.0837404E+05   -1.8146234E+00
   2.0237324E-04   3.0580691E+05   -1.8140856E+00
   2.0330782E-04   3.0326189E+05   -1.8135472E+00
   2.0424671E-04   3.0073881E+05   -1.8130081E+00
   2.0518995E-04   2.9823745E+05   -1.8124684E+00
   2.0613754E-04   2.9575764E+05   -1.8119280E+00
   2.0708950E-04   2.9329918E+05   -1.8113871E+00
   2.0804586E-04   2.9086188E+05   -1.8108455E+00
   2.0900664E-04   2.8844555E+05   -1.8103033E+00
   2.0997185E-04   2.8605001E+05   -1.8097606E+00
   2.1094152E-04   2.8367507E+05   -1.8092172E+00
   2.1191567E-04   2.8132056E+05   -1.8086732E+00
   2.1289432E-04   2.7898629E+05   -1.8081287E+00
   2.1387749E-04   2.7667209E+05   -1.8075835E+00
   2.1486520E-04   2.7437777E+05   -1.8070378E+00
   2.1585747E-04   2.7210316E+05   -1.8064915E+00
   2.1685432E-04   2.6984808E+05   -1.8059447E+00
   2.1785578E-04   2.6761237E+05   -1.8053972E+00
   2.1886186E-04   2.6539585E+05   -1.8048493E+00
   2.1987259E-04   2.6319836E+05   -1.8043007E+00
   2.2088798E-04   2.6101972E+05   -1.8037516E+00
   2.2190807E-04   2.5885977E+05   -1.8032020E+00
   2.2293286E-04   2.5671835E+05   -1.8026518E+00
   2.2396239E-04   2.5459528E+05   -1.8021011E+00
   2.2499667E-04   2.5249041E+05   -1.8015499E+00
   2.2603573E-04   2.5040359E+05   -1.8009981E+00
   2.2707958E-04   2.4833464E+05   -1.8004458E+00
   2.2812826E-04   2.4628341E+05   -1.7998930E+00
   2.2918178E-04   2.4424975E+05   -1.7993397E+00
   2.3024017E-04   2.4223350E+05   -1.7987859E+00
   2.3130344E-04   2.4023450E+05   -1.7982316E+00
   2.3237162E-04   2.3825261E+05   -1.7976768E+00
   2.3344474E-04   2.3628768E+05   -1.7971215E+00
   2.3452281E-04   2.3433955E+05   -1.7965657E+00
   2.3560586E-04   2.3240808E+05   -1.7960095E+00
   2.3669392E-04   2.3049312E+05   -1.7954528E+00
   2.3778699E-04   2.2859452E+05   -1.7948956E+00
   2.3888512E-04   2.2671215E+05   -1.7943379E+00
   2.3998831E-04   2.2484585E+05   -1.7937798E+00
   2.4109661E-04   2.2299549E+05   -1.7932213E+00
   2.4221001E-04   2.2116093E+05   -1.7926623E+00
   2.4332857E-04   2.1934202E+05   -1.7921028E+00
   2.4445228E-04   2.1753864E+05   -1.7915429E+00
   2.4558119E-04   2.1575064E+05   -1.7909826E+00
   2.4671531E-04   2.1397789E+05   -1.7904219E+00
   2.4785467E-04   2.1222025E+05   -1.7898608E+00
   2.4899928E-04   2.1047759E+05   -1.7892992E+00
   2.5014919E-04   2.0874979E+05   -1.7887372E+00
   2.5130440E-04   2.0703670E+05   -1.7881749E+00
   2.5246495E-04   2.0533821E+05   -1.7876121E+00
   2.5363086E-04   2.0365417E+05   -1.7870489E+00
   2.5480216E-04   2.0198448E+05   -1.7864854E+00
   2.5597886E-04   2.0032899E+05   -1.7859215E+00
   2.5716100E-04   1.9868759E+05   -1.7853572E+00
   2.5834859E-04   1.9706015E+05   -1.7847925E+00
   2.5954168E-04   1.9544654E+05   -1.7842275E+00
   2.6074027E-04   1.9384666E+05   -1.7836621E+00
   2.6194439E-04   1.9226037E+05   -1.7830964E+00
   2.6315408E-04   1.9068756E+05   -1.7825303E+00
   2.6436935E-04   1.8912811E+05   -1.7819638E+00
   2.6559024E-04   1.8758191E+05   -1.7813971E+00
   2.6681676E-04   1.8604883E+05   -1.7808300E+00
   2.6804895E-04   1.8452876E+05   -1.7802626E+00
   2.6928683E-04   1.8302159E+05   -1.7796949E+00
   2.7053042E-04   1.8152721E+05   -1.7791268E+00
   2.7177976E-04   1.8004549E+05   -1.7785585E+00
   2.7303487E-04   1.7857635E+05   -1.7779899E+00
   2.7429577E-04   1.7711965E+05   -1.7774209E+00
   2.7556250E-04   1.7567529E+05   -1.7768517E+00
   2.7683507E-04   1.7424318E+05   -1.7762822E+00
   2.7811353E-04   1.7282319E+05   -1.7757124E+00
   2.7939788E-04   1.7141522E+05   -1.7751424E+00
   2.8068817E-04   1.7001917E+05   -1.7745720E+00
   2.8198442E-04   1.6863493E+05   -1.7740015E+00
   2.8328665E-04   1.6726240E+05   -1.7734306E+00
   2.8459490E-04   1.6590148E+05   -1.7728596E+00
   2.8590919E-04   1.6455207E+05   -1.7722882E+00
   2.8722955E-04   1.6321406E+05   -1.7717167E+00
   2.8855600E-04   1.6188736E+05   -1.7711449E+00
   2.8988859E-04   1.6057186E+05   -1.7705729E+00
   2.9122732E-04   1.5926748E+05   -1.7700007E+00
   2.9257224E-04   1.5797410E+05   -1.7694282E+00
   2.9392337E-04   1.5669165E+05   -1.7688556E+00
   2.9528074E-04   1.5542001E+05   -1.7682828E+00
   2.9664438E-04   1.5415910E+05   -1.7677097E+00
   2.9801431E-04   1.5290883E+05   -1.7671365E+00
   2.9939057E-04   1.5166910E+05   -1.7665631E+00
   3.0077319E-04   1.5043981E+05   -1.7659895E+00
   3.0216219E-04   1.4922088E+05   -1.7654158E+00
   3.0355761E-04   1.4801222E+05   -1.7648419E+00
   3.0495947E-04   1.4681374E+05   -1.7642678E+00
   3.0636780E-04   1.4562535E+05   -1.7636936E+00
   3.0778264E-04   1.4444696E+05   -1.7631192E+00
   3.0920401E-04   1.4327848E+05   -1.7625447E+00
   3.1063195E-04   1.4211984E+05   -1.7619701E+00
   3.1206648E-04   1.4097093E+05   -1.7613953E+00
   3.1350764E-04   1.3983168E+05   -1.7608204E+00
   3.1495545E-04   1.3870201E+05   -1.7602454E+00
   3.1640994E-04   1.3758183E+05   -1.7596703E+00
   3.1787116E-04   1.3647106E+05   -1.7590951E+00
   3.1933912E-04   1.3536961E+05   -1.7585198E+00
   3.2081386E-04   1.3427741E+05   -1.7579443E+00
   3.2229541E-04   1.3319438E+05   -1.7573689E+00
   3.2378381E-04   1.3212043E+05   -1.7567933E+00
   3.2527908E-04   1.3105549E+05   -1.7562176E+00
   3.2678125E-04   1.2999947E+05   -1.7556419E+00
   3.2829036E-04   1.2895231E+05   -1.7550662E+00
   3.2980644E-04   1.2791392E+05   -1.7544904E+00
   3.3132952E-04   1.2688423E+05   -1.7539145E+00
   3.3285963E-04   1.2586316E+05   -1.7533386E+00
   3.3439681E-04   1.2485064E+05   -1.7527626E+00
   3.3594109E-04   1.2384660E+05   -1.7521866E+00
   3.3749250E-04   1.2285095E+05   -1.7516106E+00
   3.3905108E-04   1.2186364E+05   -1.7510346E+00
   3.4061685E-04   1.2088458E+05   -1.7504586E+00
   3.4218986E-04   1.1991370E+05   -1.7498825E+00
   3.4377013E-04   1.1895094E+05   -1.7493065E+00
   3.4535769E-04   1.1799622E+05   -1.7487305E+00
   3.4695259E-04   1.1704947E+05   -1.7481545E+00
   3.4855485E-04   1.1611062E+05   -1.7475785E+00
   3.5016452E-04   1.1517962E+05   -1.7470025E+00
   3.5178161E-04   1.1425638E+05   -1.7464265E+00
   3.5340618E-04   1.1334084E+05   -1.7458506E+00
   3.5503824E-04   1.1243294E+05   -1.7452748E+00
   3.5667785E-04   1.1153260E+05   -1.7446990E+00
   3.5832502E-04   1.1063977E+05   -1.7441232E+00
   3.5997981E-04   1.0975438E+05   -1.7435475E+00
   3.6164223E-04   1.0887636E+05   -1.7429719E+00
   3.6331233E-04   1.0800565E+05   -1.7423963E+00
   3.6499015E-04   1.0714219E+05   -1.7418208E+00
   3.6667571E-04   1.0628591E+05   -1.7412455E+00
   3.6836906E-04   1.0543676E+05   -1.7406702E+00
   3.7007022E-04   1.0459467E+05   -1.7400950E+00
   3.7177925E-04   1.0375958E+05   -1.7395199E+00
   3.7349616E-04   1.0293143E+05   -1.7389449E+00
   3.7522101E-04   1.0211015E+05   -1.7383700E+00
   3.7695382E-04   1.0129570E+05   -1.7377953E+00
   3.7869463E-04   1.0048802E+05   -1.7372206E+00
   3.8044348E-04   9.9687033E+04   -1.7366462E+00
   3.8220041E-04   9.8892696E+04   -1.7360718E+00
   3.8396545E-04   9.8104948E+04   -1.7354976E+00
   3.8573864E-04   9.7323732E+04   -1.7349236E+00
   3.8752002E-04   9.6548992E+04   -1.7343497E+00
   3.8930963E-04   9.5780673E+04   -1.7337760E+00
   3.9110750E-04   9.5018719E+04   -1.7332024E+00
   3.9291368E-04   9.4263076E+04   -1.7326291E+00
   3.9472820E-04   9.3513689E+04   -1.7320559E+00
   3.9655109E-04   9.2770504E+04   -1.7314829E+00
   3.9838241E-04   9.2033469E+04   -1.7309101E+00
   4.0022218E-04   9.1302530E+04   -1.7303375E+00
   4.0207045E-04   9.0577635E+04   -1.7297651E+00
   4.0392725E-04   8.9858733E+04   -1.7291929E+00
   4.0579263E-04   8.9145772E+04   -1.7286209E+00
   4.0766662E-04   8.8438700E+04   -1.7280492E+00
   4.0954927E-04   8.7737467E+04   -1.7274776E+00
   4.1144061E-04   8.7042024E+04   -1.7269064E+00
   4.1334068E-04   8.6352321E+04   -1.7263353E+00
   4.1524953E-04   8.5668307E+04   -1.7257645E+00
   4.1716720E-04   8.4989936E+04   -1.7251940E+00
   4.1909372E-04   8.4317158E+04   -1.7246237E+00
   4.2102914E-04   8.3649925E+04   -1.7240537E+00
   4.2297350E-04   8.2988190E+04   -1.7234840E+00
   4.2492683E-04   8.2331906E+04   -1.7229145E+00
   4.2688919E-04   8.1681026E+04   -1.7223454E+00
   4.2886061E-04   8.1035505E+04   -1.7217765E+00
   4.3084113E-04   8.0395296E+04   -1.7212079E+00
   4.3283080E-04   7.9760353E+04   -1.7206396E+00
   4.3482966E-04   7.9130632E+04   -1.7200716E+00
   4.3683775E-04   7.8506088E+04   -1.7195039E+00
   4.3885511E-04   7.7886678E+04   -1.7189366E+00
   4.4088179E-04   7.7272356E+04   -1.7183696E+00
   4.4291783E-04   7.6663080E+04   -1.7178029E+00
   4.4496327E-04   7.6058806E+04   -1.7172365E+00
   4.4701816E-04   7.5459492E+04   -1.7166705E+00
   4.4908253E-04   7.4865096E+04   -1.7161048E+00
   4.5115644E-04   7.4275575E+04   -1.7155395E+00
   4.5323993E-04   7.3690889E+04   -1.7149745E+00
   4.5533304E-04   7.3110995E+04   -1.7144099E+00
   4.5743582E-04   7.2535854E+04   -1.7138456E+00
   4.5954830E-04   7.1965423E+04   -1.7132818E+00
   4.6167054E-04   7.1399664E+04   -1.7127183E+00
   4.6380259E-04   7.0838537E+04   -1.7121552E+00
   4.6594448E-04   7.0282002E+04   -1.7115925E+00
   4.6809626E-04   6.9730020E+04   -1.7110302E+00
   4.7025797E-04   6.9182552E+04   -1.7104683E+00
   4.7242967E-04   6.8639560E+04   -1.7099068E+00
   4.7461140E-04   6.8101006E+04   -1.7093457E+00
   4.7680321E-04   6.7566852E+04   -1.7087851E+00
   4.7900514E-04   6.7037061E+04   -1.7082248E+00
   4.8121723E-04   6.6511596E+04   -1.7076650E+00
   4.8343954E-04   6.5990420E+04   -1.7071056E+00
   4.8567212E-04   6.5473496E+04   -1.7065467E+00
   4.8791500E-04   6.4960789E+04   -1.7059882E+00
   4.9016825E-04   6.4452262E+04   -1.7054302E+00
   4.9243189E-04   6.3947881E+04   -1.7048726E+00
   4.9470600E-04   6.3447610E+04   -1.7043155E+00
   4.9699060E-04   6.2951413E+04   -1.7037589E+00
   4.9928575E-04   6.2459258E+04   -1.7032027E+00
   5.0159151E-04   6.1971109E+04   -1.7026470E+00
   5.0390791E-04   6.1486932E+04   -1.7020918E+00
   5.0623501E-04   6.1006694E+04   -1.7015371E+00
   5.0857286E-04   6.0530362E+04   -1.7009828E+00
   5.1092150E-04   6.0057902E+04   -1.7004291E+00
   5.1328099E-04   5.9589282E+04   -1.6998759E+00
   5.1565137E-04   5.9124469E+04   -1.6993232E+00
   5.1803270E-04   5.8663431E+04   -1.6987710E+00
   5.2042503E-04   5.8206136E+04   -1.6982193E+00
   5.2282841E-04   5.7752552E+04   -1.6976681E+00
   5.2524289E-04   5.7302649E+04   -1.6971175E+00
   5.2766851E-04   5.6856395E+04   -1.6965674E+00
   5.3010534E-04   5.6413758E+04   -1.6960179E+00
   5.3255342E-04   5.5974710E+04   -1.6954689E+00
   5.3501281E-04   5.5539219E+04   -1.6949204E+00
   5.3748356E-04   5.5107255E+04   -1.6943725E+00
   5.3996571E-04   5.4678788E+04   -1.6938252E+00
   5.4245933E-04   5.4253790E+04   -1.6932784E+00
   5.4496446E-04   5.3832231E+04   -1.6927322E+00
   5.4748117E-04   5.3414082E+04   -1.6921866E+00
   5.5000949E-04   5.2999314E+04   -1.6916415E+00
   5.5254949E-04   5.2587899E+04   -1.6910971E+00
   5.5510123E-04   5.2179808E+04   -1.6905532E+00
   5.5766474E-04   5.1775014E+04   -1.6900099E+00
   5.6024010E-04   5.1373488E+04   -1.6894672E+00
   5.6282734E-04   5.0975204E+04   -1.6889251E+00
   5.6542654E-04   5.0580134E+04   -1.6883837E+00
   5.6803774E-04   5.0188251E+04   -1.6878428E+00
   5.7066099E-04   4.9799528E+04   -1.6873026E+00
   5.7329637E-04   4.9413939E+04   -1.6867630E+00
   5.7594391E-04   4.9031457E+04   -1.6862240E+00
   5.7860368E-04   4.8652056E+04   -1.6856856E+00
   5.8127573E-04   4.8275711E+04   -1.6851479E+00
   5.8396012E-04   4.7902396E+04   -1.6846108E+00
   5.8665691E-04   4.7532085E+04   -1.6840744E+00
   5.8936616E-04   4.7164754E+04   -1.6835386E+00
   5.9208791E-04   4.6800376E+04   -1.6830035E+00
   5.9482223E-04   4.6438928E+04   -1.6824690E+00
   5.9756919E-04   4.6080385E+04   -1.6819352E+00
   6.0032882E-04   4.5724723E+04   -1.6814021E+00
   6.0310120E-04   4.5371917E+04   -1.6808696E+00
   6.0588639E-04   4.5021944E+04   -1.6803378E+00
   6.0868443E-04   4.4674779E+04   -1.6798067E+00
   6.1149540E-04   4.4330400E+04   -1.6792763E+00
   6.1431935E-04   4.3988783E+04   -1.6787465E+00
   6.1715634E-04   4.3649905E+04   -1.6782175E+00
   6.2000644E-04   4.3313744E+04   -1.6776891E+00
   6.2286969E-04   4.2980275E+04   -1.6771615E+00
