#        a       HoverH0(a)       dlogHdloga_of_a(a)
   1.0000000E-04   1.0793834E+06   -1.8498741E+00
   1.0046181E-04   1.0702239E+06   -1.8493896E+00
   1.0092575E-04   1.0611444E+06   -1.8489042E+00
   1.0139184E-04   1.0521443E+06   -1.8484180E+00
   1.0186008E-04   1.0432229E+06   -1.8479309E+00
   1.0233048E-04   1.0343795E+06   -1.8474428E+00
   1.0280305E-04   1.0256133E+06   -1.8469540E+00
   1.0327781E-04   1.0169237E+06   -1.8464642E+00
   1.0375475E-04   1.0083100E+06   -1.8459736E+00
   1.0423390E-04   9.9977159E+05   -1.8454821E+00
   1.0471527E-04   9.9130769E+05   -1.8449897E+00
   1.0519885E-04   9.8291767E+05   -1.8444965E+00
   1.0568467E-04   9.7460088E+05   -1.8440024E+00
   1.0617274E-04   9.6635666E+05   -1.8435074E+00
   1.0666305E-04   9.5818436E+05   -1.8430116E+00
   1.0715563E-04   9.5008335E+05   -1.8425150E+00
   1.0765049E-04   9.4205299E+05   -1.8420175E+00
   1.0814763E-04   9.3409265E+05   -1.8415191E+00
   1.0864707E-04   9.2620170E+05   -1.8410199E+00
   1.0914881E-04   9.1837953E+05   -1.8405199E+00
   1.0965287E-04   9.1062551E+05   -1.8400190E+00
   1.1015926E-04   9.0293905E+05   -1.8395173E+00
   1.1066799E-04   8.9531954E+05   -1.8390148E+00
   1.1117906E-04   8.8776639E+05   -1.8385115E+00
   1.1169250E-04   8.8027899E+05   -1.8380073E+00
   1.1220831E-04   8.7285678E+05   -1.8375023E+00
   1.1272650E-04   8.6549916E+05   -1.8369965E+00
   1.1324708E-04   8.5820557E+05   -1.8364899E+00
   1.1377007E-04   8.5097542E+05   -1.8359825E+00
   1.1429547E-04   8.4380817E+05   -1.8354743E+00
   1.1482330E-04   8.3670324E+05   -1.8349652E+00
   1.1535356E-04   8.2966008E+05   -1.8344554E+00
   1.1588628E-04   8.2267814E+05   -1.8339448E+00
   1.1642145E-04   8.1575688E+05   -1.8334334E+00
   1.1695910E-04   8.0889576E+05   -1.8329212E+00
   1.1749923E-04   8.0209423E+05   -1.8324082E+00
   1.1804185E-04   7.9535178E+05   -1.8318944E+00
   1.1858698E-04   7.8866788E+05   -1.8313799E+00
   1.1913463E-04   7.8204199E+05   -1.8308646E+00
   1.1968481E-04   7.7547362E+05   -1.8303485E+00
   1.2023752E-04   7.6896224E+05   -1.8298317E+00
   1.2079279E-04   7.6250736E+05   -1.8293141E+00
   1.2135063E-04   7.5610847E+05   -1.8287957E+00
   1.2191104E-04   7.4976506E+05   -1.8282766E+00
   1.2247403E-04   7.4347666E+05   -1.8277567E+00
   1.2303963E-04   7.3724276E+05   -1.8272361E+00
   1.2360784E-04   7.3106289E+05   -1.8267148E+00
   1.2417868E-04   7.2493656E+05   -1.8261927E+00
   1.2475215E-04   7.1886330E+05   -1.8256699E+00
   1.2532826E-04   7.1284264E+05   -1.8251463E+00
   1.2590704E-04   7.0687411E+05   -1.8246220E+00
   1.2648850E-04   7.0095725E+05   -1.8240970E+00
   1.2707263E-04   6.9509160E+05   -1.8235713E+00
   1.2765947E-04   6.8927670E+05   -1.8230449E+00
   1.2824901E-04   6.8351211E+05   -1.8225177E+00
   1.2884128E-04   6.7779737E+05   -1.8219899E+00
   1.2943628E-04   6.7213205E+05   -1.8214614E+00
   1.3003403E-04   6.6651571E+05   -1.8209321E+00
   1.3063454E-04   6.6094791E+05   -1.8204022E+00
   1.3123783E-04   6.5542823E+05   -1.8198716E+00
   1.3184390E-04   6.4995623E+05   -1.8193402E+00
   1.3245277E-04   6.4453149E+05   -1.8188083E+00
   1.3306445E-04   6.3915360E+05   -1.8182756E+00
   1.3367895E-04   6.3382213E+05   -1.8177423E+00
   1.3429630E-04   6.2853669E+05   -1.8172083E+00
   1.3491649E-04   6.2329685E+05   -1.8166736E+00
   1.3553955E-04   6.1810222E+05   -1.8161383E+00
   1.3616548E-04   6.1295239E+05   -1.8156023E+00
   1.3679431E-04   6.0784698E+05   -1.8150657E+00
   1.3742604E-04   6.0278557E+05   -1.8145284E+00
   1.3806069E-04   5.9776780E+05   -1.8139905E+00
   1.3869827E-04   5.9279326E+05   -1.8134520E+00
   1.3933879E-04   5.8786159E+05   -1.8129128E+00
   1.3998227E-04   5.8297238E+05   -1.8123730E+00
   1.4062872E-04   5.7812528E+05   -1.8118326E+00
   1.4127816E-04   5.7331991E+05   -1.8112916E+00
   1.4193060E-04   5.6855590E+05   -1.8107499E+00
   1.4258605E-04   5.6383289E+05   -1.8102077E+00
   1.4324453E-04   5.5915050E+05   -1.8096648E+00
   1.4390605E-04   5.5450839E+05   -1.8091214E+00
   1.4457062E-04   5.4990620E+05   -1.8085773E+00
   1.4523826E-04   5.4534357E+05   -1.8080327E+00
   1.4590899E-04   5.4082015E+05   -1.8074875E+00
   1.4658281E-04   5.3633561E+05   -1.8069417E+00
   1.4725974E-04   5.3188958E+05   -1.8063953E+00
   1.4793981E-04   5.2748175E+05   -1.8058484E+00
   1.4862301E-04   5.2311175E+05   -1.8053009E+00
   1.4930936E-04   5.1877928E+05   -1.8047528E+00
   1.4999889E-04   5.1448398E+05   -1.8042042E+00
   1.5069160E-04   5.1022554E+05   -1.8036551E+00
   1.5138751E-04   5.0600362E+05   -1.8031054E+00
   1.5208663E-04   5.0181792E+05   -1.8025551E+00
   1.5278899E-04   4.9766809E+05   -1.8020044E+00
   1.5349458E-04   4.9355384E+05   -1.8014531E+00
   1.5420343E-04   4.8947485E+05   -1.8009012E+00
   1.5491556E-04   4.8543080E+05   -1.8003489E+00
   1.5563098E-04   4.8142139E+05   -1.7997960E+00
   1.5634970E-04   4.7744632E+05   -1.7992427E+00
   1.5707174E-04   4.7350527E+05   -1.7986888E+00
   1.5779711E-04   4.6959795E+05   -1.7981344E+00
   1.5852584E-04   4.6572407E+05   -1.7975796E+00
   1.5925792E-04   4.6188332E+05   -1.7970242E+00
   1.5999339E-04   4.5807542E+05   -1.7964684E+00
   1.6073226E-04   4.5430008E+05   -1.7959121E+00
   1.6147454E-04   4.5055700E+05   -1.7953553E+00
   1.6222024E-04   4.4684592E+05   -1.7947981E+00
   1.6296939E-04   4.4316654E+05   -1.7942404E+00
   1.6372200E-04   4.3951859E+05   -1.7936822E+00
   1.6447809E-04   4.3590178E+05   -1.7931236E+00
   1.6523767E-04   4.3231586E+05   -1.7925646E+00
   1.6600075E-04   4.2876053E+05   -1.7920051E+00
   1.6676736E-04   4.2523554E+05   -1.7914452E+00
   1.6753751E-04   4.2174062E+05   -1.7908848E+00
   1.6831122E-04   4.1827551E+05   -1.7903241E+00
   1.6908849E-04   4.1483994E+05   -1.7897629E+00
   1.6986936E-04   4.1143364E+05   -1.7892013E+00
   1.7065384E-04   4.0805638E+05   -1.7886393E+00
   1.7144193E-04   4.0470789E+05   -1.7880769E+00
   1.7223367E-04   4.0138791E+05   -1.7875141E+00
   1.7302906E-04   3.9809620E+05   -1.7869509E+00
   1.7382813E-04   3.9483251E+05   -1.7863873E+00
   1.7463089E-04   3.9159660E+05   -1.7858234E+00
   1.7543735E-04   3.8838821E+05   -1.7852590E+00
   1.7624754E-04   3.8520712E+05   -1.7846943E+00
   1.7706147E-04   3.8205307E+05   -1.7841293E+00
   1.7787916E-04   3.7892584E+05   -1.7835639E+00
   1.7870062E-04   3.7582518E+05   -1.7829981E+00
   1.7952588E-04   3.7275086E+05   -1.7824320E+00
   1.8035495E-04   3.6970266E+05   -1.7818656E+00
   1.8118785E-04   3.6668034E+05   -1.7812988E+00
   1.8202459E-04   3.6368368E+05   -1.7807317E+00
   1.8286520E-04   3.6071245E+05   -1.7801643E+00
   1.8370969E-04   3.5776644E+05   -1.7795965E+00
   1.8455808E-04   3.5484541E+05   -1.7790285E+00
   1.8541039E-04   3.5194915E+05   -1.7784601E+00
   1.8626663E-04   3.4907745E+05   -1.7778915E+00
   1.8712683E-04   3.4623008E+05   -1.7773225E+00
   1.8799100E-04   3.4340685E+05   -1.7767533E+00
   1.8885917E-04   3.4060752E+05   -1.7761838E+00
   1.8973134E-04   3.3783190E+05   -1.7756140E+00
   1.9060754E-04   3.3507978E+05   -1.7750439E+00
   1.9148778E-04   3.3235096E+05   -1.7744736E+00
   1.9237209E-04   3.2964522E+05   -1.7739030E+00
   1.9326049E-04   3.2696237E+05   -1.7733322E+00
   1.9415299E-04   3.2430220E+05   -1.7727611E+00
   1.9504960E-04   3.2166453E+05   -1.7721898E+00
   1.9595036E-04   3.1904915E+05   -1.7716183E+00
   1.9685528E-04   3.1645587E+05   -1.7710465E+00
   1.9776438E-04   3.1388450E+05   -1.7704745E+00
   1.9867768E-04   3.1133484E+05   -1.7699023E+00
   1.9959519E-04   3.0880670E+05   -1.7693298E+00
   2.0051694E-04   3.0629990E+05   -1.7687572E+00
   2.0144295E-04   3.0381426E+05   -1.7681844E+00
   2.0237324E-04   3.0134958E+05   -1.7676114E+00
   2.0330782E-04   2.9890568E+05   -1.7670381E+00
   2.0424671E-04   2.9648239E+05   -1.7664648E+00
   2.0518995E-04   2.9407951E+05   -1.7658912E+00
   2.0613754E-04   2.9169689E+05   -1.7653175E+00
   2.0708950E-04   2.8933433E+05   -1.7647436E+00
   2.0804586E-04   2.8699167E+05   -1.7641695E+00
   2.0900664E-04   2.8466873E+05   -1.7635953E+00
   2.0997185E-04   2.8236534E+05   -1.7630210E+00
   2.1094152E-04   2.8008133E+05   -1.7624465E+00
   2.1191567E-04   2.7781652E+05   -1.7618719E+00
   2.1289432E-04   2.7557076E+05   -1.7612971E+00
   2.1387749E-04   2.7334388E+05   -1.7607223E+00
   2.1486520E-04   2.7113572E+05   -1.7601473E+00
   2.1585747E-04   2.6894610E+05   -1.7595722E+00
   2.1685432E-04   2.6677487E+05   -1.7589970E+00
   2.1785578E-04   2.6462187E+05   -1.7584218E+00
   2.1886186E-04   2.6248695E+05   -1.7578464E+00
   2.1987259E-04   2.6036994E+05   -1.7572709E+00
   2.2088798E-04   2.5827068E+05   -1.7566954E+00
   2.2190807E-04   2.5618904E+05   -1.7561198E+00
   2.2293286E-04   2.5412484E+05   -1.7555441E+00
   2.2396239E-04   2.5207795E+05   -1.7549684E+00
   2.2499667E-04   2.5004820E+05   -1.7543926E+00
   2.2603573E-04   2.4803546E+05   -1.7538168E+00
   2.2707958E-04   2.4603957E+05   -1.7532410E+00
   2.2812826E-04   2.4406039E+05   -1.7526651E+00
   2.2918178E-04   2.4209777E+05   -1.7520891E+00
   2.3024017E-04   2.4015157E+05   -1.7515132E+00
   2.3130344E-04   2.3822165E+05   -1.7509372E+00
   2.3237162E-04   2.3630787E+05   -1.7503612E+00
   2.3344474E-04   2.3441008E+05   -1.7497852E+00
   2.3452281E-04   2.3252815E+05   -1.7492093E+00
   2.3560586E-04   2.3066194E+05   -1.7486333E+00
   2.3669392E-04   2.2881132E+05   -1.7480573E+00
   2.3778699E-04   2.2697615E+05   -1.7474814E+00
   2.3888512E-04   2.2515629E+05   -1.7469055E+00
   2.3998831E-04   2.2335162E+05   -1.7463296E+00
   2.4109661E-04   2.2156200E+05   -1.7457538E+00
   2.4221001E-04   2.1978730E+05   -1.7451780E+00
   2.4332857E-04   2.1802740E+05   -1.7446022E+00
   2.4445228E-04   2.1628216E+05   -1.7440265E+00
   2.4558119E-04   2.1455146E+05   -1.7434509E+00
   2.4671531E-04   2.1283517E+05   -1.7428753E+00
   2.4785467E-04   2.1113318E+05   -1.7422999E+00
   2.4899928E-04   2.0944535E+05   -1.7417245E+00
   2.5014919E-04   2.0777156E+05   -1.7411492E+00
   2.5130440E-04   2.0611170E+05   -1.7405739E+00
   2.5246495E-04   2.0446563E+05   -1.7399988E+00
   2.5363086E-04   2.0283326E+05   -1.7394238E+00
   2.5480216E-04   2.0121444E+05   -1.7388489E+00
   2.5597886E-04   1.9960908E+05   -1.7382741E+00
   2.5716100E-04   1.9801704E+05   -1.7376995E+00
   2.5834859E-04   1.9643823E+05   -1.7371249E+00
   2.5954168E-04   1.9487252E+05   -1.7365505E+00
   2.6074027E-04   1.9331980E+05   -1.7359763E+00
   2.6194439E-04   1.9177996E+05   -1.7354022E+00
   2.6315408E-04   1.9025289E+05   -1.7348282E+00
   2.6436935E-04   1.8873847E+05   -1.7342544E+00
   2.6559024E-04   1.8723661E+05   -1.7336808E+00
   2.6681676E-04   1.8574719E+05   -1.7331074E+00
   2.6804895E-04   1.8427010E+05   -1.7325341E+00
   2.6928683E-04   1.8280524E+05   -1.7319610E+00
   2.7053042E-04   1.8135250E+05   -1.7313881E+00
   2.7177976E-04   1.7991179E+05   -1.7308154E+00
   2.7303487E-04   1.7848299E+05   -1.7302429E+00
   2.7429577E-04   1.7706601E+05   -1.7296706E+00
   2.7556250E-04   1.7566073E+05   -1.7290985E+00
   2.7683507E-04   1.7426707E+05   -1.7285267E+00
   2.7811353E-04   1.7288492E+05   -1.7279550E+00
   2.7939788E-04   1.7151419E+05   -1.7273836E+00
   2.8068817E-04   1.7015477E+05   -1.7268125E+00
   2.8198442E-04   1.6880657E+05   -1.7262415E+00
   2.8328665E-04   1.6746950E+05   -1.7256709E+00
   2.8459490E-04   1.6614345E+05   -1.7251004E+00
   2.8590919E-04   1.6482833E+05   -1.7245303E+00
   2.8722955E-04   1.6352405E+05   -1.7239604E+00
   2.8855600E-04   1.6223052E+05   -1.7233908E+00
   2.8988859E-04   1.6094765E+05   -1.7228215E+00
   2.9122732E-04   1.5967533E+05   -1.7222524E+00
   2.9257224E-04   1.5841349E+05   -1.7216836E+00
   2.9392337E-04   1.5716204E+05   -1.7211152E+00
   2.9528074E-04   1.5592088E+05   -1.7205470E+00
   2.9664438E-04   1.5468992E+05   -1.7199792E+00
   2.9801431E-04   1.5346909E+05   -1.7194116E+00
   2.9939057E-04   1.5225829E+05   -1.7188444E+00
   3.0077319E-04   1.5105743E+05   -1.7182775E+00
   3.0216219E-04   1.4986644E+05   -1.7177109E+00
   3.0355761E-04   1.4868523E+05   -1.7171447E+00
   3.0495947E-04   1.4751371E+05   -1.7165788E+00
   3.0636780E-04   1.4635180E+05   -1.7160133E+00
   3.0778264E-04   1.4519942E+05   -1.7154481E+00
   3.0920401E-04   1.4405649E+05   -1.7148833E+00
   3.1063195E-04   1.4292293E+05   -1.7143188E+00
   3.1206648E-04   1.4179866E+05   -1.7137547E+00
   3.1350764E-04   1.4068360E+05   -1.7131910E+00
   3.1495545E-04   1.3957767E+05   -1.7126277E+00
   3.1640994E-04   1.3848079E+05   -1.7120647E+00
   3.1787116E-04   1.3739289E+05   -1.7115022E+00
   3.1933912E-04   1.3631389E+05   -1.7109400E+00
   3.2081386E-04   1.3524371E+05   -1.7103783E+00
   3.2229541E-04   1.3418228E+05   -1.7098169E+00
   3.2378381E-04   1.3312953E+05   -1.7092560E+00
   3.2527908E-04   1.3208537E+05   -1.7086955E+00
   3.2678125E-04   1.3104975E+05   -1.7081354E+00
   3.2829036E-04   1.3002257E+05   -1.7075758E+00
   3.2980644E-04   1.2900379E+05   -1.7070166E+00
   3.3132952E-04   1.2799331E+05   -1.7064578E+00
   3.3285963E-04   1.2699108E+05   -1.7058995E+00
   3.3439681E-04   1.2599702E+05   -1.7053416E+00
   3.3594109E-04   1.2501106E+05   -1.7047842E+00
   3.3749250E-04   1.2403313E+05   -1.7042273E+00
   3.3905108E-04   1.2306318E+05   -1.7036708E+00
   3.4061685E-04   1.2210111E+05   -1.7031148E+00
   3.4218986E-04   1.2114688E+05   -1.7025593E+00
   3.4377013E-04   1.2020042E+05   -1.7020042E+00
   3.4535769E-04   1.1926165E+05   -1.7014497E+00
   3.4695259E-04   1.1833052E+05   -1.7008956E+00
   3.4855485E-04   1.1740696E+05   -1.7003421E+00
   3.5016452E-04   1.1649090E+05   -1.6997890E+00
   3.5178161E-04   1.1558229E+05   -1.6992365E+00
   3.5340618E-04   1.1468105E+05   -1.6986845E+00
   3.5503824E-04   1.1378713E+05   -1.6981330E+00
   3.5667785E-04   1.1290047E+05   -1.6975820E+00
   3.5832502E-04   1.1202099E+05   -1.6970316E+00
   3.5997981E-04   1.1114865E+05   -1.6964817E+00
   3.6164223E-04   1.1028339E+05   -1.6959323E+00
   3.6331233E-04   1.0942513E+05   -1.6953835E+00
   3.6499015E-04   1.0857383E+05   -1.6948352E+00
   3.6667571E-04   1.0772943E+05   -1.6942875E+00
   3.6836906E-04   1.0689186E+05   -1.6937404E+00
   3.7007022E-04   1.0606107E+05   -1.6931938E+00
   3.7177925E-04   1.0523700E+05   -1.6926478E+00
   3.7349616E-04   1.0441960E+05   -1.6921024E+00
   3.7522101E-04   1.0360881E+05   -1.6915575E+00
   3.7695382E-04   1.0280457E+05   -1.6910133E+00
   3.7869463E-04   1.0200683E+05   -1.6904696E+00
   3.8044348E-04   1.0121553E+05   -1.6899265E+00
   3.8220041E-04   1.0043062E+05   -1.6893840E+00
   3.8396545E-04   9.9652049E+04   -1.6888422E+00
   3.8573864E-04   9.8879759E+04   -1.6883009E+00
   3.8752002E-04   9.8113699E+04   -1.6877603E+00
   3.8930963E-04   9.7353816E+04   -1.6872202E+00
   3.9110750E-04   9.6600059E+04   -1.6866808E+00
   3.9291368E-04   9.5852376E+04   -1.6861421E+00
   3.9472820E-04   9.5110716E+04   -1.6856039E+00
   3.9655109E-04   9.4375028E+04   -1.6850664E+00
   3.9838241E-04   9.3645262E+04   -1.6845295E+00
   4.0022218E-04   9.2921370E+04   -1.6839933E+00
   4.0207045E-04   9.2203300E+04   -1.6834578E+00
   4.0392725E-04   9.1491006E+04   -1.6829229E+00
   4.0579263E-04   9.0784438E+04   -1.6823886E+00
   4.0766662E-04   9.0083548E+04   -1.6818550E+00
   4.0954927E-04   8.9388289E+04   -1.6813221E+00
   4.1144061E-04   8.8698613E+04   -1.6807899E+00
   4.1334068E-04   8.8014475E+04   -1.6802583E+00
   4.1524953E-04   8.7335827E+04   -1.6797274E+00
   4.1716720E-04   8.6662623E+04   -1.6791972E+00
   4.1909372E-04   8.5994819E+04   -1.6786677E+00
   4.2102914E-04   8.5332368E+04   -1.6781389E+00
   4.2297350E-04   8.4675227E+04   -1.6776108E+00
   4.2492683E-04   8.4023351E+04   -1.6770834E+00
   4.2688919E-04   8.3376696E+04   -1.6765567E+00
   4.2886061E-04   8.2735218E+04   -1.6760307E+00
   4.3084113E-04   8.2098875E+04   -1.6755054E+00
   4.3283080E-04   8.1467622E+04   -1.6749809E+00
   4.3482966E-04   8.0841419E+04   -1.6744570E+00
   4.3683775E-04   8.0220223E+04   -1.6739339E+00
   4.3885511E-04   7.9603991E+04   -1.6734116E+00
   4.4088179E-04   7.8992684E+04   -1.6728899E+00
   4.4291783E-04   7.8386259E+04   -1.6723691E+00
   4.4496327E-04   7.7784676E+04   -1.6718489E+00
   4.4701816E-04   7.7187894E+04   -1.6713295E+00
   4.4908253E-04   7.6595875E+04   -1.6708109E+00
   4.5115644E-04   7.6008578E+04   -1.6702930E+00
   4.5323993E-04   7.5425963E+04   -1.6697758E+00
   4.5533304E-04   7.4847993E+04   -1.6692595E+00
   4.5743582E-04   7.4274629E+04   -1.6687439E+00
   4.5954830E-04   7.3705831E+04   -1.6682290E+00
   4.6167054E-04   7.3141563E+04   -1.6677150E+00
   4.6380259E-04   7.2581786E+04   -1.6672017E+00
   4.6594448E-04   7.2026464E+04   -1.6666892E+00
   4.6809626E-04   7.1475559E+04   -1.6661775E+00
   4.7025797E-04   7.0929034E+04   -1.6656666E+00
   4.7242967E-04   7.0386855E+04   -1.6651564E+00
   4.7461140E-04   6.9848983E+04   -1.6646471E+00
   4.7680321E-04   6.9315385E+04   -1.6641386E+00
   4.7900514E-04   6.8786023E+04   -1.6636308E+00
   4.8121723E-04   6.8260864E+04   -1.6631239E+00
   4.8343954E-04   6.7739873E+04   -1.6626178E+00
   4.8567212E-04   6.7223015E+04   -1.6621125E+00
   4.8791500E-04   6.6710255E+04   -1.6616080E+00
   4.9016825E-04   6.6201561E+04   -1.6611043E+00
   4.9243189E-04   6.5696898E+04   -1.6606015E+00
   4.9470600E-04   6.5196233E+04   -1.6600995E+00
   4.9699060E-04   6.4699532E+04   -1.6595983E+00
   4.9928575E-04   6.4206765E+04   -1.6590980E+00
   5.0159151E-04   6.3717896E+04   -1.6585985E+00
   5.0390791E-04   6.3232896E+04   -1.6580998E+00
   5.0623501E-04   6.2751731E+04   -1.6576019E+00
   5.0857286E-04   6.2274370E+04   -1.6571050E+00
   5.1092150E-04   6.1800783E+04   -1.6566088E+00
   5.1328099E-04   6.1330936E+04   -1.6561136E+00
   5.1565137E-04   6.0864801E+04   -1.6556191E+00
   5.1803270E-04   6.0402346E+04   -1.6551256E+00
   5.2042503E-04   5.9943541E+04   -1.6546329E+00
   5.2282841E-04   5.9488356E+04   -1.6541410E+00
   5.2524289E-04   5.9036761E+04   -1.6536500E+00
   5.2766851E-04   5.8588726E+04   -1.6531599E+00
   5.3010534E-04   5.8144223E+04   -1.6526707E+00
   5.3255342E-04   5.7703222E+04   -1.6521823E+00
   5.3501281E-04   5.7265695E+04   -1.6516949E+00
   5.3748356E-04   5.6831613E+04   -1.6512083E+00
   5.3996571E-04   5.6400947E+04   -1.6507226E+00
   5.4245933E-04   5.5973670E+04   -1.6502377E+00
   5.4496446E-04   5.5549754E+04   -1.6497538E+00
   5.4748117E-04   5.5129172E+04   -1.6492708E+00
   5.5000949E-04   5.4711895E+04   -1.6487886E+00
   5.5254949E-04   5.4297898E+04   -1.6483074E+00
   5.5510123E-04   5.3887152E+04   -1.6478270E+00
   5.5766474E-04   5.3479632E+04   -1.6473476E+00
   5.6024010E-04   5.3075311E+04   -1.6468690E+00
   5.6282734E-04   5.2674162E+04   -1.6463914E+00
   5.6542654E-04   5.2276161E+04   -1.6459147E+00
   5.6803774E-04   5.1881280E+04   -1.6454389E+00
   5.7066099E-04   5.1489495E+04   -1.6449640E+00
   5.7329637E-04   5.1100781E+04   -1.6444900E+00
   5.7594391E-04   5.0715111E+04   -1.6440169E+00
   5.7860368E-04   5.0332462E+04   -1.6435448E+00
   5.8127573E-04   4.9952809E+04   -1.6430736E+00
   5.8396012E-04   4.9576127E+04   -1.6426033E+00
   5.8665691E-04   4.9202392E+04   -1.6421339E+00
   5.8936616E-04   4.8831580E+04   -1.6416655E+00
   5.9208791E-04   4.8463667E+04   -1.6411980E+00
   5.9482223E-04   4.8098629E+04   -1.6407315E+00
   5.9756919E-04   4.7736443E+04   -1.6402658E+00
   6.0032882E-04   4.7377087E+04   -1.6398012E+00
   6.0310120E-04   4.7020536E+04   -1.6393374E+00
   6.0588639E-04   4.6666768E+04   -1.6388746E+00
   6.0868443E-04   4.6315760E+04   -1.6384128E+00
   6.1149540E-04   4.5967490E+04   -1.6379519E+00
   6.1431935E-04   4.5621936E+04   -1.6374919E+00
   6.1715634E-04   4.5279075E+04   -1.6370329E+00
   6.2000644E-04   4.4938886E+04   -1.6365749E+00
   6.2286969E-04   4.4601347E+04   -1.6361178E+00
