#        a       HoverH0(a)       dlogHdloga_of_a(a)
   1.0000000E-04   1.1644770E+06   -1.8617485E+00
   1.0046181E-04   1.1545321E+06   -1.8612872E+00
   1.0092575E-04   1.1446746E+06   -1.8608249E+00
   1.0139184E-04   1.1349037E+06   -1.8603616E+00
   1.0186008E-04   1.1252185E+06   -1.8598974E+00
   1.0233048E-04   1.1156185E+06   -1.8594323E+00
   1.0280305E-04   1.1061027E+06   -1.8589662E+00
   1.0327781E-04   1.0966704E+06   -1.8584992E+00
   1.0375475E-04   1.0873209E+06   -1.8580313E+00
   1.0423390E-04   1.0780534E+06   -1.8575624E+00
   1.0471527E-04   1.0688672E+06   -1.8570926E+00
   1.0519885E-04   1.0597616E+06   -1.8566219E+00
   1.0568467E-04   1.0507358E+06   -1.8561503E+00
   1.0617274E-04   1.0417892E+06   -1.8556777E+00
   1.0666305E-04   1.0329210E+06   -1.8552042E+00
   1.0715563E-04   1.0241306E+06   -1.8547298E+00
   1.0765049E-04   1.0154172E+06   -1.8542544E+00
   1.0814763E-04   1.0067801E+06   -1.8537782E+00
   1.0864707E-04   9.9821864E+05   -1.8533010E+00
   1.0914881E-04   9.8973220E+05   -1.8528230E+00
   1.0965287E-04   9.8132006E+05   -1.8523440E+00
   1.1015926E-04   9.7298157E+05   -1.8518641E+00
   1.1066799E-04   9.6471608E+05   -1.8513833E+00
   1.1117906E-04   9.5652291E+05   -1.8509016E+00
   1.1169250E-04   9.4840144E+05   -1.8504191E+00
   1.1220831E-04   9.4035102E+05   -1.8499356E+00
   1.1272650E-04   9.3237101E+05   -1.8494512E+00
   1.1324708E-04   9.2446078E+05   -1.8489660E+00
   1.1377007E-04   9.1661972E+05   -1.8484798E+00
   1.1429547E-04   9.0884721E+05   -1.8479928E+00
   1.1482330E-04   9.0114262E+05   -1.8475049E+00
   1.1535356E-04   8.9350536E+05   -1.8470161E+00
   1.1588628E-04   8.8593482E+05   -1.8465265E+00
   1.1642145E-04   8.7843041E+05   -1.8460359E+00
   1.1695910E-04   8.7099154E+05   -1.8455445E+00
   1.1749923E-04   8.6361762E+05   -1.8450523E+00
   1.1804185E-04   8.5630807E+05   -1.8445591E+00
   1.1858698E-04   8.4906231E+05   -1.8440652E+00
   1.1913463E-04   8.4187979E+05   -1.8435703E+00
   1.1968481E-04   8.3475993E+05   -1.8430746E+00
   1.2023752E-04   8.2770218E+05   -1.8425781E+00
   1.2079279E-04   8.2070598E+05   -1.8420807E+00
   1.2135063E-04   8.1377078E+05   -1.8415824E+00
   1.2191104E-04   8.0689604E+05   -1.8410833E+00
   1.2247403E-04   8.0008122E+05   -1.8405834E+00
   1.2303963E-04   7.9332578E+05   -1.8400827E+00
   1.2360784E-04   7.8662920E+05   -1.8395811E+00
   1.2417868E-04   7.7999095E+05   -1.8390787E+00
   1.2475215E-04   7.7341051E+05   -1.8385754E+00
   1.2532826E-04   7.6688737E+05   -1.8380713E+00
   1.2590704E-04   7.6042101E+05   -1.8375665E+00
   1.2648850E-04   7.5401093E+05   -1.8370608E+00
   1.2707263E-04   7.4765663E+05   -1.8365542E+00
   1.2765947E-04   7.4135760E+05   -1.8360469E+00
   1.2824901E-04   7.3511338E+05   -1.8355388E+00
   1.2884128E-04   7.2892345E+05   -1.8350299E+00
   1.2943628E-04   7.2278734E+05   -1.8345201E+00
   1.3003403E-04   7.1670457E+05   -1.8340096E+00
   1.3063454E-04   7.1067466E+05   -1.8334983E+00
   1.3123783E-04   7.0469714E+05   -1.8329862E+00
   1.3184390E-04   6.9877155E+05   -1.8324733E+00
   1.3245277E-04   6.9289743E+05   -1.8319596E+00
   1.3306445E-04   6.8707431E+05   -1.8314452E+00
   1.3367895E-04   6.8130175E+05   -1.8309300E+00
   1.3429630E-04   6.7557929E+05   -1.8304140E+00
   1.3491649E-04   6.6990649E+05   -1.8298972E+00
   1.3553955E-04   6.6428291E+05   -1.8293797E+00
   1.3616548E-04   6.5870810E+05   -1.8288615E+00
   1.3679431E-04   6.5318165E+05   -1.8283424E+00
   1.3742604E-04   6.4770311E+05   -1.8278227E+00
   1.3806069E-04   6.4227206E+05   -1.8273022E+00
   1.3869827E-04   6.3688807E+05   -1.8267809E+00
   1.3933879E-04   6.3155074E+05   -1.8262589E+00
   1.3998227E-04   6.2625965E+05   -1.8257362E+00
   1.4062872E-04   6.2101437E+05   -1.8252127E+00
   1.4127816E-04   6.1581452E+05   -1.8246885E+00
   1.4193060E-04   6.1065968E+05   -1.8241636E+00
   1.4258605E-04   6.0554946E+05   -1.8236380E+00
   1.4324453E-04   6.0048345E+05   -1.8231116E+00
   1.4390605E-04   5.9546128E+05   -1.8225845E+00
   1.4457062E-04   5.9048254E+05   -1.8220568E+00
   1.4523826E-04   5.8554686E+05   -1.8215283E+00
   1.4590899E-04   5.8065384E+05   -1.8209992E+00
   1.4658281E-04   5.7580312E+05   -1.8204693E+00
   1.4725974E-04   5.7099432E+05   -1.8199388E+00
   1.4793981E-04   5.6622706E+05   -1.8194075E+00
   1.4862301E-04   5.6150098E+05   -1.8188756E+00
   1.4930936E-04   5.5681571E+05   -1.8183431E+00
   1.4999889E-04   5.5217089E+05   -1.8178098E+00
   1.5069160E-04   5.4756616E+05   -1.8172759E+00
   1.5138751E-04   5.4300117E+05   -1.8167413E+00
   1.5208663E-04   5.3847556E+05   -1.8162061E+00
   1.5278899E-04   5.3398899E+05   -1.8156702E+00
   1.5349458E-04   5.2954112E+05   -1.8151336E+00
   1.5420343E-04   5.2513159E+05   -1.8145964E+00
   1.5491556E-04   5.2076006E+05   -1.8140586E+00
   1.5563098E-04   5.1642621E+05   -1.8135201E+00
   1.5634970E-04   5.1212970E+05   -1.8129810E+00
   1.5707174E-04   5.0787020E+05   -1.8124413E+00
   1.5779711E-04   5.0364737E+05   -1.8119010E+00
   1.5852584E-04   4.9946090E+05   -1.8113600E+00
   1.5925792E-04   4.9531047E+05   -1.8108184E+00
   1.5999339E-04   4.9119575E+05   -1.8102763E+00
   1.6073226E-04   4.8711643E+05   -1.8097335E+00
   1.6147454E-04   4.8307220E+05   -1.8091901E+00
   1.6222024E-04   4.7906274E+05   -1.8086461E+00
   1.6296939E-04   4.7508776E+05   -1.8081016E+00
   1.6372200E-04   4.7114694E+05   -1.8075564E+00
   1.6447809E-04   4.6723998E+05   -1.8070107E+00
   1.6523767E-04   4.6336659E+05   -1.8064644E+00
   1.6600075E-04   4.5952647E+05   -1.8059175E+00
   1.6676736E-04   4.5571932E+05   -1.8053701E+00
   1.6753751E-04   4.5194485E+05   -1.8048221E+00
   1.6831122E-04   4.4820277E+05   -1.8042735E+00
   1.6908849E-04   4.4449280E+05   -1.8037244E+00
   1.6986936E-04   4.4081466E+05   -1.8031748E+00
   1.7065384E-04   4.3716806E+05   -1.8026246E+00
   1.7144193E-04   4.3355273E+05   -1.8020739E+00
   1.7223367E-04   4.2996838E+05   -1.8015227E+00
   1.7302906E-04   4.2641476E+05   -1.8009709E+00
   1.7382813E-04   4.2289158E+05   -1.8004186E+00
   1.7463089E-04   4.1939858E+05   -1.7998658E+00
   1.7543735E-04   4.1593549E+05   -1.7993125E+00
   1.7624754E-04   4.1250204E+05   -1.7987587E+00
   1.7706147E-04   4.0909799E+05   -1.7982044E+00
   1.7787916E-04   4.0572306E+05   -1.7976496E+00
   1.7870062E-04   4.0237700E+05   -1.7970943E+00
   1.7952588E-04   3.9905956E+05   -1.7965385E+00
   1.8035495E-04   3.9577048E+05   -1.7959823E+00
   1.8118785E-04   3.9250952E+05   -1.7954256E+00
   1.8202459E-04   3.8927642E+05   -1.7948684E+00
   1.8286520E-04   3.8607095E+05   -1.7943107E+00
   1.8370969E-04   3.8289286E+05   -1.7937526E+00
   1.8455808E-04   3.7974191E+05   -1.7931941E+00
   1.8541039E-04   3.7661785E+05   -1.7926351E+00
   1.8626663E-04   3.7352046E+05   -1.7920756E+00
   1.8712683E-04   3.7044950E+05   -1.7915158E+00
   1.8799100E-04   3.6740474E+05   -1.7909555E+00
   1.8885917E-04   3.6438594E+05   -1.7903947E+00
   1.8973134E-04   3.6139288E+05   -1.7898336E+00
   1.9060754E-04   3.5842533E+05   -1.7892720E+00
   1.9148778E-04   3.5548307E+05   -1.7887101E+00
   1.9237209E-04   3.5256588E+05   -1.7881477E+00
   1.9326049E-04   3.4967353E+05   -1.7875850E+00
   1.9415299E-04   3.4680581E+05   -1.7870218E+00
   1.9504960E-04   3.4396250E+05   -1.7864583E+00
   1.9595036E-04   3.4114338E+05   -1.7858944E+00
   1.9685528E-04   3.3834826E+05   -1.7853301E+00
   1.9776438E-04   3.3557690E+05   -1.7847654E+00
   1.9867768E-04   3.3282912E+05   -1.7842004E+00
   1.9959519E-04   3.3010469E+05   -1.7836350E+00
   2.0051694E-04   3.2740341E+05   -1.7830693E+00
   2.0144295E-04   3.2472509E+05   -1.7825032E+00
   2.0237324E-04   3.2206952E+05   -1.7819368E+00
   2.0330782E-04   3.1943650E+05   -1.7813701E+00
   2.0424671E-04   3.1682583E+05   -1.7808030E+00
   2.0518995E-04   3.1423732E+05   -1.7802356E+00
   2.0613754E-04   3.1167077E+05   -1.7796679E+00
   2.0708950E-04   3.0912599E+05   -1.7790999E+00
   2.0804586E-04   3.0660280E+05   -1.7785316E+00
   2.0900664E-04   3.0410099E+05   -1.7779629E+00
   2.0997185E-04   3.0162040E+05   -1.7773940E+00
   2.1094152E-04   2.9916082E+05   -1.7768248E+00
   2.1191567E-04   2.9672207E+05   -1.7762553E+00
   2.1289432E-04   2.9430398E+05   -1.7756856E+00
   2.1387749E-04   2.9190636E+05   -1.7751155E+00
   2.1486520E-04   2.8952903E+05   -1.7745452E+00
   2.1585747E-04   2.8717182E+05   -1.7739747E+00
   2.1685432E-04   2.8483455E+05   -1.7734039E+00
   2.1785578E-04   2.8251705E+05   -1.7728328E+00
   2.1886186E-04   2.8021914E+05   -1.7722615E+00
   2.1987259E-04   2.7794065E+05   -1.7716900E+00
   2.2088798E-04   2.7568141E+05   -1.7711182E+00
   2.2190807E-04   2.7344126E+05   -1.7705462E+00
   2.2293286E-04   2.7122003E+05   -1.7699740E+00
   2.2396239E-04   2.6901755E+05   -1.7694016E+00
   2.2499667E-04   2.6683366E+05   -1.7688290E+00
   2.2603573E-04   2.6466820E+05   -1.7682562E+00
   2.2707958E-04   2.6252100E+05   -1.7676832E+00
   2.2812826E-04   2.6039191E+05   -1.7671100E+00
   2.2918178E-04   2.5828077E+05   -1.7665366E+00
   2.3024017E-04   2.5618742E+05   -1.7659631E+00
   2.3130344E-04   2.5411172E+05   -1.7653893E+00
   2.3237162E-04   2.5205349E+05   -1.7648155E+00
   2.3344474E-04   2.5001260E+05   -1.7642414E+00
   2.3452281E-04   2.4798889E+05   -1.7636672E+00
   2.3560586E-04   2.4598221E+05   -1.7630929E+00
   2.3669392E-04   2.4399241E+05   -1.7625184E+00
   2.3778699E-04   2.4201935E+05   -1.7619438E+00
   2.3888512E-04   2.4006289E+05   -1.7613691E+00
   2.3998831E-04   2.3812286E+05   -1.7607942E+00
   2.4109661E-04   2.3619915E+05   -1.7602192E+00
   2.4221001E-04   2.3429159E+05   -1.7596442E+00
   2.4332857E-04   2.3240005E+05   -1.7590690E+00
   2.4445228E-04   2.3052440E+05   -1.7584937E+00
   2.4558119E-04   2.2866449E+05   -1.7579183E+00
   2.4671531E-04   2.2682019E+05   -1.7573429E+00
   2.4785467E-04   2.2499136E+05   -1.7567674E+00
   2.4899928E-04   2.2317787E+05   -1.7561917E+00
   2.5014919E-04   2.2137958E+05   -1.7556161E+00
   2.5130440E-04   2.1959637E+05   -1.7550403E+00
   2.5246495E-04   2.1782809E+05   -1.7544646E+00
   2.5363086E-04   2.1607463E+05   -1.7538887E+00
   2.5480216E-04   2.1433585E+05   -1.7533129E+00
   2.5597886E-04   2.1261163E+05   -1.7527370E+00
   2.5716100E-04   2.1090184E+05   -1.7521610E+00
   2.5834859E-04   2.0920635E+05   -1.7515851E+00
   2.5954168E-04   2.0752505E+05   -1.7510091E+00
   2.6074027E-04   2.0585780E+05   -1.7504331E+00
   2.6194439E-04   2.0420449E+05   -1.7498571E+00
   2.6315408E-04   2.0256500E+05   -1.7492811E+00
   2.6436935E-04   2.0093920E+05   -1.7487051E+00
   2.6559024E-04   1.9932698E+05   -1.7481291E+00
   2.6681676E-04   1.9772822E+05   -1.7475532E+00
   2.6804895E-04   1.9614280E+05   -1.7469773E+00
   2.6928683E-04   1.9457061E+05   -1.7464014E+00
   2.7053042E-04   1.9301154E+05   -1.7458255E+00
   2.7177976E-04   1.9146547E+05   -1.7452497E+00
   2.7303487E-04   1.8993228E+05   -1.7446739E+00
   2.7429577E-04   1.8841187E+05   -1.7440982E+00
   2.7556250E-04   1.8690413E+05   -1.7435226E+00
   2.7683507E-04   1.8540895E+05   -1.7429470E+00
   2.7811353E-04   1.8392621E+05   -1.7423715E+00
   2.7939788E-04   1.8245582E+05   -1.7417960E+00
   2.8068817E-04   1.8099766E+05   -1.7412207E+00
   2.8198442E-04   1.7955163E+05   -1.7406455E+00
   2.8328665E-04   1.7811762E+05   -1.7400703E+00
   2.8459490E-04   1.7669554E+05   -1.7394953E+00
   2.8590919E-04   1.7528527E+05   -1.7389203E+00
   2.8722955E-04   1.7388672E+05   -1.7383455E+00
   2.8855600E-04   1.7249979E+05   -1.7377708E+00
   2.8988859E-04   1.7112437E+05   -1.7371963E+00
   2.9122732E-04   1.6976037E+05   -1.7366219E+00
   2.9257224E-04   1.6840768E+05   -1.7360476E+00
   2.9392337E-04   1.6706622E+05   -1.7354734E+00
   2.9528074E-04   1.6573588E+05   -1.7348994E+00
   2.9664438E-04   1.6441657E+05   -1.7343256E+00
   2.9801431E-04   1.6310819E+05   -1.7337520E+00
   2.9939057E-04   1.6181065E+05   -1.7331785E+00
   3.0077319E-04   1.6052385E+05   -1.7326052E+00
   3.0216219E-04   1.5924771E+05   -1.7320320E+00
   3.0355761E-04   1.5798214E+05   -1.7314591E+00
   3.0495947E-04   1.5672703E+05   -1.7308863E+00
   3.0636780E-04   1.5548231E+05   -1.7303138E+00
   3.0778264E-04   1.5424788E+05   -1.7297415E+00
   3.0920401E-04   1.5302365E+05   -1.7291693E+00
   3.1063195E-04   1.5180954E+05   -1.7285974E+00
   3.1206648E-04   1.5060545E+05   -1.7280258E+00
   3.1350764E-04   1.4941132E+05   -1.7274543E+00
   3.1495545E-04   1.4822704E+05   -1.7268831E+00
   3.1640994E-04   1.4705253E+05   -1.7263121E+00
   3.1787116E-04   1.4588772E+05   -1.7257414E+00
   3.1933912E-04   1.4473251E+05   -1.7251710E+00
   3.2081386E-04   1.4358682E+05   -1.7246007E+00
   3.2229541E-04   1.4245058E+05   -1.7240308E+00
   3.2378381E-04   1.4132371E+05   -1.7234611E+00
   3.2527908E-04   1.4020611E+05   -1.7228918E+00
   3.2678125E-04   1.3909772E+05   -1.7223227E+00
   3.2829036E-04   1.3799845E+05   -1.7217538E+00
   3.2980644E-04   1.3690822E+05   -1.7211853E+00
   3.3132952E-04   1.3582697E+05   -1.7206171E+00
   3.3285963E-04   1.3475461E+05   -1.7200492E+00
   3.3439681E-04   1.3369106E+05   -1.7194816E+00
   3.3594109E-04   1.3263626E+05   -1.7189143E+00
   3.3749250E-04   1.3159012E+05   -1.7183474E+00
   3.3905108E-04   1.3055257E+05   -1.7177807E+00
   3.4061685E-04   1.2952354E+05   -1.7172144E+00
   3.4218986E-04   1.2850296E+05   -1.7166485E+00
   3.4377013E-04   1.2749075E+05   -1.7160829E+00
   3.4535769E-04   1.2648685E+05   -1.7155176E+00
   3.4695259E-04   1.2549118E+05   -1.7149528E+00
   3.4855485E-04   1.2450366E+05   -1.7143882E+00
   3.5016452E-04   1.2352424E+05   -1.7138241E+00
   3.5178161E-04   1.2255285E+05   -1.7132603E+00
   3.5340618E-04   1.2158940E+05   -1.7126969E+00
   3.5503824E-04   1.2063385E+05   -1.7121339E+00
   3.5667785E-04   1.1968612E+05   -1.7115713E+00
   3.5832502E-04   1.1874613E+05   -1.7110090E+00
   3.5997981E-04   1.1781384E+05   -1.7104472E+00
   3.6164223E-04   1.1688917E+05   -1.7098858E+00
   3.6331233E-04   1.1597205E+05   -1.7093248E+00
   3.6499015E-04   1.1506243E+05   -1.7087642E+00
   3.6667571E-04   1.1416024E+05   -1.7082041E+00
   3.6836906E-04   1.1326541E+05   -1.7076444E+00
   3.7007022E-04   1.1237789E+05   -1.7070851E+00
   3.7177925E-04   1.1149761E+05   -1.7065262E+00
   3.7349616E-04   1.1062451E+05   -1.7059678E+00
   3.7522101E-04   1.0975853E+05   -1.7054099E+00
   3.7695382E-04   1.0889960E+05   -1.7048524E+00
   3.7869463E-04   1.0804768E+05   -1.7042954E+00
   3.8044348E-04   1.0720270E+05   -1.7037388E+00
   3.8220041E-04   1.0636459E+05   -1.7031828E+00
   3.8396545E-04   1.0553331E+05   -1.7026272E+00
   3.8573864E-04   1.0470880E+05   -1.7020720E+00
   3.8752002E-04   1.0389099E+05   -1.7015174E+00
   3.8930963E-04   1.0307983E+05   -1.7009633E+00
   3.9110750E-04   1.0227527E+05   -1.7004096E+00
   3.9291368E-04   1.0147724E+05   -1.6998565E+00
   3.9472820E-04   1.0068570E+05   -1.6993039E+00
   3.9655109E-04   9.9900586E+04   -1.6987518E+00
   3.9838241E-04   9.9121847E+04   -1.6982002E+00
   4.0022218E-04   9.8349428E+04   -1.6976491E+00
   4.0207045E-04   9.7583276E+04   -1.6970986E+00
   4.0392725E-04   9.6823337E+04   -1.6965486E+00
   4.0579263E-04   9.6069560E+04   -1.6959992E+00
   4.0766662E-04   9.5321893E+04   -1.6954503E+00
   4.0954927E-04   9.4580283E+04   -1.6949019E+00
   4.1144061E-04   9.3844680E+04   -1.6943541E+00
   4.1334068E-04   9.3115033E+04   -1.6938069E+00
   4.1524953E-04   9.2391292E+04   -1.6932602E+00
   4.1716720E-04   9.1673407E+04   -1.6927141E+00
   4.1909372E-04   9.0961329E+04   -1.6921686E+00
   4.2102914E-04   9.0255009E+04   -1.6916236E+00
   4.2297350E-04   8.9554398E+04   -1.6910793E+00
   4.2492683E-04   8.8859448E+04   -1.6905355E+00
   4.2688919E-04   8.8170112E+04   -1.6899923E+00
   4.2886061E-04   8.7486342E+04   -1.6894498E+00
   4.3084113E-04   8.6808092E+04   -1.6889078E+00
   4.3283080E-04   8.6135316E+04   -1.6883664E+00
   4.3482966E-04   8.5467966E+04   -1.6878257E+00
   4.3683775E-04   8.4805998E+04   -1.6872856E+00
   4.3885511E-04   8.4149366E+04   -1.6867460E+00
   4.4088179E-04   8.3498026E+04   -1.6862072E+00
   4.4291783E-04   8.2851933E+04   -1.6856689E+00
   4.4496327E-04   8.2211043E+04   -1.6851313E+00
   4.4701816E-04   8.1575313E+04   -1.6845943E+00
   4.4908253E-04   8.0944699E+04   -1.6840580E+00
   4.5115644E-04   8.0319158E+04   -1.6835224E+00
   4.5323993E-04   7.9698647E+04   -1.6829873E+00
   4.5533304E-04   7.9083126E+04   -1.6824530E+00
   4.5743582E-04   7.8472551E+04   -1.6819193E+00
   4.5954830E-04   7.7866882E+04   -1.6813863E+00
   4.6167054E-04   7.7266077E+04   -1.6808539E+00
   4.6380259E-04   7.6670096E+04   -1.6803222E+00
   4.6594448E-04   7.6078898E+04   -1.6797912E+00
   4.6809626E-04   7.5492443E+04   -1.6792609E+00
   4.7025797E-04   7.4910692E+04   -1.6787313E+00
   4.7242967E-04   7.4333605E+04   -1.6782024E+00
   4.7461140E-04   7.3761143E+04   -1.6776742E+00
   4.7680321E-04   7.3193268E+04   -1.6771467E+00
   4.7900514E-04   7.2629942E+04   -1.6766198E+00
   4.8121723E-04   7.2071126E+04   -1.6760937E+00
   4.8343954E-04   7.1516782E+04   -1.6755683E+00
   4.8567212E-04   7.0966875E+04   -1.6750437E+00
   4.8791500E-04   7.0421365E+04   -1.6745197E+00
   4.9016825E-04   6.9880218E+04   -1.6739965E+00
   4.9243189E-04   6.9343396E+04   -1.6734740E+00
   4.9470600E-04   6.8810863E+04   -1.6729523E+00
   4.9699060E-04   6.8282584E+04   -1.6724313E+00
   4.9928575E-04   6.7758523E+04   -1.6719110E+00
   5.0159151E-04   6.7238646E+04   -1.6713915E+00
   5.0390791E-04   6.6722917E+04   -1.6708727E+00
   5.0623501E-04   6.6211301E+04   -1.6703547E+00
   5.0857286E-04   6.5703765E+04   -1.6698374E+00
   5.1092150E-04   6.5200275E+04   -1.6693209E+00
   5.1328099E-04   6.4700798E+04   -1.6688052E+00
   5.1565137E-04   6.4205299E+04   -1.6682903E+00
   5.1803270E-04   6.3713746E+04   -1.6677761E+00
   5.2042503E-04   6.3226105E+04   -1.6672627E+00
   5.2282841E-04   6.2742345E+04   -1.6667500E+00
   5.2524289E-04   6.2262434E+04   -1.6662382E+00
   5.2766851E-04   6.1786339E+04   -1.6657272E+00
   5.3010534E-04   6.1314029E+04   -1.6652169E+00
   5.3255342E-04   6.0845472E+04   -1.6647074E+00
   5.3501281E-04   6.0380637E+04   -1.6641988E+00
   5.3748356E-04   5.9919494E+04   -1.6636909E+00
   5.3996571E-04   5.9462011E+04   -1.6631839E+00
   5.4245933E-04   5.9008160E+04   -1.6626776E+00
   5.4496446E-04   5.8557909E+04   -1.6621722E+00
   5.4748117E-04   5.8111228E+04   -1.6616676E+00
   5.5000949E-04   5.7668089E+04   -1.6611638E+00
   5.5254949E-04   5.7228462E+04   -1.6606608E+00
   5.5510123E-04   5.6792318E+04   -1.6601587E+00
   5.5766474E-04   5.6359628E+04   -1.6596573E+00
   5.6024010E-04   5.5930364E+04   -1.6591569E+00
   5.6282734E-04   5.5504497E+04   -1.6586572E+00
   5.6542654E-04   5.5082000E+04   -1.6581584E+00
   5.6803774E-04   5.4662844E+04   -1.6576604E+00
   5.7066099E-04   5.4247002E+04   -1.6571633E+00
   5.7329637E-04   5.3834446E+04   -1.6566670E+00
   5.7594391E-04   5.3425150E+04   -1.6561716E+00
   5.7860368E-04   5.3019088E+04   -1.6556771E+00
   5.8127573E-04   5.2616231E+04   -1.6551834E+00
   5.8396012E-04   5.2216554E+04   -1.6546905E+00
   5.8665691E-04   5.1820030E+04   -1.6541985E+00
   5.8936616E-04   5.1426634E+04   -1.6537074E+00
   5.9208791E-04   5.1036340E+04   -1.6532172E+00
   5.9482223E-04   5.0649122E+04   -1.6527278E+00
   5.9756919E-04   5.0264956E+04   -1.6522393E+00
   6.0032882E-04   4.9883815E+04   -1.6517517E+00
   6.0310120E-04   4.9505675E+04   -1.6512649E+00
   6.0588639E-04   4.9130512E+04   -1.6507791E+00
   6.0868443E-04   4.8758302E+04   -1.6502941E+00
   6.1149540E-04   4.8389019E+04   -1.6498100E+00
   6.1431935E-04   4.8022639E+04   -1.6493268E+00
   6.1715634E-04   4.7659141E+04   -1.6488446E+00
   6.2000644E-04   4.7298498E+04   -1.6483632E+00
   6.2286969E-04   4.6940689E+04   -1.6478827E+00
