#        a       HoverH0(a)       dlogHdloga_of_a(a)
   1.0000000E-04   1.1330485E+06   -1.8980105E+00
   1.0046181E-04   1.1231841E+06   -1.8976359E+00
   1.0092575E-04   1.1134076E+06   -1.8972603E+00
   1.0139184E-04   1.1037180E+06   -1.8968837E+00
   1.0186008E-04   1.0941147E+06   -1.8965060E+00
   1.0233048E-04   1.0845968E+06   -1.8961274E+00
   1.0280305E-04   1.0751636E+06   -1.8957477E+00
   1.0327781E-04   1.0658143E+06   -1.8953669E+00
   1.0375475E-04   1.0565481E+06   -1.8949852E+00
   1.0423390E-04   1.0473644E+06   -1.8946025E+00
   1.0471527E-04   1.0382623E+06   -1.8942187E+00
   1.0519885E-04   1.0292411E+06   -1.8938339E+00
   1.0568467E-04   1.0203001E+06   -1.8934481E+00
   1.0617274E-04   1.0114386E+06   -1.8930612E+00
   1.0666305E-04   1.0026559E+06   -1.8926734E+00
   1.0715563E-04   9.9395121E+05   -1.8922845E+00
   1.0765049E-04   9.8532385E+05   -1.8918946E+00
   1.0814763E-04   9.7677313E+05   -1.8915036E+00
   1.0864707E-04   9.6829836E+05   -1.8911117E+00
   1.0914881E-04   9.5989885E+05   -1.8907187E+00
   1.0965287E-04   9.5157394E+05   -1.8903247E+00
   1.1015926E-04   9.4332293E+05   -1.8899297E+00
   1.1066799E-04   9.3514518E+05   -1.8895337E+00
   1.1117906E-04   9.2704001E+05   -1.8891366E+00
   1.1169250E-04   9.1900677E+05   -1.8887386E+00
   1.1220831E-04   9.1104482E+05   -1.8883395E+00
   1.1272650E-04   9.0315351E+05   -1.8879394E+00
   1.1324708E-04   8.9533221E+05   -1.8875383E+00
   1.1377007E-04   8.8758028E+05   -1.8871361E+00
   1.1429547E-04   8.7989711E+05   -1.8867329E+00
   1.1482330E-04   8.7228206E+05   -1.8863288E+00
   1.1535356E-04   8.6473453E+05   -1.8859236E+00
   1.1588628E-04   8.5725391E+05   -1.8855174E+00
   1.1642145E-04   8.4983959E+05   -1.8851101E+00
   1.1695910E-04   8.4249098E+05   -1.8847019E+00
   1.1749923E-04   8.3520749E+05   -1.8842926E+00
   1.1804185E-04   8.2798853E+05   -1.8838824E+00
   1.1858698E-04   8.2083352E+05   -1.8834711E+00
   1.1913463E-04   8.1374188E+05   -1.8830588E+00
   1.1968481E-04   8.0671304E+05   -1.8826455E+00
   1.2023752E-04   7.9974645E+05   -1.8822311E+00
   1.2079279E-04   7.9284153E+05   -1.8818158E+00
   1.2135063E-04   7.8599773E+05   -1.8813994E+00
   1.2191104E-04   7.7921451E+05   -1.8809821E+00
   1.2247403E-04   7.7249131E+05   -1.8805637E+00
   1.2303963E-04   7.6582760E+05   -1.8801444E+00
   1.2360784E-04   7.5922284E+05   -1.8797240E+00
   1.2417868E-04   7.5267650E+05   -1.8793026E+00
   1.2475215E-04   7.4618806E+05   -1.8788802E+00
   1.2532826E-04   7.3975699E+05   -1.8784568E+00
   1.2590704E-04   7.3338278E+05   -1.8780324E+00
   1.2648850E-04   7.2706492E+05   -1.8776070E+00
   1.2707263E-04   7.2080289E+05   -1.8771806E+00
   1.2765947E-04   7.1459621E+05   -1.8767532E+00
   1.2824901E-04   7.0844437E+05   -1.8763248E+00
   1.2884128E-04   7.0234688E+05   -1.8758954E+00
   1.2943628E-04   6.9630325E+05   -1.8754650E+00
   1.3003403E-04   6.9031299E+05   -1.8750336E+00
   1.3063454E-04   6.8437563E+05   -1.8746012E+00
   1.3123783E-04   6.7849069E+05   -1.8741678E+00
   1.3184390E-04   6.7265770E+05   -1.8737334E+00
   1.3245277E-04   6.6687619E+05   -1.8732980E+00
   1.3306445E-04   6.6114570E+05   -1.8728617E+00
   1.3367895E-04   6.5546577E+05   -1.8724243E+00
   1.3429630E-04   6.4983595E+05   -1.8719860E+00
   1.3491649E-04   6.4425578E+05   -1.8715467E+00
   1.3553955E-04   6.3872483E+05   -1.8711063E+00
   1.3616548E-04   6.3324265E+05   -1.8706650E+00
   1.3679431E-04   6.2780880E+05   -1.8702228E+00
   1.3742604E-04   6.2242285E+05   -1.8697795E+00
   1.3806069E-04   6.1708436E+05   -1.8693353E+00
   1.3869827E-04   6.1179292E+05   -1.8688900E+00
   1.3933879E-04   6.0654809E+05   -1.8684438E+00
   1.3998227E-04   6.0134947E+05   -1.8679967E+00
   1.4062872E-04   5.9619663E+05   -1.8675485E+00
   1.4127816E-04   5.9108917E+05   -1.8670994E+00
   1.4193060E-04   5.8602667E+05   -1.8666493E+00
   1.4258605E-04   5.8100874E+05   -1.8661983E+00
   1.4324453E-04   5.7603498E+05   -1.8657462E+00
   1.4390605E-04   5.7110498E+05   -1.8652933E+00
   1.4457062E-04   5.6621837E+05   -1.8648393E+00
   1.4523826E-04   5.6137474E+05   -1.8643844E+00
   1.4590899E-04   5.5657371E+05   -1.8639285E+00
   1.4658281E-04   5.5181490E+05   -1.8634717E+00
   1.4725974E-04   5.4709793E+05   -1.8630139E+00
   1.4793981E-04   5.4242243E+05   -1.8625551E+00
   1.4862301E-04   5.3778802E+05   -1.8620954E+00
   1.4930936E-04   5.3319434E+05   -1.8616348E+00
   1.4999889E-04   5.2864102E+05   -1.8611732E+00
   1.5069160E-04   5.2412770E+05   -1.8607107E+00
   1.5138751E-04   5.1965402E+05   -1.8602472E+00
   1.5208663E-04   5.1521963E+05   -1.8597827E+00
   1.5278899E-04   5.1082418E+05   -1.8593174E+00
   1.5349458E-04   5.0646731E+05   -1.8588510E+00
   1.5420343E-04   5.0214867E+05   -1.8583838E+00
   1.5491556E-04   4.9786794E+05   -1.8579156E+00
   1.5563098E-04   4.9362477E+05   -1.8574465E+00
   1.5634970E-04   4.8941882E+05   -1.8569765E+00
   1.5707174E-04   4.8524975E+05   -1.8565055E+00
   1.5779711E-04   4.8111725E+05   -1.8560336E+00
   1.5852584E-04   4.7702097E+05   -1.8555608E+00
   1.5925792E-04   4.7296061E+05   -1.8550870E+00
   1.5999339E-04   4.6893583E+05   -1.8546123E+00
   1.6073226E-04   4.6494631E+05   -1.8541368E+00
   1.6147454E-04   4.6099175E+05   -1.8536603E+00
   1.6222024E-04   4.5707183E+05   -1.8531829E+00
   1.6296939E-04   4.5318624E+05   -1.8527046E+00
   1.6372200E-04   4.4933468E+05   -1.8522253E+00
   1.6447809E-04   4.4551683E+05   -1.8517452E+00
   1.6523767E-04   4.4173240E+05   -1.8512642E+00
   1.6600075E-04   4.3798108E+05   -1.8507823E+00
   1.6676736E-04   4.3426259E+05   -1.8502995E+00
   1.6753751E-04   4.3057663E+05   -1.8498157E+00
   1.6831122E-04   4.2692290E+05   -1.8493311E+00
   1.6908849E-04   4.2330113E+05   -1.8488456E+00
   1.6986936E-04   4.1971102E+05   -1.8483593E+00
   1.7065384E-04   4.1615229E+05   -1.8478720E+00
   1.7144193E-04   4.1262467E+05   -1.8473839E+00
   1.7223367E-04   4.0912787E+05   -1.8468948E+00
   1.7302906E-04   4.0566161E+05   -1.8464049E+00
   1.7382813E-04   4.0222564E+05   -1.8459142E+00
   1.7463089E-04   3.9881967E+05   -1.8454226E+00
   1.7543735E-04   3.9544343E+05   -1.8449301E+00
   1.7624754E-04   3.9209667E+05   -1.8444367E+00
   1.7706147E-04   3.8877912E+05   -1.8439425E+00
   1.7787916E-04   3.8549051E+05   -1.8434474E+00
   1.7870062E-04   3.8223060E+05   -1.8429515E+00
   1.7952588E-04   3.7899912E+05   -1.8424547E+00
   1.8035495E-04   3.7579582E+05   -1.8419571E+00
   1.8118785E-04   3.7262045E+05   -1.8414586E+00
   1.8202459E-04   3.6947276E+05   -1.8409593E+00
   1.8286520E-04   3.6635251E+05   -1.8404591E+00
   1.8370969E-04   3.6325944E+05   -1.8399581E+00
   1.8455808E-04   3.6019332E+05   -1.8394563E+00
   1.8541039E-04   3.5715391E+05   -1.8389537E+00
   1.8626663E-04   3.5414096E+05   -1.8384502E+00
   1.8712683E-04   3.5115425E+05   -1.8379459E+00
   1.8799100E-04   3.4819353E+05   -1.8374408E+00
   1.8885917E-04   3.4525859E+05   -1.8369349E+00
   1.8973134E-04   3.4234918E+05   -1.8364281E+00
   1.9060754E-04   3.3946508E+05   -1.8359206E+00
   1.9148778E-04   3.3660606E+05   -1.8354122E+00
   1.9237209E-04   3.3377191E+05   -1.8349031E+00
   1.9326049E-04   3.3096239E+05   -1.8343931E+00
   1.9415299E-04   3.2817730E+05   -1.8338824E+00
   1.9504960E-04   3.2541641E+05   -1.8333708E+00
   1.9595036E-04   3.2267951E+05   -1.8328585E+00
   1.9685528E-04   3.1996638E+05   -1.8323454E+00
   1.9776438E-04   3.1727682E+05   -1.8318315E+00
   1.9867768E-04   3.1461060E+05   -1.8313169E+00
   1.9959519E-04   3.1196754E+05   -1.8308014E+00
   2.0051694E-04   3.0934741E+05   -1.8302852E+00
   2.0144295E-04   3.0675002E+05   -1.8297683E+00
   2.0237324E-04   3.0417517E+05   -1.8292505E+00
   2.0330782E-04   3.0162264E+05   -1.8287320E+00
   2.0424671E-04   2.9909226E+05   -1.8282128E+00
   2.0518995E-04   2.9658380E+05   -1.8276928E+00
   2.0613754E-04   2.9409710E+05   -1.8271721E+00
   2.0708950E-04   2.9163194E+05   -1.8266506E+00
   2.0804586E-04   2.8918814E+05   -1.8261284E+00
   2.0900664E-04   2.8676551E+05   -1.8256054E+00
   2.0997185E-04   2.8436387E+05   -1.8250818E+00
   2.1094152E-04   2.8198301E+05   -1.8245574E+00
   2.1191567E-04   2.7962277E+05   -1.8240323E+00
   2.1289432E-04   2.7728295E+05   -1.8235064E+00
   2.1387749E-04   2.7496338E+05   -1.8229799E+00
   2.1486520E-04   2.7266387E+05   -1.8224526E+00
   2.1585747E-04   2.7038426E+05   -1.8219246E+00
   2.1685432E-04   2.6812435E+05   -1.8213960E+00
   2.1785578E-04   2.6588398E+05   -1.8208666E+00
   2.1886186E-04   2.6366297E+05   -1.8203365E+00
   2.1987259E-04   2.6146116E+05   -1.8198058E+00
   2.2088798E-04   2.5927837E+05   -1.8192744E+00
   2.2190807E-04   2.5711443E+05   -1.8187423E+00
   2.2293286E-04   2.5496917E+05   -1.8182095E+00
   2.2396239E-04   2.5284244E+05   -1.8176760E+00
   2.2499667E-04   2.5073406E+05   -1.8171419E+00
   2.2603573E-04   2.4864388E+05   -1.8166071E+00
   2.2707958E-04   2.4657172E+05   -1.8160717E+00
   2.2812826E-04   2.4451744E+05   -1.8155356E+00
   2.2918178E-04   2.4248088E+05   -1.8149989E+00
   2.3024017E-04   2.4046187E+05   -1.8144615E+00
   2.3130344E-04   2.3846026E+05   -1.8139235E+00
   2.3237162E-04   2.3647590E+05   -1.8133848E+00
   2.3344474E-04   2.3450864E+05   -1.8128455E+00
   2.3452281E-04   2.3255832E+05   -1.8123056E+00
   2.3560586E-04   2.3062480E+05   -1.8117651E+00
   2.3669392E-04   2.2870792E+05   -1.8112239E+00
   2.3778699E-04   2.2680754E+05   -1.8106822E+00
   2.3888512E-04   2.2492351E+05   -1.8101398E+00
   2.3998831E-04   2.2305569E+05   -1.8095968E+00
   2.4109661E-04   2.2120393E+05   -1.8090532E+00
   2.4221001E-04   2.1936810E+05   -1.8085091E+00
   2.4332857E-04   2.1754805E+05   -1.8079643E+00
   2.4445228E-04   2.1574364E+05   -1.8074190E+00
   2.4558119E-04   2.1395473E+05   -1.8068731E+00
   2.4671531E-04   2.1218119E+05   -1.8063266E+00
   2.4785467E-04   2.1042289E+05   -1.8057796E+00
   2.4899928E-04   2.0867968E+05   -1.8052320E+00
   2.5014919E-04   2.0695143E+05   -1.8046838E+00
   2.5130440E-04   2.0523802E+05   -1.8041351E+00
   2.5246495E-04   2.0353931E+05   -1.8035858E+00
   2.5363086E-04   2.0185516E+05   -1.8030360E+00
   2.5480216E-04   2.0018546E+05   -1.8024856E+00
   2.5597886E-04   1.9853008E+05   -1.8019348E+00
   2.5716100E-04   1.9688888E+05   -1.8013833E+00
   2.5834859E-04   1.9526175E+05   -1.8008314E+00
   2.5954168E-04   1.9364856E+05   -1.8002789E+00
   2.6074027E-04   1.9204918E+05   -1.7997260E+00
   2.6194439E-04   1.9046350E+05   -1.7991725E+00
   2.6315408E-04   1.8889139E+05   -1.7986185E+00
   2.6436935E-04   1.8733274E+05   -1.7980641E+00
   2.6559024E-04   1.8578742E+05   -1.7975091E+00
   2.6681676E-04   1.8425533E+05   -1.7969536E+00
   2.6804895E-04   1.8273633E+05   -1.7963977E+00
   2.6928683E-04   1.8123032E+05   -1.7958413E+00
   2.7053042E-04   1.7973719E+05   -1.7952844E+00
   2.7177976E-04   1.7825681E+05   -1.7947271E+00
   2.7303487E-04   1.7678908E+05   -1.7941693E+00
   2.7429577E-04   1.7533389E+05   -1.7936110E+00
   2.7556250E-04   1.7389112E+05   -1.7930523E+00
   2.7683507E-04   1.7246067E+05   -1.7924931E+00
   2.7811353E-04   1.7104243E+05   -1.7919335E+00
   2.7939788E-04   1.6963629E+05   -1.7913735E+00
   2.8068817E-04   1.6824214E+05   -1.7908130E+00
   2.8198442E-04   1.6685988E+05   -1.7902522E+00
   2.8328665E-04   1.6548940E+05   -1.7896909E+00
   2.8459490E-04   1.6413061E+05   -1.7891292E+00
   2.8590919E-04   1.6278339E+05   -1.7885671E+00
   2.8722955E-04   1.6144765E+05   -1.7880045E+00
   2.8855600E-04   1.6012329E+05   -1.7874416E+00
   2.8988859E-04   1.5881020E+05   -1.7868783E+00
   2.9122732E-04   1.5750829E+05   -1.7863147E+00
   2.9257224E-04   1.5621745E+05   -1.7857506E+00
   2.9392337E-04   1.5493760E+05   -1.7851862E+00
   2.9528074E-04   1.5366864E+05   -1.7846214E+00
   2.9664438E-04   1.5241046E+05   -1.7840562E+00
   2.9801431E-04   1.5116298E+05   -1.7834907E+00
   2.9939057E-04   1.4992610E+05   -1.7829249E+00
   3.0077319E-04   1.4869973E+05   -1.7823586E+00
   3.0216219E-04   1.4748377E+05   -1.7817921E+00
   3.0355761E-04   1.4627814E+05   -1.7812252E+00
   3.0495947E-04   1.4508275E+05   -1.7806580E+00
   3.0636780E-04   1.4389750E+05   -1.7800905E+00
   3.0778264E-04   1.4272231E+05   -1.7795226E+00
   3.0920401E-04   1.4155708E+05   -1.7789545E+00
   3.1063195E-04   1.4040174E+05   -1.7783860E+00
   3.1206648E-04   1.3925619E+05   -1.7778173E+00
   3.1350764E-04   1.3812034E+05   -1.7772482E+00
   3.1495545E-04   1.3699413E+05   -1.7766789E+00
   3.1640994E-04   1.3587745E+05   -1.7761093E+00
   3.1787116E-04   1.3477023E+05   -1.7755394E+00
   3.1933912E-04   1.3367238E+05   -1.7749693E+00
   3.2081386E-04   1.3258382E+05   -1.7743988E+00
   3.2229541E-04   1.3150447E+05   -1.7738282E+00
   3.2378381E-04   1.3043426E+05   -1.7732572E+00
   3.2527908E-04   1.2937309E+05   -1.7726860E+00
   3.2678125E-04   1.2832089E+05   -1.7721146E+00
   3.2829036E-04   1.2727759E+05   -1.7715430E+00
   3.2980644E-04   1.2624310E+05   -1.7709711E+00
   3.3132952E-04   1.2521735E+05   -1.7703990E+00
   3.3285963E-04   1.2420026E+05   -1.7698267E+00
   3.3439681E-04   1.2319176E+05   -1.7692542E+00
   3.3594109E-04   1.2219177E+05   -1.7686815E+00
   3.3749250E-04   1.2120022E+05   -1.7681085E+00
   3.3905108E-04   1.2021703E+05   -1.7675354E+00
   3.4061685E-04   1.1924213E+05   -1.7669621E+00
   3.4218986E-04   1.1827545E+05   -1.7663886E+00
   3.4377013E-04   1.1731692E+05   -1.7658150E+00
   3.4535769E-04   1.1636646E+05   -1.7652411E+00
   3.4695259E-04   1.1542401E+05   -1.7646672E+00
   3.4855485E-04   1.1448949E+05   -1.7640930E+00
   3.5016452E-04   1.1356284E+05   -1.7635187E+00
   3.5178161E-04   1.1264399E+05   -1.7629443E+00
   3.5340618E-04   1.1173286E+05   -1.7623697E+00
   3.5503824E-04   1.1082941E+05   -1.7617950E+00
   3.5667785E-04   1.0993354E+05   -1.7612202E+00
   3.5832502E-04   1.0904521E+05   -1.7606452E+00
   3.5997981E-04   1.0816434E+05   -1.7600702E+00
   3.6164223E-04   1.0729088E+05   -1.7594950E+00
   3.6331233E-04   1.0642475E+05   -1.7589197E+00
   3.6499015E-04   1.0556589E+05   -1.7583443E+00
   3.6667571E-04   1.0471424E+05   -1.7577689E+00
   3.6836906E-04   1.0386973E+05   -1.7571933E+00
   3.7007022E-04   1.0303231E+05   -1.7566177E+00
   3.7177925E-04   1.0220191E+05   -1.7560420E+00
   3.7349616E-04   1.0137848E+05   -1.7554663E+00
   3.7522101E-04   1.0056194E+05   -1.7548904E+00
   3.7695382E-04   9.9752246E+04   -1.7543146E+00
   3.7869463E-04   9.8949334E+04   -1.7537387E+00
   3.8044348E-04   9.8153145E+04   -1.7531627E+00
   3.8220041E-04   9.7363621E+04   -1.7525867E+00
   3.8396545E-04   9.6580704E+04   -1.7520107E+00
   3.8573864E-04   9.5804337E+04   -1.7514347E+00
   3.8752002E-04   9.5034463E+04   -1.7508586E+00
   3.8930963E-04   9.4271026E+04   -1.7502825E+00
   3.9110750E-04   9.3513969E+04   -1.7497065E+00
   3.9291368E-04   9.2763239E+04   -1.7491304E+00
   3.9472820E-04   9.2018780E+04   -1.7485543E+00
   3.9655109E-04   9.1280537E+04   -1.7479783E+00
   3.9838241E-04   9.0548458E+04   -1.7474023E+00
   4.0022218E-04   8.9822488E+04   -1.7468263E+00
   4.0207045E-04   8.9102576E+04   -1.7462503E+00
   4.0392725E-04   8.8388667E+04   -1.7456744E+00
   4.0579263E-04   8.7680712E+04   -1.7450985E+00
   4.0766662E-04   8.6978658E+04   -1.7445227E+00
   4.0954927E-04   8.6282454E+04   -1.7439469E+00
   4.1144061E-04   8.5592049E+04   -1.7433712E+00
   4.1334068E-04   8.4907394E+04   -1.7427955E+00
   4.1524953E-04   8.4228440E+04   -1.7422200E+00
   4.1716720E-04   8.3555135E+04   -1.7416445E+00
   4.1909372E-04   8.2887433E+04   -1.7410691E+00
   4.2102914E-04   8.2225285E+04   -1.7404938E+00
   4.2297350E-04   8.1568642E+04   -1.7399186E+00
   4.2492683E-04   8.0917458E+04   -1.7393435E+00
   4.2688919E-04   8.0271685E+04   -1.7387685E+00
   4.2886061E-04   7.9631276E+04   -1.7381936E+00
   4.3084113E-04   7.8996187E+04   -1.7376189E+00
   4.3283080E-04   7.8366369E+04   -1.7370443E+00
   4.3482966E-04   7.7741779E+04   -1.7364698E+00
   4.3683775E-04   7.7122371E+04   -1.7358955E+00
   4.3885511E-04   7.6508100E+04   -1.7353213E+00
   4.4088179E-04   7.5898923E+04   -1.7347473E+00
   4.4291783E-04   7.5294796E+04   -1.7341734E+00
   4.4496327E-04   7.4695674E+04   -1.7335997E+00
   4.4701816E-04   7.4101515E+04   -1.7330261E+00
   4.4908253E-04   7.3512277E+04   -1.7324528E+00
   4.5115644E-04   7.2927917E+04   -1.7318796E+00
   4.5323993E-04   7.2348394E+04   -1.7313066E+00
   4.5533304E-04   7.1773665E+04   -1.7307339E+00
   4.5743582E-04   7.1203689E+04   -1.7301613E+00
   4.5954830E-04   7.0638426E+04   -1.7295889E+00
   4.6167054E-04   7.0077836E+04   -1.7290167E+00
   4.6380259E-04   6.9521877E+04   -1.7284448E+00
   4.6594448E-04   6.8970511E+04   -1.7278731E+00
   4.6809626E-04   6.8423697E+04   -1.7273016E+00
   4.7025797E-04   6.7881398E+04   -1.7267304E+00
   4.7242967E-04   6.7343574E+04   -1.7261594E+00
   4.7461140E-04   6.6810187E+04   -1.7255886E+00
   4.7680321E-04   6.6281198E+04   -1.7250181E+00
   4.7900514E-04   6.5756571E+04   -1.7244479E+00
   4.8121723E-04   6.5236268E+04   -1.7238779E+00
   4.8343954E-04   6.4720252E+04   -1.7233082E+00
   4.8567212E-04   6.4208486E+04   -1.7227388E+00
   4.8791500E-04   6.3700934E+04   -1.7221697E+00
   4.9016825E-04   6.3197559E+04   -1.7216008E+00
   4.9243189E-04   6.2698327E+04   -1.7210323E+00
   4.9470600E-04   6.2203201E+04   -1.7204640E+00
   4.9699060E-04   6.1712146E+04   -1.7198961E+00
   4.9928575E-04   6.1225129E+04   -1.7193285E+00
   5.0159151E-04   6.0742113E+04   -1.7187612E+00
   5.0390791E-04   6.0263066E+04   -1.7181942E+00
   5.0623501E-04   5.9787953E+04   -1.7176276E+00
   5.0857286E-04   5.9316740E+04   -1.7170613E+00
   5.1092150E-04   5.8849395E+04   -1.7164953E+00
   5.1328099E-04   5.8385884E+04   -1.7159297E+00
   5.1565137E-04   5.7926175E+04   -1.7153644E+00
   5.1803270E-04   5.7470235E+04   -1.7147995E+00
   5.2042503E-04   5.7018032E+04   -1.7142350E+00
   5.2282841E-04   5.6569534E+04   -1.7136708E+00
   5.2524289E-04   5.6124710E+04   -1.7131070E+00
   5.2766851E-04   5.5683528E+04   -1.7125436E+00
   5.3010534E-04   5.5245958E+04   -1.7119806E+00
   5.3255342E-04   5.4811968E+04   -1.7114180E+00
   5.3501281E-04   5.4381528E+04   -1.7108557E+00
   5.3748356E-04   5.3954609E+04   -1.7102939E+00
   5.3996571E-04   5.3531179E+04   -1.7097325E+00
   5.4245933E-04   5.3111210E+04   -1.7091715E+00
   5.4496446E-04   5.2694672E+04   -1.7086109E+00
   5.4748117E-04   5.2281535E+04   -1.7080507E+00
   5.5000949E-04   5.1871772E+04   -1.7074910E+00
   5.5254949E-04   5.1465353E+04   -1.7069317E+00
   5.5510123E-04   5.1062249E+04   -1.7063729E+00
   5.5766474E-04   5.0662434E+04   -1.7058145E+00
   5.6024010E-04   5.0265878E+04   -1.7052566E+00
   5.6282734E-04   4.9872554E+04   -1.7046991E+00
   5.6542654E-04   4.9482435E+04   -1.7041420E+00
   5.6803774E-04   4.9095493E+04   -1.7035855E+00
   5.7066099E-04   4.8711703E+04   -1.7030294E+00
   5.7329637E-04   4.8331036E+04   -1.7024738E+00
   5.7594391E-04   4.7953467E+04   -1.7019187E+00
   5.7860368E-04   4.7578969E+04   -1.7013641E+00
   5.8127573E-04   4.7207516E+04   -1.7008099E+00
   5.8396012E-04   4.6839083E+04   -1.7002563E+00
   5.8665691E-04   4.6473643E+04   -1.6997032E+00
   5.8936616E-04   4.6111173E+04   -1.6991506E+00
   5.9208791E-04   4.5751645E+04   -1.6985985E+00
   5.9482223E-04   4.5395037E+04   -1.6980469E+00
   5.9756919E-04   4.5041322E+04   -1.6974959E+00
   6.0032882E-04   4.4690477E+04   -1.6969454E+00
   6.0310120E-04   4.4342477E+04   -1.6963954E+00
   6.0588639E-04   4.3997299E+04   -1.6958459E+00
   6.0868443E-04   4.3654918E+04   -1.6952970E+00
   6.1149540E-04   4.3315311E+04   -1.6947487E+00
   6.1431935E-04   4.2978454E+04   -1.6942009E+00
   6.1715634E-04   4.2644325E+04   -1.6936537E+00
   6.2000644E-04   4.2312900E+04   -1.6931070E+00
   6.2286969E-04   4.1984156E+04   -1.6925610E+00
