#        a       HoverH0(a)       dlogHdloga_of_a(a)
   1.0000000E-04   1.0858487E+06   -1.8422736E+00
   1.0046181E-04   1.0766720E+06   -1.8417757E+00
   1.0092575E-04   1.0675753E+06   -1.8412769E+00
   1.0139184E-04   1.0585579E+06   -1.8407773E+00
   1.0186008E-04   1.0496191E+06   -1.8402769E+00
   1.0233048E-04   1.0407582E+06   -1.8397756E+00
   1.0280305E-04   1.0319745E+06   -1.8392735E+00
   1.0327781E-04   1.0232672E+06   -1.8387706E+00
   1.0375475E-04   1.0146358E+06   -1.8382669E+00
   1.0423390E-04   1.0060795E+06   -1.8377623E+00
   1.0471527E-04   9.9759774E+05   -1.8372569E+00
   1.0519885E-04   9.8918976E+05   -1.8367507E+00
   1.0568467E-04   9.8085493E+05   -1.8362437E+00
   1.0617274E-04   9.7259260E+05   -1.8357359E+00
   1.0666305E-04   9.6440213E+05   -1.8352273E+00
   1.0715563E-04   9.5628288E+05   -1.8347179E+00
   1.0765049E-04   9.4823421E+05   -1.8342077E+00
   1.0814763E-04   9.4025550E+05   -1.8336967E+00
   1.0864707E-04   9.3234612E+05   -1.8331849E+00
   1.0914881E-04   9.2450545E+05   -1.8326723E+00
   1.0965287E-04   9.1673289E+05   -1.8321590E+00
   1.1015926E-04   9.0902782E+05   -1.8316448E+00
   1.1066799E-04   9.0138965E+05   -1.8311299E+00
   1.1117906E-04   8.9381778E+05   -1.8306142E+00
   1.1169250E-04   8.8631163E+05   -1.8300978E+00
   1.1220831E-04   8.7887060E+05   -1.8295806E+00
   1.1272650E-04   8.7149412E+05   -1.8290626E+00
   1.1324708E-04   8.6418162E+05   -1.8285439E+00
   1.1377007E-04   8.5693253E+05   -1.8280244E+00
   1.1429547E-04   8.4974628E+05   -1.8275042E+00
   1.1482330E-04   8.4262232E+05   -1.8269832E+00
   1.1535356E-04   8.3556009E+05   -1.8264615E+00
   1.1588628E-04   8.2855904E+05   -1.8259391E+00
   1.1642145E-04   8.2161863E+05   -1.8254159E+00
   1.1695910E-04   8.1473832E+05   -1.8248920E+00
   1.1749923E-04   8.0791758E+05   -1.8243674E+00
   1.1804185E-04   8.0115588E+05   -1.8238420E+00
   1.1858698E-04   7.9445269E+05   -1.8233160E+00
   1.1913463E-04   7.8780750E+05   -1.8227892E+00
   1.1968481E-04   7.8121979E+05   -1.8222617E+00
   1.2023752E-04   7.7468905E+05   -1.8217335E+00
   1.2079279E-04   7.6821478E+05   -1.8212046E+00
   1.2135063E-04   7.6179647E+05   -1.8206751E+00
   1.2191104E-04   7.5543363E+05   -1.8201448E+00
   1.2247403E-04   7.4912577E+05   -1.8196138E+00
   1.2303963E-04   7.4287239E+05   -1.8190822E+00
   1.2360784E-04   7.3667303E+05   -1.8185499E+00
   1.2417868E-04   7.3052719E+05   -1.8180169E+00
   1.2475215E-04   7.2443440E+05   -1.8174833E+00
   1.2532826E-04   7.1839419E+05   -1.8169489E+00
   1.2590704E-04   7.1240610E+05   -1.8164140E+00
   1.2648850E-04   7.0646967E+05   -1.8158783E+00
   1.2707263E-04   7.0058444E+05   -1.8153420E+00
   1.2765947E-04   6.9474994E+05   -1.8148051E+00
   1.2824901E-04   6.8896575E+05   -1.8142675E+00
   1.2884128E-04   6.8323141E+05   -1.8137293E+00
   1.2943628E-04   6.7754647E+05   -1.8131905E+00
   1.3003403E-04   6.7191051E+05   -1.8126510E+00
   1.3063454E-04   6.6632308E+05   -1.8121109E+00
   1.3123783E-04   6.6078377E+05   -1.8115702E+00
   1.3184390E-04   6.5529213E+05   -1.8110289E+00
   1.3245277E-04   6.4984776E+05   -1.8104869E+00
   1.3306445E-04   6.4445023E+05   -1.8099444E+00
   1.3367895E-04   6.3909913E+05   -1.8094013E+00
   1.3429630E-04   6.3379405E+05   -1.8088575E+00
   1.3491649E-04   6.2853458E+05   -1.8083132E+00
   1.3553955E-04   6.2332032E+05   -1.8077683E+00
   1.3616548E-04   6.1815087E+05   -1.8072228E+00
   1.3679431E-04   6.1302584E+05   -1.8066767E+00
   1.3742604E-04   6.0794482E+05   -1.8061301E+00
   1.3806069E-04   6.0290744E+05   -1.8055829E+00
   1.3869827E-04   5.9791331E+05   -1.8050351E+00
   1.3933879E-04   5.9296204E+05   -1.8044868E+00
   1.3998227E-04   5.8805326E+05   -1.8039379E+00
   1.4062872E-04   5.8318660E+05   -1.8033885E+00
   1.4127816E-04   5.7836167E+05   -1.8028385E+00
   1.4193060E-04   5.7357811E+05   -1.8022880E+00
   1.4258605E-04   5.6883557E+05   -1.8017370E+00
   1.4324453E-04   5.6413367E+05   -1.8011855E+00
   1.4390605E-04   5.5947205E+05   -1.8006334E+00
   1.4457062E-04   5.5485037E+05   -1.8000808E+00
   1.4523826E-04   5.5026827E+05   -1.7995277E+00
   1.4590899E-04   5.4572540E+05   -1.7989741E+00
   1.4658281E-04   5.4122142E+05   -1.7984200E+00
   1.4725974E-04   5.3675598E+05   -1.7978654E+00
   1.4793981E-04   5.3232875E+05   -1.7973103E+00
   1.4862301E-04   5.2793938E+05   -1.7967547E+00
   1.4930936E-04   5.2358754E+05   -1.7961987E+00
   1.4999889E-04   5.1927291E+05   -1.7956422E+00
   1.5069160E-04   5.1499516E+05   -1.7950852E+00
   1.5138751E-04   5.1075395E+05   -1.7945277E+00
   1.5208663E-04   5.0654898E+05   -1.7939698E+00
   1.5278899E-04   5.0237991E+05   -1.7934114E+00
   1.5349458E-04   4.9824644E+05   -1.7928526E+00
   1.5420343E-04   4.9414826E+05   -1.7922933E+00
   1.5491556E-04   4.9008504E+05   -1.7917336E+00
   1.5563098E-04   4.8605649E+05   -1.7911735E+00
   1.5634970E-04   4.8206230E+05   -1.7906130E+00
   1.5707174E-04   4.7810217E+05   -1.7900520E+00
   1.5779711E-04   4.7417580E+05   -1.7894906E+00
   1.5852584E-04   4.7028289E+05   -1.7889288E+00
   1.5925792E-04   4.6642314E+05   -1.7883666E+00
   1.5999339E-04   4.6259627E+05   -1.7878040E+00
   1.6073226E-04   4.5880199E+05   -1.7872411E+00
   1.6147454E-04   4.5504001E+05   -1.7866777E+00
   1.6222024E-04   4.5131005E+05   -1.7861139E+00
   1.6296939E-04   4.4761183E+05   -1.7855498E+00
   1.6372200E-04   4.4394507E+05   -1.7849853E+00
   1.6447809E-04   4.4030949E+05   -1.7844204E+00
   1.6523767E-04   4.3670482E+05   -1.7838552E+00
   1.6600075E-04   4.3313079E+05   -1.7832896E+00
   1.6676736E-04   4.2958713E+05   -1.7827237E+00
   1.6753751E-04   4.2607357E+05   -1.7821574E+00
   1.6831122E-04   4.2258985E+05   -1.7815908E+00
   1.6908849E-04   4.1913571E+05   -1.7810239E+00
   1.6986936E-04   4.1571089E+05   -1.7804567E+00
   1.7065384E-04   4.1231514E+05   -1.7798891E+00
   1.7144193E-04   4.0894819E+05   -1.7793212E+00
   1.7223367E-04   4.0560979E+05   -1.7787530E+00
   1.7302906E-04   4.0229971E+05   -1.7781845E+00
   1.7382813E-04   3.9901768E+05   -1.7776157E+00
   1.7463089E-04   3.9576346E+05   -1.7770466E+00
   1.7543735E-04   3.9253682E+05   -1.7764773E+00
   1.7624754E-04   3.8933750E+05   -1.7759076E+00
   1.7706147E-04   3.8616527E+05   -1.7753377E+00
   1.7787916E-04   3.8301989E+05   -1.7747675E+00
   1.7870062E-04   3.7990113E+05   -1.7741971E+00
   1.7952588E-04   3.7680876E+05   -1.7736264E+00
   1.8035495E-04   3.7374254E+05   -1.7730554E+00
   1.8118785E-04   3.7070225E+05   -1.7724843E+00
   1.8202459E-04   3.6768766E+05   -1.7719128E+00
   1.8286520E-04   3.6469854E+05   -1.7713412E+00
   1.8370969E-04   3.6173468E+05   -1.7707693E+00
   1.8455808E-04   3.5879584E+05   -1.7701972E+00
   1.8541039E-04   3.5588183E+05   -1.7696249E+00
   1.8626663E-04   3.5299241E+05   -1.7690524E+00
   1.8712683E-04   3.5012737E+05   -1.7684796E+00
   1.8799100E-04   3.4728651E+05   -1.7679067E+00
   1.8885917E-04   3.4446960E+05   -1.7673336E+00
   1.8973134E-04   3.4167644E+05   -1.7667603E+00
   1.9060754E-04   3.3890683E+05   -1.7661869E+00
   1.9148778E-04   3.3616056E+05   -1.7656132E+00
   1.9237209E-04   3.3343742E+05   -1.7650394E+00
   1.9326049E-04   3.3073722E+05   -1.7644654E+00
   1.9415299E-04   3.2805975E+05   -1.7638913E+00
   1.9504960E-04   3.2540481E+05   -1.7633171E+00
   1.9595036E-04   3.2277222E+05   -1.7627427E+00
   1.9685528E-04   3.2016177E+05   -1.7621681E+00
   1.9776438E-04   3.1757328E+05   -1.7615934E+00
   1.9867768E-04   3.1500654E+05   -1.7610187E+00
   1.9959519E-04   3.1246138E+05   -1.7604437E+00
   2.0051694E-04   3.0993761E+05   -1.7598687E+00
   2.0144295E-04   3.0743503E+05   -1.7592936E+00
   2.0237324E-04   3.0495347E+05   -1.7587184E+00
   2.0330782E-04   3.0249275E+05   -1.7581431E+00
   2.0424671E-04   3.0005267E+05   -1.7575677E+00
   2.0518995E-04   2.9763306E+05   -1.7569922E+00
   2.0613754E-04   2.9523375E+05   -1.7564166E+00
   2.0708950E-04   2.9285456E+05   -1.7558410E+00
   2.0804586E-04   2.9049531E+05   -1.7552653E+00
   2.0900664E-04   2.8815584E+05   -1.7546895E+00
   2.0997185E-04   2.8583596E+05   -1.7541138E+00
   2.1094152E-04   2.8353551E+05   -1.7535379E+00
   2.1191567E-04   2.8125432E+05   -1.7529620E+00
   2.1289432E-04   2.7899223E+05   -1.7523861E+00
   2.1387749E-04   2.7674906E+05   -1.7518102E+00
   2.1486520E-04   2.7452466E+05   -1.7512342E+00
   2.1585747E-04   2.7231885E+05   -1.7506583E+00
   2.1685432E-04   2.7013149E+05   -1.7500823E+00
   2.1785578E-04   2.6796241E+05   -1.7495063E+00
   2.1886186E-04   2.6581145E+05   -1.7489303E+00
   2.1987259E-04   2.6367846E+05   -1.7483544E+00
   2.2088798E-04   2.6156328E+05   -1.7477784E+00
   2.2190807E-04   2.5946576E+05   -1.7472025E+00
   2.2293286E-04   2.5738573E+05   -1.7466266E+00
   2.2396239E-04   2.5532306E+05   -1.7460508E+00
   2.2499667E-04   2.5327760E+05   -1.7454750E+00
   2.2603573E-04   2.5124918E+05   -1.7448992E+00
   2.2707958E-04   2.4923767E+05   -1.7443235E+00
   2.2812826E-04   2.4724292E+05   -1.7437478E+00
   2.2918178E-04   2.4526479E+05   -1.7431723E+00
   2.3024017E-04   2.4330313E+05   -1.7425967E+00
   2.3130344E-04   2.4135780E+05   -1.7420213E+00
   2.3237162E-04   2.3942865E+05   -1.7414460E+00
   2.3344474E-04   2.3751556E+05   -1.7408707E+00
   2.3452281E-04   2.3561837E+05   -1.7402955E+00
   2.3560586E-04   2.3373696E+05   -1.7397205E+00
   2.3669392E-04   2.3187119E+05   -1.7391455E+00
   2.3778699E-04   2.3002092E+05   -1.7385707E+00
   2.3888512E-04   2.2818602E+05   -1.7379960E+00
   2.3998831E-04   2.2636635E+05   -1.7374214E+00
   2.4109661E-04   2.2456179E+05   -1.7368469E+00
   2.4221001E-04   2.2277221E+05   -1.7362726E+00
   2.4332857E-04   2.2099747E+05   -1.7356984E+00
   2.4445228E-04   2.1923745E+05   -1.7351244E+00
   2.4558119E-04   2.1749202E+05   -1.7345505E+00
   2.4671531E-04   2.1576106E+05   -1.7339768E+00
   2.4785467E-04   2.1404444E+05   -1.7334033E+00
   2.4899928E-04   2.1234204E+05   -1.7328299E+00
   2.5014919E-04   2.1065374E+05   -1.7322568E+00
   2.5130440E-04   2.0897941E+05   -1.7316838E+00
   2.5246495E-04   2.0731894E+05   -1.7311110E+00
   2.5363086E-04   2.0567220E+05   -1.7305384E+00
   2.5480216E-04   2.0403908E+05   -1.7299660E+00
   2.5597886E-04   2.0241946E+05   -1.7293938E+00
   2.5716100E-04   2.0081323E+05   -1.7288218E+00
   2.5834859E-04   1.9922027E+05   -1.7282501E+00
   2.5954168E-04   1.9764046E+05   -1.7276786E+00
   2.6074027E-04   1.9607370E+05   -1.7271073E+00
   2.6194439E-04   1.9451987E+05   -1.7265362E+00
   2.6315408E-04   1.9297886E+05   -1.7259655E+00
   2.6436935E-04   1.9145057E+05   -1.7253949E+00
   2.6559024E-04   1.8993487E+05   -1.7248246E+00
   2.6681676E-04   1.8843168E+05   -1.7242546E+00
   2.6804895E-04   1.8694086E+05   -1.7236849E+00
   2.6928683E-04   1.8546233E+05   -1.7231154E+00
   2.7053042E-04   1.8399598E+05   -1.7225462E+00
   2.7177976E-04   1.8254170E+05   -1.7219773E+00
   2.7303487E-04   1.8109939E+05   -1.7214087E+00
   2.7429577E-04   1.7966894E+05   -1.7208404E+00
   2.7556250E-04   1.7825026E+05   -1.7202724E+00
   2.7683507E-04   1.7684325E+05   -1.7197047E+00
   2.7811353E-04   1.7544780E+05   -1.7191373E+00
   2.7939788E-04   1.7406381E+05   -1.7185703E+00
   2.8068817E-04   1.7269120E+05   -1.7180035E+00
   2.8198442E-04   1.7132985E+05   -1.7174371E+00
   2.8328665E-04   1.6997968E+05   -1.7168711E+00
   2.8459490E-04   1.6864059E+05   -1.7163054E+00
   2.8590919E-04   1.6731249E+05   -1.7157400E+00
   2.8722955E-04   1.6599527E+05   -1.7151750E+00
   2.8855600E-04   1.6468886E+05   -1.7146104E+00
   2.8988859E-04   1.6339315E+05   -1.7140461E+00
   2.9122732E-04   1.6210806E+05   -1.7134822E+00
   2.9257224E-04   1.6083349E+05   -1.7129187E+00
   2.9392337E-04   1.5956936E+05   -1.7123555E+00
   2.9528074E-04   1.5831558E+05   -1.7117928E+00
   2.9664438E-04   1.5707205E+05   -1.7112304E+00
   2.9801431E-04   1.5583869E+05   -1.7106685E+00
   2.9939057E-04   1.5461542E+05   -1.7101069E+00
   3.0077319E-04   1.5340215E+05   -1.7095458E+00
   3.0216219E-04   1.5219879E+05   -1.7089851E+00
   3.0355761E-04   1.5100526E+05   -1.7084248E+00
   3.0495947E-04   1.4982148E+05   -1.7078650E+00
   3.0636780E-04   1.4864736E+05   -1.7073055E+00
   3.0778264E-04   1.4748283E+05   -1.7067465E+00
   3.0920401E-04   1.4632779E+05   -1.7061880E+00
   3.1063195E-04   1.4518217E+05   -1.7056299E+00
   3.1206648E-04   1.4404589E+05   -1.7050723E+00
   3.1350764E-04   1.4291887E+05   -1.7045151E+00
   3.1495545E-04   1.4180104E+05   -1.7039584E+00
   3.1640994E-04   1.4069230E+05   -1.7034022E+00
   3.1787116E-04   1.3959260E+05   -1.7028464E+00
   3.1933912E-04   1.3850184E+05   -1.7022911E+00
   3.2081386E-04   1.3741996E+05   -1.7017363E+00
   3.2229541E-04   1.3634688E+05   -1.7011820E+00
   3.2378381E-04   1.3528252E+05   -1.7006282E+00
   3.2527908E-04   1.3422681E+05   -1.7000749E+00
   3.2678125E-04   1.3317969E+05   -1.6995222E+00
   3.2829036E-04   1.3214106E+05   -1.6989699E+00
   3.2980644E-04   1.3111087E+05   -1.6984181E+00
   3.3132952E-04   1.3008904E+05   -1.6978669E+00
   3.3285963E-04   1.2907551E+05   -1.6973162E+00
   3.3439681E-04   1.2807019E+05   -1.6967660E+00
   3.3594109E-04   1.2707303E+05   -1.6962164E+00
   3.3749250E-04   1.2608395E+05   -1.6956673E+00
   3.3905108E-04   1.2510288E+05   -1.6951188E+00
   3.4061685E-04   1.2412976E+05   -1.6945708E+00
   3.4218986E-04   1.2316453E+05   -1.6940234E+00
   3.4377013E-04   1.2220710E+05   -1.6934765E+00
   3.4535769E-04   1.2125743E+05   -1.6929302E+00
   3.4695259E-04   1.2031543E+05   -1.6923845E+00
   3.4855485E-04   1.1938106E+05   -1.6918394E+00
   3.5016452E-04   1.1845424E+05   -1.6912948E+00
   3.5178161E-04   1.1753490E+05   -1.6907509E+00
   3.5340618E-04   1.1662300E+05   -1.6902075E+00
   3.5503824E-04   1.1571846E+05   -1.6896647E+00
   3.5667785E-04   1.1482122E+05   -1.6891225E+00
   3.5832502E-04   1.1393123E+05   -1.6885810E+00
   3.5997981E-04   1.1304841E+05   -1.6880400E+00
   3.6164223E-04   1.1217272E+05   -1.6874997E+00
   3.6331233E-04   1.1130408E+05   -1.6869600E+00
   3.6499015E-04   1.1044245E+05   -1.6864209E+00
   3.6667571E-04   1.0958776E+05   -1.6858824E+00
   3.6836906E-04   1.0873995E+05   -1.6853446E+00
   3.7007022E-04   1.0789897E+05   -1.6848074E+00
   3.7177925E-04   1.0706475E+05   -1.6842709E+00
   3.7349616E-04   1.0623725E+05   -1.6837350E+00
   3.7522101E-04   1.0541641E+05   -1.6831998E+00
   3.7695382E-04   1.0460216E+05   -1.6826652E+00
   3.7869463E-04   1.0379446E+05   -1.6821313E+00
   3.8044348E-04   1.0299325E+05   -1.6815980E+00
   3.8220041E-04   1.0219848E+05   -1.6810654E+00
   3.8396545E-04   1.0141008E+05   -1.6805335E+00
   3.8573864E-04   1.0062802E+05   -1.6800023E+00
   3.8752002E-04   9.9852231E+04   -1.6794718E+00
   3.8930963E-04   9.9082665E+04   -1.6789419E+00
   3.9110750E-04   9.8319270E+04   -1.6784128E+00
   3.9291368E-04   9.7561994E+04   -1.6778843E+00
   3.9472820E-04   9.6810786E+04   -1.6773566E+00
   3.9655109E-04   9.6065596E+04   -1.6768295E+00
   3.9838241E-04   9.5326374E+04   -1.6763032E+00
   4.0022218E-04   9.4593069E+04   -1.6757775E+00
   4.0207045E-04   9.3865632E+04   -1.6752526E+00
   4.0392725E-04   9.3144015E+04   -1.6747284E+00
   4.0579263E-04   9.2428168E+04   -1.6742050E+00
   4.0766662E-04   9.1718044E+04   -1.6736822E+00
   4.0954927E-04   9.1013595E+04   -1.6731602E+00
   4.1144061E-04   9.0314773E+04   -1.6726390E+00
   4.1334068E-04   8.9621532E+04   -1.6721185E+00
   4.1524953E-04   8.8933826E+04   -1.6715987E+00
   4.1716720E-04   8.8251607E+04   -1.6710797E+00
   4.1909372E-04   8.7574832E+04   -1.6705614E+00
   4.2102914E-04   8.6903453E+04   -1.6700439E+00
   4.2297350E-04   8.6237427E+04   -1.6695271E+00
   4.2492683E-04   8.5576709E+04   -1.6690112E+00
   4.2688919E-04   8.4921256E+04   -1.6684959E+00
   4.2886061E-04   8.4271022E+04   -1.6679815E+00
   4.3084113E-04   8.3625965E+04   -1.6674678E+00
   4.3283080E-04   8.2986042E+04   -1.6669550E+00
   4.3482966E-04   8.2351211E+04   -1.6664428E+00
   4.3683775E-04   8.1721428E+04   -1.6659315E+00
   4.3885511E-04   8.1096653E+04   -1.6654210E+00
   4.4088179E-04   8.0476843E+04   -1.6649113E+00
   4.4291783E-04   7.9861958E+04   -1.6644023E+00
   4.4496327E-04   7.9251956E+04   -1.6638942E+00
   4.4701816E-04   7.8646798E+04   -1.6633869E+00
   4.4908253E-04   7.8046443E+04   -1.6628804E+00
   4.5115644E-04   7.7450851E+04   -1.6623747E+00
   4.5323993E-04   7.6859983E+04   -1.6618698E+00
   4.5533304E-04   7.6273801E+04   -1.6613657E+00
   4.5743582E-04   7.5692265E+04   -1.6608625E+00
   4.5954830E-04   7.5115336E+04   -1.6603600E+00
   4.6167054E-04   7.4542978E+04   -1.6598584E+00
   4.6380259E-04   7.3975151E+04   -1.6593577E+00
   4.6594448E-04   7.3411819E+04   -1.6588577E+00
   4.6809626E-04   7.2852945E+04   -1.6583587E+00
   4.7025797E-04   7.2298491E+04   -1.6578604E+00
   4.7242967E-04   7.1748422E+04   -1.6573630E+00
   4.7461140E-04   7.1202700E+04   -1.6568664E+00
   4.7680321E-04   7.0661291E+04   -1.6563707E+00
   4.7900514E-04   7.0124159E+04   -1.6558759E+00
   4.8121723E-04   6.9591268E+04   -1.6553819E+00
   4.8343954E-04   6.9062584E+04   -1.6548888E+00
   4.8567212E-04   6.8538072E+04   -1.6543965E+00
   4.8791500E-04   6.8017698E+04   -1.6539051E+00
   4.9016825E-04   6.7501427E+04   -1.6534145E+00
   4.9243189E-04   6.6989226E+04   -1.6529249E+00
   4.9470600E-04   6.6481062E+04   -1.6524361E+00
   4.9699060E-04   6.5976901E+04   -1.6519482E+00
   4.9928575E-04   6.5476710E+04   -1.6514611E+00
   5.0159151E-04   6.4980457E+04   -1.6509750E+00
   5.0390791E-04   6.4488109E+04   -1.6504897E+00
   5.0623501E-04   6.3999635E+04   -1.6500054E+00
   5.0857286E-04   6.3515003E+04   -1.6495219E+00
   5.1092150E-04   6.3034180E+04   -1.6490393E+00
   5.1328099E-04   6.2557137E+04   -1.6485576E+00
   5.1565137E-04   6.2083841E+04   -1.6480768E+00
   5.1803270E-04   6.1614263E+04   -1.6475969E+00
   5.2042503E-04   6.1148371E+04   -1.6471179E+00
   5.2282841E-04   6.0686137E+04   -1.6466398E+00
   5.2524289E-04   6.0227528E+04   -1.6461626E+00
   5.2766851E-04   5.9772517E+04   -1.6456864E+00
   5.3010534E-04   5.9321074E+04   -1.6452110E+00
   5.3255342E-04   5.8873168E+04   -1.6447366E+00
   5.3501281E-04   5.8428773E+04   -1.6442631E+00
   5.3748356E-04   5.7987858E+04   -1.6437905E+00
   5.3996571E-04   5.7550395E+04   -1.6433188E+00
   5.4245933E-04   5.7116357E+04   -1.6428481E+00
   5.4496446E-04   5.6685715E+04   -1.6423782E+00
   5.4748117E-04   5.6258442E+04   -1.6419094E+00
   5.5000949E-04   5.5834510E+04   -1.6414414E+00
   5.5254949E-04   5.5413892E+04   -1.6409744E+00
   5.5510123E-04   5.4996560E+04   -1.6405083E+00
   5.5766474E-04   5.4582489E+04   -1.6400431E+00
   5.6024010E-04   5.4171651E+04   -1.6395789E+00
   5.6282734E-04   5.3764020E+04   -1.6391157E+00
   5.6542654E-04   5.3359571E+04   -1.6386534E+00
   5.6803774E-04   5.2958277E+04   -1.6381920E+00
   5.7066099E-04   5.2560112E+04   -1.6377316E+00
   5.7329637E-04   5.2165051E+04   -1.6372721E+00
   5.7594391E-04   5.1773070E+04   -1.6368136E+00
   5.7860368E-04   5.1384142E+04   -1.6363560E+00
   5.8127573E-04   5.0998243E+04   -1.6358994E+00
   5.8396012E-04   5.0615349E+04   -1.6354438E+00
   5.8665691E-04   5.0235435E+04   -1.6349891E+00
   5.8936616E-04   4.9858477E+04   -1.6345353E+00
   5.9208791E-04   4.9484451E+04   -1.6340826E+00
   5.9482223E-04   4.9113333E+04   -1.6336308E+00
   5.9756919E-04   4.8745100E+04   -1.6331799E+00
   6.0032882E-04   4.8379728E+04   -1.6327301E+00
   6.0310120E-04   4.8017194E+04   -1.6322812E+00
   6.0588639E-04   4.7657475E+04   -1.6318333E+00
   6.0868443E-04   4.7300549E+04   -1.6313863E+00
   6.1149540E-04   4.6946392E+04   -1.6309403E+00
   6.1431935E-04   4.6594982E+04   -1.6304954E+00
   6.1715634E-04   4.6246298E+04   -1.6300513E+00
   6.2000644E-04   4.5900317E+04   -1.6296083E+00
   6.2286969E-04   4.5557017E+04   -1.6291662E+00
