#        a       HoverH0(a)       dlogHdloga_of_a(a)
   1.0000000E-04   1.1152819E+06   -1.8753717E+00
   1.0046181E-04   1.1056877E+06   -1.8749401E+00
   1.0092575E-04   1.0961782E+06   -1.8745075E+00
   1.0139184E-04   1.0867526E+06   -1.8740739E+00
   1.0186008E-04   1.0774103E+06   -1.8736393E+00
   1.0233048E-04   1.0681504E+06   -1.8732038E+00
   1.0280305E-04   1.0589722E+06   -1.8727672E+00
   1.0327781E-04   1.0498750E+06   -1.8723296E+00
   1.0375475E-04   1.0408580E+06   -1.8718911E+00
   1.0423390E-04   1.0319206E+06   -1.8714516E+00
   1.0471527E-04   1.0230620E+06   -1.8710110E+00
   1.0519885E-04   1.0142815E+06   -1.8705695E+00
   1.0568467E-04   1.0055784E+06   -1.8701271E+00
   1.0617274E-04   9.9695196E+05   -1.8696836E+00
   1.0666305E-04   9.8840160E+05   -1.8692392E+00
   1.0715563E-04   9.7992658E+05   -1.8687937E+00
   1.0765049E-04   9.7152622E+05   -1.8683473E+00
   1.0814763E-04   9.6319986E+05   -1.8679000E+00
   1.0864707E-04   9.5494683E+05   -1.8674516E+00
   1.0914881E-04   9.4676647E+05   -1.8670023E+00
   1.0965287E-04   9.3865813E+05   -1.8665520E+00
   1.1015926E-04   9.3062117E+05   -1.8661008E+00
   1.1066799E-04   9.2265494E+05   -1.8656485E+00
   1.1117906E-04   9.1475881E+05   -1.8651954E+00
   1.1169250E-04   9.0693215E+05   -1.8647412E+00
   1.1220831E-04   8.9917434E+05   -1.8642861E+00
   1.1272650E-04   8.9148476E+05   -1.8638300E+00
   1.1324708E-04   8.8386280E+05   -1.8633730E+00
   1.1377007E-04   8.7630785E+05   -1.8629150E+00
   1.1429547E-04   8.6881932E+05   -1.8624561E+00
   1.1482330E-04   8.6139660E+05   -1.8619962E+00
   1.1535356E-04   8.5403911E+05   -1.8615353E+00
   1.1588628E-04   8.4674626E+05   -1.8610735E+00
   1.1642145E-04   8.3951748E+05   -1.8606108E+00
   1.1695910E-04   8.3235218E+05   -1.8601471E+00
   1.1749923E-04   8.2524981E+05   -1.8596825E+00
   1.1804185E-04   8.1820979E+05   -1.8592169E+00
   1.1858698E-04   8.1123157E+05   -1.8587504E+00
   1.1913463E-04   8.0431460E+05   -1.8582830E+00
   1.1968481E-04   7.9745832E+05   -1.8578146E+00
   1.2023752E-04   7.9066220E+05   -1.8573453E+00
   1.2079279E-04   7.8392569E+05   -1.8568751E+00
   1.2135063E-04   7.7724826E+05   -1.8564039E+00
   1.2191104E-04   7.7062939E+05   -1.8559318E+00
   1.2247403E-04   7.6406854E+05   -1.8554588E+00
   1.2303963E-04   7.5756521E+05   -1.8549849E+00
   1.2360784E-04   7.5111887E+05   -1.8545101E+00
   1.2417868E-04   7.4472901E+05   -1.8540343E+00
   1.2475215E-04   7.3839513E+05   -1.8535576E+00
   1.2532826E-04   7.3211673E+05   -1.8530800E+00
   1.2590704E-04   7.2589331E+05   -1.8526015E+00
   1.2648850E-04   7.1972439E+05   -1.8521221E+00
   1.2707263E-04   7.1360946E+05   -1.8516418E+00
   1.2765947E-04   7.0754806E+05   -1.8511606E+00
   1.2824901E-04   7.0153970E+05   -1.8506785E+00
   1.2884128E-04   6.9558391E+05   -1.8501955E+00
   1.2943628E-04   6.8968022E+05   -1.8497116E+00
   1.3003403E-04   6.8382816E+05   -1.8492269E+00
   1.3063454E-04   6.7802728E+05   -1.8487412E+00
   1.3123783E-04   6.7227710E+05   -1.8482546E+00
   1.3184390E-04   6.6657719E+05   -1.8477672E+00
   1.3245277E-04   6.6092709E+05   -1.8472789E+00
   1.3306445E-04   6.5532636E+05   -1.8467897E+00
   1.3367895E-04   6.4977456E+05   -1.8462996E+00
   1.3429630E-04   6.4427124E+05   -1.8458087E+00
   1.3491649E-04   6.3881598E+05   -1.8453169E+00
   1.3553955E-04   6.3340835E+05   -1.8448242E+00
   1.3616548E-04   6.2804792E+05   -1.8443307E+00
   1.3679431E-04   6.2273428E+05   -1.8438363E+00
   1.3742604E-04   6.1746700E+05   -1.8433411E+00
   1.3806069E-04   6.1224567E+05   -1.8428450E+00
   1.3869827E-04   6.0706988E+05   -1.8423480E+00
   1.3933879E-04   6.0193922E+05   -1.8418502E+00
   1.3998227E-04   5.9685330E+05   -1.8413516E+00
   1.4062872E-04   5.9181171E+05   -1.8408521E+00
   1.4127816E-04   5.8681406E+05   -1.8403518E+00
   1.4193060E-04   5.8185995E+05   -1.8398506E+00
   1.4258605E-04   5.7694900E+05   -1.8393487E+00
   1.4324453E-04   5.7208082E+05   -1.8388459E+00
   1.4390605E-04   5.6725504E+05   -1.8383422E+00
   1.4457062E-04   5.6247127E+05   -1.8378378E+00
   1.4523826E-04   5.5772914E+05   -1.8373325E+00
   1.4590899E-04   5.5302828E+05   -1.8368264E+00
   1.4658281E-04   5.4836832E+05   -1.8363195E+00
   1.4725974E-04   5.4374889E+05   -1.8358118E+00
   1.4793981E-04   5.3916965E+05   -1.8353033E+00
   1.4862301E-04   5.3463022E+05   -1.8347940E+00
   1.4930936E-04   5.3013025E+05   -1.8342839E+00
   1.4999889E-04   5.2566940E+05   -1.8337730E+00
   1.5069160E-04   5.2124731E+05   -1.8332613E+00
   1.5138751E-04   5.1686364E+05   -1.8327488E+00
   1.5208663E-04   5.1251805E+05   -1.8322356E+00
   1.5278899E-04   5.0821019E+05   -1.8317216E+00
   1.5349458E-04   5.0393975E+05   -1.8312068E+00
   1.5420343E-04   4.9970637E+05   -1.8306912E+00
   1.5491556E-04   4.9550973E+05   -1.8301748E+00
   1.5563098E-04   4.9134951E+05   -1.8296577E+00
   1.5634970E-04   4.8722537E+05   -1.8291398E+00
   1.5707174E-04   4.8313701E+05   -1.8286212E+00
   1.5779711E-04   4.7908409E+05   -1.8281018E+00
   1.5852584E-04   4.7506632E+05   -1.8275817E+00
   1.5925792E-04   4.7108337E+05   -1.8270608E+00
   1.5999339E-04   4.6713493E+05   -1.8265392E+00
   1.6073226E-04   4.6322070E+05   -1.8260169E+00
   1.6147454E-04   4.5934037E+05   -1.8254938E+00
   1.6222024E-04   4.5549365E+05   -1.8249700E+00
   1.6296939E-04   4.5168024E+05   -1.8244455E+00
   1.6372200E-04   4.4789983E+05   -1.8239202E+00
   1.6447809E-04   4.4415214E+05   -1.8233942E+00
   1.6523767E-04   4.4043688E+05   -1.8228675E+00
   1.6600075E-04   4.3675375E+05   -1.8223402E+00
   1.6676736E-04   4.3310248E+05   -1.8218121E+00
   1.6753751E-04   4.2948277E+05   -1.8212833E+00
   1.6831122E-04   4.2589436E+05   -1.8207538E+00
   1.6908849E-04   4.2233696E+05   -1.8202236E+00
   1.6986936E-04   4.1881030E+05   -1.8196927E+00
   1.7065384E-04   4.1531410E+05   -1.8191612E+00
   1.7144193E-04   4.1184810E+05   -1.8186290E+00
   1.7223367E-04   4.0841203E+05   -1.8180960E+00
   1.7302906E-04   4.0500562E+05   -1.8175625E+00
   1.7382813E-04   4.0162861E+05   -1.8170282E+00
   1.7463089E-04   3.9828073E+05   -1.8164933E+00
   1.7543735E-04   3.9496174E+05   -1.8159578E+00
   1.7624754E-04   3.9167138E+05   -1.8154216E+00
   1.7706147E-04   3.8840938E+05   -1.8148847E+00
   1.7787916E-04   3.8517551E+05   -1.8143472E+00
   1.7870062E-04   3.8196951E+05   -1.8138091E+00
   1.7952588E-04   3.7879113E+05   -1.8132703E+00
   1.8035495E-04   3.7564013E+05   -1.8127309E+00
   1.8118785E-04   3.7251627E+05   -1.8121909E+00
   1.8202459E-04   3.6941931E+05   -1.8116503E+00
   1.8286520E-04   3.6634901E+05   -1.8111090E+00
   1.8370969E-04   3.6330513E+05   -1.8105672E+00
   1.8455808E-04   3.6028745E+05   -1.8100247E+00
   1.8541039E-04   3.5729572E+05   -1.8094816E+00
   1.8626663E-04   3.5432972E+05   -1.8089380E+00
   1.8712683E-04   3.5138923E+05   -1.8083937E+00
   1.8799100E-04   3.4847401E+05   -1.8078489E+00
   1.8885917E-04   3.4558385E+05   -1.8073034E+00
   1.8973134E-04   3.4271851E+05   -1.8067574E+00
   1.9060754E-04   3.3987779E+05   -1.8062109E+00
   1.9148778E-04   3.3706147E+05   -1.8056637E+00
   1.9237209E-04   3.3426932E+05   -1.8051160E+00
   1.9326049E-04   3.3150114E+05   -1.8045677E+00
   1.9415299E-04   3.2875672E+05   -1.8040189E+00
   1.9504960E-04   3.2603584E+05   -1.8034696E+00
   1.9595036E-04   3.2333830E+05   -1.8029197E+00
   1.9685528E-04   3.2066389E+05   -1.8023692E+00
   1.9776438E-04   3.1801241E+05   -1.8018183E+00
   1.9867768E-04   3.1538366E+05   -1.8012668E+00
   1.9959519E-04   3.1277742E+05   -1.8007148E+00
   2.0051694E-04   3.1019352E+05   -1.8001622E+00
   2.0144295E-04   3.0763174E+05   -1.7996092E+00
   2.0237324E-04   3.0509190E+05   -1.7990556E+00
   2.0330782E-04   3.0257380E+05   -1.7985016E+00
   2.0424671E-04   3.0007725E+05   -1.7979470E+00
   2.0518995E-04   2.9760206E+05   -1.7973920E+00
   2.0613754E-04   2.9514805E+05   -1.7968365E+00
   2.0708950E-04   2.9271501E+05   -1.7962805E+00
   2.0804586E-04   2.9030278E+05   -1.7957240E+00
   2.0900664E-04   2.8791117E+05   -1.7951670E+00
   2.0997185E-04   2.8553999E+05   -1.7946096E+00
   2.1094152E-04   2.8318907E+05   -1.7940517E+00
   2.1191567E-04   2.8085822E+05   -1.7934934E+00
   2.1289432E-04   2.7854728E+05   -1.7929346E+00
   2.1387749E-04   2.7625606E+05   -1.7923754E+00
   2.1486520E-04   2.7398440E+05   -1.7918158E+00
   2.1585747E-04   2.7173211E+05   -1.7912557E+00
   2.1685432E-04   2.6949904E+05   -1.7906952E+00
   2.1785578E-04   2.6728501E+05   -1.7901343E+00
   2.1886186E-04   2.6508985E+05   -1.7895729E+00
   2.1987259E-04   2.6291341E+05   -1.7890111E+00
   2.2088798E-04   2.6075550E+05   -1.7884490E+00
   2.2190807E-04   2.5861598E+05   -1.7878864E+00
   2.2293286E-04   2.5649468E+05   -1.7873235E+00
   2.2396239E-04   2.5439144E+05   -1.7867601E+00
   2.2499667E-04   2.5230610E+05   -1.7861964E+00
   2.2603573E-04   2.5023850E+05   -1.7856323E+00
   2.2707958E-04   2.4818849E+05   -1.7850678E+00
   2.2812826E-04   2.4615592E+05   -1.7845030E+00
   2.2918178E-04   2.4414063E+05   -1.7839378E+00
   2.3024017E-04   2.4214247E+05   -1.7833723E+00
   2.3130344E-04   2.4016129E+05   -1.7828064E+00
   2.3237162E-04   2.3819694E+05   -1.7822401E+00
   2.3344474E-04   2.3624927E+05   -1.7816735E+00
   2.3452281E-04   2.3431814E+05   -1.7811066E+00
   2.3560586E-04   2.3240340E+05   -1.7805394E+00
   2.3669392E-04   2.3050492E+05   -1.7799718E+00
   2.3778699E-04   2.2862254E+05   -1.7794040E+00
   2.3888512E-04   2.2675612E+05   -1.7788358E+00
   2.3998831E-04   2.2490553E+05   -1.7782673E+00
   2.4109661E-04   2.2307063E+05   -1.7776985E+00
   2.4221001E-04   2.2125128E+05   -1.7771295E+00
   2.4332857E-04   2.1944734E+05   -1.7765601E+00
   2.4445228E-04   2.1765868E+05   -1.7759905E+00
   2.4558119E-04   2.1588517E+05   -1.7754206E+00
   2.4671531E-04   2.1412666E+05   -1.7748504E+00
   2.4785467E-04   2.1238305E+05   -1.7742800E+00
   2.4899928E-04   2.1065418E+05   -1.7737093E+00
   2.5014919E-04   2.0893994E+05   -1.7731383E+00
   2.5130440E-04   2.0724019E+05   -1.7725672E+00
   2.5246495E-04   2.0555481E+05   -1.7719957E+00
   2.5363086E-04   2.0388368E+05   -1.7714241E+00
   2.5480216E-04   2.0222666E+05   -1.7708522E+00
   2.5597886E-04   2.0058364E+05   -1.7702801E+00
   2.5716100E-04   1.9895449E+05   -1.7697078E+00
   2.5834859E-04   1.9733909E+05   -1.7691353E+00
   2.5954168E-04   1.9573733E+05   -1.7685625E+00
   2.6074027E-04   1.9414908E+05   -1.7679896E+00
   2.6194439E-04   1.9257423E+05   -1.7674165E+00
   2.6315408E-04   1.9101265E+05   -1.7668432E+00
   2.6436935E-04   1.8946424E+05   -1.7662697E+00
   2.6559024E-04   1.8792888E+05   -1.7656961E+00
   2.6681676E-04   1.8640645E+05   -1.7651223E+00
   2.6804895E-04   1.8489685E+05   -1.7645483E+00
   2.6928683E-04   1.8339995E+05   -1.7639742E+00
   2.7053042E-04   1.8191566E+05   -1.7633999E+00
   2.7177976E-04   1.8044385E+05   -1.7628255E+00
   2.7303487E-04   1.7898443E+05   -1.7622509E+00
   2.7429577E-04   1.7753728E+05   -1.7616762E+00
   2.7556250E-04   1.7610230E+05   -1.7611014E+00
   2.7683507E-04   1.7467938E+05   -1.7605265E+00
   2.7811353E-04   1.7326841E+05   -1.7599515E+00
   2.7939788E-04   1.7186930E+05   -1.7593763E+00
   2.8068817E-04   1.7048193E+05   -1.7588011E+00
   2.8198442E-04   1.6910622E+05   -1.7582257E+00
   2.8328665E-04   1.6774205E+05   -1.7576503E+00
   2.8459490E-04   1.6638933E+05   -1.7570748E+00
   2.8590919E-04   1.6504795E+05   -1.7564992E+00
   2.8722955E-04   1.6371782E+05   -1.7559236E+00
   2.8855600E-04   1.6239884E+05   -1.7553478E+00
   2.8988859E-04   1.6109091E+05   -1.7547721E+00
   2.9122732E-04   1.5979395E+05   -1.7541962E+00
   2.9257224E-04   1.5850784E+05   -1.7536204E+00
   2.9392337E-04   1.5723250E+05   -1.7530445E+00
   2.9528074E-04   1.5596784E+05   -1.7524685E+00
   2.9664438E-04   1.5471376E+05   -1.7518925E+00
   2.9801431E-04   1.5347018E+05   -1.7513166E+00
   2.9939057E-04   1.5223699E+05   -1.7507406E+00
   3.0077319E-04   1.5101411E+05   -1.7501645E+00
   3.0216219E-04   1.4980145E+05   -1.7495885E+00
   3.0355761E-04   1.4859893E+05   -1.7490125E+00
   3.0495947E-04   1.4740645E+05   -1.7484365E+00
   3.0636780E-04   1.4622392E+05   -1.7478605E+00
   3.0778264E-04   1.4505127E+05   -1.7472846E+00
   3.0920401E-04   1.4388840E+05   -1.7467086E+00
   3.1063195E-04   1.4273524E+05   -1.7461327E+00
   3.1206648E-04   1.4159169E+05   -1.7455569E+00
   3.1350764E-04   1.4045768E+05   -1.7449811E+00
   3.1495545E-04   1.3933312E+05   -1.7444053E+00
   3.1640994E-04   1.3821793E+05   -1.7438296E+00
   3.1787116E-04   1.3711202E+05   -1.7432540E+00
   3.1933912E-04   1.3601533E+05   -1.7426784E+00
   3.2081386E-04   1.3492777E+05   -1.7421029E+00
   3.2229541E-04   1.3384926E+05   -1.7415275E+00
   3.2378381E-04   1.3277972E+05   -1.7409522E+00
   3.2527908E-04   1.3171908E+05   -1.7403770E+00
   3.2678125E-04   1.3066725E+05   -1.7398018E+00
   3.2829036E-04   1.2962417E+05   -1.7392268E+00
   3.2980644E-04   1.2858976E+05   -1.7386519E+00
   3.3132952E-04   1.2756393E+05   -1.7380771E+00
   3.3285963E-04   1.2654663E+05   -1.7375025E+00
   3.3439681E-04   1.2553777E+05   -1.7369280E+00
   3.3594109E-04   1.2453729E+05   -1.7363536E+00
   3.3749250E-04   1.2354510E+05   -1.7357793E+00
   3.3905108E-04   1.2256114E+05   -1.7352052E+00
   3.4061685E-04   1.2158535E+05   -1.7346313E+00
   3.4218986E-04   1.2061764E+05   -1.7340575E+00
   3.4377013E-04   1.1965794E+05   -1.7334839E+00
   3.4535769E-04   1.1870620E+05   -1.7329105E+00
   3.4695259E-04   1.1776234E+05   -1.7323372E+00
   3.4855485E-04   1.1682629E+05   -1.7317642E+00
   3.5016452E-04   1.1589799E+05   -1.7311913E+00
   3.5178161E-04   1.1497737E+05   -1.7306186E+00
   3.5340618E-04   1.1406436E+05   -1.7300462E+00
   3.5503824E-04   1.1315890E+05   -1.7294739E+00
   3.5667785E-04   1.1226092E+05   -1.7289019E+00
   3.5832502E-04   1.1137037E+05   -1.7283300E+00
   3.5997981E-04   1.1048716E+05   -1.7277584E+00
   3.6164223E-04   1.0961126E+05   -1.7271871E+00
   3.6331233E-04   1.0874258E+05   -1.7266159E+00
   3.6499015E-04   1.0788107E+05   -1.7260451E+00
   3.6667571E-04   1.0702666E+05   -1.7254744E+00
   3.6836906E-04   1.0617931E+05   -1.7249041E+00
   3.7007022E-04   1.0533894E+05   -1.7243340E+00
   3.7177925E-04   1.0450549E+05   -1.7237641E+00
   3.7349616E-04   1.0367891E+05   -1.7231946E+00
   3.7522101E-04   1.0285914E+05   -1.7226253E+00
   3.7695382E-04   1.0204611E+05   -1.7220563E+00
   3.7869463E-04   1.0123978E+05   -1.7214876E+00
   3.8044348E-04   1.0044009E+05   -1.7209192E+00
   3.8220041E-04   9.9646967E+04   -1.7203511E+00
   3.8396545E-04   9.8860369E+04   -1.7197833E+00
   3.8573864E-04   9.8080238E+04   -1.7192158E+00
   3.8752002E-04   9.7306516E+04   -1.7186486E+00
   3.8930963E-04   9.6539151E+04   -1.7180818E+00
   3.9110750E-04   9.5778087E+04   -1.7175153E+00
   3.9291368E-04   9.5023271E+04   -1.7169491E+00
   3.9472820E-04   9.4274650E+04   -1.7163833E+00
   3.9655109E-04   9.3532169E+04   -1.7158179E+00
   3.9838241E-04   9.2795779E+04   -1.7152528E+00
   4.0022218E-04   9.2065425E+04   -1.7146880E+00
   4.0207045E-04   9.1341058E+04   -1.7141236E+00
   4.0392725E-04   9.0622625E+04   -1.7135596E+00
   4.0579263E-04   8.9910077E+04   -1.7129960E+00
   4.0766662E-04   8.9203363E+04   -1.7124327E+00
   4.0954927E-04   8.8502434E+04   -1.7118699E+00
   4.1144061E-04   8.7807240E+04   -1.7113074E+00
   4.1334068E-04   8.7117732E+04   -1.7107453E+00
   4.1524953E-04   8.6433862E+04   -1.7101837E+00
   4.1716720E-04   8.5755583E+04   -1.7096224E+00
   4.1909372E-04   8.5082846E+04   -1.7090616E+00
   4.2102914E-04   8.4415605E+04   -1.7085012E+00
   4.2297350E-04   8.3753812E+04   -1.7079412E+00
   4.2492683E-04   8.3097422E+04   -1.7073817E+00
   4.2688919E-04   8.2446389E+04   -1.7068226E+00
   4.2886061E-04   8.1800667E+04   -1.7062639E+00
   4.3084113E-04   8.1160212E+04   -1.7057057E+00
   4.3283080E-04   8.0524977E+04   -1.7051479E+00
   4.3482966E-04   7.9894920E+04   -1.7045906E+00
   4.3683775E-04   7.9269996E+04   -1.7040338E+00
   4.3885511E-04   7.8650162E+04   -1.7034774E+00
   4.4088179E-04   7.8035375E+04   -1.7029215E+00
   4.4291783E-04   7.7425591E+04   -1.7023661E+00
   4.4496327E-04   7.6820769E+04   -1.7018112E+00
   4.4701816E-04   7.6220866E+04   -1.7012567E+00
   4.4908253E-04   7.5625841E+04   -1.7007028E+00
   4.5115644E-04   7.5035652E+04   -1.7001494E+00
   4.5323993E-04   7.4450260E+04   -1.6995964E+00
   4.5533304E-04   7.3869622E+04   -1.6990440E+00
   4.5743582E-04   7.3293699E+04   -1.6984921E+00
   4.5954830E-04   7.2722451E+04   -1.6979408E+00
   4.6167054E-04   7.2155839E+04   -1.6973899E+00
   4.6380259E-04   7.1593823E+04   -1.6968396E+00
   4.6594448E-04   7.1036365E+04   -1.6962898E+00
   4.6809626E-04   7.0483425E+04   -1.6957406E+00
   4.7025797E-04   6.9934966E+04   -1.6951919E+00
   4.7242967E-04   6.9390951E+04   -1.6946438E+00
   4.7461140E-04   6.8851341E+04   -1.6940962E+00
   4.7680321E-04   6.8316100E+04   -1.6935492E+00
   4.7900514E-04   6.7785190E+04   -1.6930028E+00
   4.8121723E-04   6.7258575E+04   -1.6924569E+00
   4.8343954E-04   6.6736220E+04   -1.6919116E+00
   4.8567212E-04   6.6218087E+04   -1.6913669E+00
   4.8791500E-04   6.5704142E+04   -1.6908228E+00
   4.9016825E-04   6.5194350E+04   -1.6902793E+00
   4.9243189E-04   6.4688675E+04   -1.6897363E+00
   4.9470600E-04   6.4187082E+04   -1.6891940E+00
   4.9699060E-04   6.3689538E+04   -1.6886523E+00
   4.9928575E-04   6.3196008E+04   -1.6881112E+00
   5.0159151E-04   6.2706458E+04   -1.6875707E+00
   5.0390791E-04   6.2220856E+04   -1.6870308E+00
   5.0623501E-04   6.1739168E+04   -1.6864915E+00
   5.0857286E-04   6.1261361E+04   -1.6859529E+00
   5.1092150E-04   6.0787403E+04   -1.6854149E+00
   5.1328099E-04   6.0317261E+04   -1.6848776E+00
   5.1565137E-04   5.9850903E+04   -1.6843409E+00
   5.1803270E-04   5.9388298E+04   -1.6838048E+00
   5.2042503E-04   5.8929413E+04   -1.6832694E+00
   5.2282841E-04   5.8474219E+04   -1.6827346E+00
   5.2524289E-04   5.8022684E+04   -1.6822006E+00
   5.2766851E-04   5.7574777E+04   -1.6816671E+00
   5.3010534E-04   5.7130467E+04   -1.6811344E+00
   5.3255342E-04   5.6689726E+04   -1.6806023E+00
   5.3501281E-04   5.6252523E+04   -1.6800709E+00
   5.3748356E-04   5.5818828E+04   -1.6795402E+00
   5.3996571E-04   5.5388612E+04   -1.6790102E+00
   5.4245933E-04   5.4961846E+04   -1.6784808E+00
   5.4496446E-04   5.4538501E+04   -1.6779522E+00
   5.4748117E-04   5.4118549E+04   -1.6774243E+00
   5.5000949E-04   5.3701961E+04   -1.6768970E+00
   5.5254949E-04   5.3288709E+04   -1.6763705E+00
   5.5510123E-04   5.2878766E+04   -1.6758447E+00
   5.5766474E-04   5.2472103E+04   -1.6753196E+00
   5.6024010E-04   5.2068693E+04   -1.6747952E+00
   5.6282734E-04   5.1668510E+04   -1.6742716E+00
   5.6542654E-04   5.1271526E+04   -1.6737487E+00
   5.6803774E-04   5.0877714E+04   -1.6732265E+00
   5.7066099E-04   5.0487049E+04   -1.6727050E+00
   5.7329637E-04   5.0099504E+04   -1.6721843E+00
   5.7594391E-04   4.9715052E+04   -1.6716644E+00
   5.7860368E-04   4.9333670E+04   -1.6711451E+00
   5.8127573E-04   4.8955330E+04   -1.6706267E+00
   5.8396012E-04   4.8580007E+04   -1.6701090E+00
   5.8665691E-04   4.8207677E+04   -1.6695920E+00
   5.8936616E-04   4.7838314E+04   -1.6690758E+00
   5.9208791E-04   4.7471894E+04   -1.6685604E+00
   5.9482223E-04   4.7108392E+04   -1.6680458E+00
   5.9756919E-04   4.6747785E+04   -1.6675319E+00
   6.0032882E-04   4.6390047E+04   -1.6670188E+00
   6.0310120E-04   4.6035156E+04   -1.6665065E+00
   6.0588639E-04   4.5683088E+04   -1.6659950E+00
   6.0868443E-04   4.5333819E+04   -1.6654843E+00
   6.1149540E-04   4.4987326E+04   -1.6649744E+00
   6.1431935E-04   4.4643587E+04   -1.6644652E+00
   6.1715634E-04   4.4302577E+04   -1.6639569E+00
   6.2000644E-04   4.3964276E+04   -1.6634494E+00
   6.2286969E-04   4.3628659E+04   -1.6629426E+00
