# k  (h/Mpc)    P(k)  (Mpc/h)^3    P_linear(k)  (Mpc/h)^3
     0.00783031         4029.21         4082.65 
       0.013688         5324.96         5320.49 
       0.019231         5632.37          5632.4 
      0.0249154         5371.36         5431.33 
      0.0312784         4880.88         4908.07 
      0.0375637         4329.48         4329.51 
      0.0433917         3827.44         3862.38 
      0.0492413          3483.6         3500.68 
      0.0555754         3167.82         3218.64 
      0.0619321         3008.84         3007.99 
       0.067871         2788.46         2833.17 
      0.0738098         2603.32         2648.88 
      0.0800417         2373.07         2432.64 
      0.0862327         2160.17         2202.03 
      0.0921407         1961.79         1985.56 
      0.0982031         1757.64          1786.7 
       0.104506         1619.44         1618.74 
       0.110769         1492.03         1494.18 
       0.116806         1393.86         1407.71 
       0.122832         1336.69          1342.5 
       0.129052         1259.94          1283.5 
       0.135211         1199.15         1222.03 
       0.141259         1142.34         1153.11 
       0.147318         1072.52          1076.1 
       0.153489         985.746         994.638 
       0.159709         919.095         916.665 
       0.165845         866.879         849.762 
       0.171974         807.726         795.863 
       0.178125         767.756         754.418 
       0.184229         739.535         722.892 
        0.19034         695.211         696.635 
       0.196428         682.646         671.517 
       0.202534         662.312         644.317 
       0.208729         627.686         613.472 
       0.214876         591.675         580.364 
       0.220989         569.764         546.955 
       0.227147         533.861         515.171 
        0.23329         509.593         487.177 
       0.239377         493.821         463.923 
       0.245482         463.601         444.847 
       0.251667          456.49         428.808 
       0.257832         441.482         414.626 
       0.263955         426.533         400.912 
       0.270079         412.219         386.621 
        0.27624         403.611         371.318 
       0.282372         387.577         355.441 
        0.28843         372.418         339.773 
       0.294538         355.895         324.727 
       0.300721         350.509         310.886 
        0.30691         334.058          298.69 
       0.313033         325.412         288.215 
       0.319153         312.415         278.955 
       0.325316         305.462         270.389 
        0.33145         295.544         262.134 
       0.337538         291.148         253.907 
       0.343633         281.759         245.491 
       0.349808         272.739         236.874 
       0.355968         267.113         228.371 
       0.362074         259.625         220.278 
       0.368217         252.388          212.68 
       0.374374         244.556          205.69 
       0.380519         239.699          199.35 
       0.386598         233.459          193.58 
       0.392688         229.971         188.155 
        0.39888         223.997         182.853 
       0.405048         219.037         177.653 
       0.411186         214.034         172.516 
       0.417313         209.125         167.434 
       0.423458         204.629         162.427 
       0.429607         199.621         157.588 
       0.435692         193.667         153.036 
       0.441815         191.946         148.713 
       0.447964         188.679         144.641 
       0.454126         180.637         140.807 
       0.460267         178.463         137.172 
       0.466387         175.544         133.681 
        0.47254          172.46          130.27 
       0.478662         170.343          126.95 
       0.484765          165.62         123.698 
       0.490885         162.838         120.513 
       0.497035         160.627         117.413 
       0.503198          156.43         114.425 
       0.509342         153.538         111.569 
       0.515458         151.346         108.852 
       0.521598         149.386         106.248 
       0.527764         146.996         103.741 
       0.533884         144.463         101.338 
           0.54         142.052         99.0061 
       0.546137         140.604         96.7256 
       0.552299         138.447         94.4962 
       0.558452         135.383         92.3308 
       0.564573         132.953         90.2366 
       0.570708         131.456         88.2008 
       0.576825         129.319         86.2374 
       0.582926         127.018         84.3481 
       0.589034          124.65         82.5253 
       0.595184         123.359         80.7531 
       0.601379         122.024         79.0248 
       0.607522         119.043           77.36 
       0.613639         118.793         75.7456 
       0.619772         116.035         74.1692 
       0.625918         115.006          72.632 
       0.632068         113.592         71.1369 
       0.638161         112.151          69.698 
         0.6443         110.645         68.2906 
       0.650464         109.146         66.9186 
       0.656582         108.045         65.5956 
       0.662703         105.853         64.3091 
       0.668861         104.916         63.0508 
       0.675024         103.576         61.8258 
       0.681124         102.211         60.6463 
       0.687237         100.578         59.4957 
       0.693381         99.5522         58.3699 
       0.699536         98.1092         57.2716 
       0.705665         98.6735         56.2065 
       0.711789         95.9212         55.1696 
       0.717957         95.4436          54.152 
        0.72409         93.9997         53.1659 
       0.730186         92.4494         52.2105 
       0.736317         92.2436         51.2737 
       0.742472         90.9689         50.3567 
       0.748622         90.2389         49.4633 
        0.75476         89.2056         48.5937 
       0.760888          88.011         47.7467 
       0.767043         87.1272         46.9168 
       0.773185         86.1379         46.1086 
       0.779291         85.5819         45.3243 
       0.785407         84.8283         44.5574 
       0.791564          83.577         43.8036 
       0.797719         82.4403         43.0679 
       0.803834         82.1877          42.354 
       0.809972         80.7598          41.654 
       0.816124         80.0646         40.9684 
       0.822261         79.5613         40.3003 
       0.828378         78.8449         39.6494 
       0.834502         77.9868         39.0124 
       0.840667         77.3967         38.3855 
       0.846816         76.4392         37.7743 
       0.852925         75.7666         37.1804 
       0.859047         74.7478         36.5982 
       0.865192         74.4181         36.0266 
       0.871341         73.9744          35.467 
       0.877463         72.7089          34.922 
       0.883569         72.2916         34.3899 
       0.889708         71.8477         33.8663 
       0.895864         71.1732         33.3524 
       0.902008         70.5803         32.8504 
       0.908149         70.0351         32.3591 
       0.914301         69.4686         31.8772 
       0.920448         68.7252         31.4056 
       0.926574         68.2746         30.9454 
       0.932687          67.706         30.4954 
       0.938823         66.7628         30.0529 
       0.944975         66.6327         29.6182 
       0.951105         65.9513         29.1938 
       0.957225         65.1615         28.7785 
       0.963368         64.9859         28.3699 
       0.969511         64.5049         27.9694 
       0.975621         63.9943         27.5789 
       0.981748         63.3008         27.1948 
       0.987916         62.9814         26.8158 
        0.99406         62.5983         26.4455 
        1.00019         61.7763         26.0829 
        1.00632         61.5814         25.7276 
        1.01246         60.9815         25.3784 
        1.01859         60.3407         25.0363 
        1.02471         60.4595          24.701 
        1.03085         59.7482         24.3708 
        1.03698          59.154         24.0473 
        1.04314          58.567         23.7284 
        1.04929         58.4181          23.416 
        1.05541         57.7984         23.1106 
        1.06154         57.6427         22.8099 
        1.06769         57.1306         22.5142 
        1.07382         56.8001         22.2248 
        1.07993         56.6031         21.9411 
        1.08607         55.9562         21.6613 
        1.09222         55.7753         21.3861 
        1.09836          55.254         21.1161 
        1.10449         54.9173         20.8511 
        1.11063          54.295         20.5904 
        1.11677         54.0536         20.3343 
         1.1229         53.8929          20.083 
        1.12903          53.139         19.8358 
        1.13518         53.1083         19.5926 
        1.14131         52.9579         19.3536 
        1.14745         52.2391         19.1188 
        1.15359         52.1251         18.8879 
        1.15973          51.583         18.6607 
        1.16584         51.2494         18.4383 
        1.17197         51.1292         18.2193 
        1.17811         50.6919         18.0032 
        1.18424         50.2361         17.7912 
        1.19038         50.1885         17.5821 
        1.19652         49.8813         17.3764 
        1.20267         49.5426         17.1741 
        1.20881         49.1563          16.975 
        1.21495         48.8323         16.7795 
        1.22108         48.5354          16.587 
         1.2272         48.0385         16.3981 
        1.23334         47.9039         16.2117 
        1.23949         47.7458         16.0278 
        1.24562         47.4932         15.8473 
        1.25174         47.1871         15.6699 
        1.25789         46.9294         15.4946 
        1.26402          46.618         15.3224 
        1.27014         46.2176         15.1532 
        1.27628         46.0407         14.9861 
        1.28244         45.7108         14.8212 
        1.28858         45.5658          14.659 
        1.29471         45.3487         14.4996 
        1.30084           45.06         14.3427 
        1.30697         44.6937          14.188 
        1.31312         44.3498         14.0353 
        1.31925         44.2725         13.8854 
        1.32537         44.0535         13.7378 
        1.33151         43.7538         13.5919 
        1.33765          43.674         13.4482 
        1.34378         43.4444         13.3068 
        1.34992         42.8272         13.1675 
        1.35606         42.7026         13.0298 
         1.3622         42.4665         12.8943 
        1.36833         42.3012         12.7612 
        1.37445         42.2633           12.63 
        1.38059         42.0157         12.5002 
        1.38675         41.6739          12.372 
        1.39288         41.5294         12.2461 
        1.39901         41.1788          12.122 
        1.40515          40.996         11.9993 
         1.4113         40.9182         11.8784 
        1.41742         40.4661         11.7597 
        1.42355         40.4464         11.6424 
         1.4297          40.127         11.5263 
        1.43585         40.0823         11.4118 
        1.44198         39.7394         11.2994 
        1.44809         39.5825         11.1887 
        1.45423         39.4496         11.0791 
        1.46036         39.2779         10.9711 
        1.46649         39.0112         10.8646 
        1.47263         38.8519         10.7594 
        1.47877          38.672         10.6557 
        1.48491         38.4262         10.5531 
        1.49104         38.3223         10.4522 
        1.49718          37.956         10.3525 
        1.50333         37.8802         10.2539 
        1.50947         37.6916         10.1569 
         1.5156         37.4777         10.0612 
        1.52172         37.2278         9.96683 
        1.52787         37.2661         9.87346 
          1.534         36.9449          9.7814 
        1.54013         36.7318         9.69062 
        1.54627         36.6828         9.60084 
        1.55241         36.4517         9.51219 
        1.55855         36.2451         9.42479 
        1.56467         36.0518         9.33874 
         1.5708         35.9512         9.25352 
        1.57695         35.6285         9.16925 
        1.58308         35.7167         9.08622 
        1.58922           35.46         9.00417 
        1.59535         35.2222         8.92317 
         1.6015         35.0847         8.84306 
        1.60764         35.0013         8.76397 
        1.61376         34.8047         8.68607 
        1.61989         34.4989         8.60907 
        1.62604         34.4782         8.53282 
        1.63218         34.2197         8.45756 
        1.63831         34.1533         8.38338 
        1.64444         33.9995         8.31007 
        1.65059         33.7441         8.23747 
        1.65673         33.6573         8.16581 
        1.66285         33.5111         8.09522 
        1.66898         33.3245         8.02544 
        1.67512         33.2304         7.95636 
        1.68127         32.9896         7.88803 
         1.6874         32.9056         7.82066 
        1.69353         32.8072         7.75412 
        1.69967         32.6074         7.68821 
        1.70581         32.4514         7.62309 
        1.71193         32.2761         7.55898 
        1.71806         32.1835         7.49547 
        1.72421         31.9944         7.43258 
        1.73035         31.9098         7.37048 
        1.73649         31.7274         7.30911 
        1.74262         31.5922         7.24849 
        1.74876         31.5164         7.18852 
        1.75489         31.3094         7.12935 
        1.76101         31.2101         7.07088 
        1.76715         31.0884         7.01298 
        1.77329         30.9958         6.95566 
        1.77943         30.8397         6.89896 
        1.78557         30.6817         6.84298 
        1.79171          30.557         6.78761 
        1.79785         30.4235         6.73285 
        1.80399         30.2981         6.67871 
        1.81012         30.2304         6.62523 
        1.81625         30.0759         6.57237 
        1.82239         29.9965         6.52001 
        1.82853         29.7288         6.46825 
        1.83466         29.6183          6.4171 
        1.84078         29.4444         6.36656 
        1.84692         29.4378         6.31649 
        1.85306          29.257         6.26689 
         1.8592         29.1523         6.21792 
        1.86533         29.0062         6.16949 
        1.87147          28.904         6.12153 
        1.87761         28.8767         6.07406 
        1.88375         28.6658         6.02715 
        1.88988         28.6358         5.98079 
        1.89601         28.4194          5.9349 
        1.90215         28.3483         5.88945 
        1.90829         28.2543         5.84451 
        1.91442         28.0879         5.80003 
        1.92056         28.0232         5.75606 
         1.9267         27.9043          5.7125 
        1.93284         27.7663         5.66936 
        1.93897         27.6883         5.62676 
        1.94509         27.5706         5.58469 
        1.95123         27.4147         5.54295 
        1.95737         27.3055          5.5016 
        1.96349         27.2129         5.46079 
        1.96964         27.0657         5.42027 
        1.97578         27.0345         5.38015 
        1.98192          26.841         5.34052 
        1.98805         26.7916         5.30128 
        1.99419         26.6522         5.26244 
        2.00033         26.5185         5.22396 
        2.00647         26.4432         5.18589 
         2.0126         26.2595         5.14826 
        2.01874         26.2421         5.11095 
        2.02488         26.1943         5.07397 
        2.03101         26.0931         5.03743 
        2.03714         25.9207         5.00129 
        2.04328         25.8163         4.96546 
        2.04941         25.7257         4.93001 
        2.05554         25.6705         4.89494 
        2.06167         25.5512         4.86016 
        2.06781         25.4483         4.82572 
        2.07396         25.3364         4.79156 
        2.08009          25.301          4.7578 
        2.08622         25.1645          4.7244 
        2.09237         25.0772         4.69125 
        2.09851         24.9298         4.65842 
        2.10464          24.872         4.62597 
        2.11077         24.7334         4.59386 
        2.11691         24.7321         4.56198 
        2.12305         24.5511         4.53041 
        2.12918         24.4854         4.49922 
        2.13531         24.4075         4.46831 
        2.14145         24.3072         4.43763 
         2.1476         24.1736          4.4072 
        2.15372         24.1249         4.37722 
        2.15985         23.9856         4.34748 
        2.16599         23.9435         4.31793 
        2.17213         23.8518          4.2887 
        2.17827           23.74         4.25974 
         2.1844         23.6416         4.23107 
        2.19054          23.579         4.20266 
        2.19666         23.4925         4.17456 
         2.2028         23.4198         4.14668 
        2.20893         23.2738         4.11905 
        2.21508         23.2323         4.09164 
        2.22122         23.0797         4.06447 
        2.22736         23.0449         4.03761 
        2.23349         22.9482           4.011 
        2.23962         22.8731         3.98461 
        2.24577         22.7491         3.95844 
         2.2519         22.6894         3.93254 
        2.25802          22.637         3.90691 
        2.26417         22.5402         3.88144 
        2.27031         22.4581         3.85617 
        2.27644         22.3947         3.83121 
        2.28257         22.2913         3.80647 
        2.28872         22.1679          3.7819 
        2.29486           22.14         3.75755 
        2.30099         22.0375         3.73347 
        2.30712         22.0187         3.70959 
        2.31326         21.9056         3.68587 
         2.3194         21.7819         3.66239 
        2.32553         21.7208         3.63914 
        2.33166         21.6191         3.61611 
         2.3378         21.5393         3.59324 
        2.34394         21.4641         3.57057 
        2.35007         21.3792         3.54813 
        2.35619         21.3032         3.52591 
        2.36233         21.2325         3.50382 
        2.36848         21.1782         3.48189 
        2.37462          21.117         3.46018 
        2.38075         21.0352         3.43868 
        2.38689         20.9703         3.41735 
        2.39303         20.8591         3.39621 
        2.39916          20.778         3.37526 
        2.40529          20.713          3.3545 
        2.41143         20.6531         3.33389 
        2.41757         20.5935         3.31345 
         2.4237         20.4811         3.29322 
        2.42983         20.4374         3.27316 
        2.43598         20.3489         3.25322 
        2.44211         20.2353         3.23348 
        2.44823         20.1772         3.21394 
        2.45437         20.1339         3.19452 
        2.46052         20.0704         3.17523 
        2.46665         20.0216         3.15615 
        2.47279         19.9387         3.13722 
        2.47892         19.8559         3.11844 
        2.48507          19.794          3.0998 
         2.4912         19.7188         3.08134 
