# k  (h/Mpc)    P(k)  (Mpc/h)^3    P_linear(k)  (Mpc/h)^3
     0.00783031         1445.05         1461.48 
       0.013688         1902.18         1905.31 
       0.019231         2016.39         2017.39 
      0.0249154         1931.87         1945.58 
      0.0312784         1753.79         1758.28 
      0.0375637         1553.26         1551.09 
      0.0433917         1378.88         1383.79 
      0.0492413         1253.32         1254.23 
      0.0555754         1145.31          1153.2 
      0.0619321         1081.11         1077.74 
       0.067871         1008.72         1015.12 
      0.0738098         942.287         949.093 
      0.0800417         861.877         871.623 
      0.0862327         783.152         789.001 
      0.0921407         708.744         711.442 
      0.0982031         636.011         640.189 
       0.104506         581.947         580.012 
       0.110769         536.607         535.382 
       0.116806         502.174         504.401 
       0.122832         481.228         481.035 
       0.129052         456.481         459.894 
       0.135211         434.167         437.871 
       0.141259         412.084         413.178 
       0.147318         386.327         385.582 
       0.153489         355.773         356.395 
       0.159709         329.419         328.456 
       0.165845         308.773         304.484 
       0.171974         287.174         285.171 
       0.178125          272.87         270.321 
       0.184229         262.522         259.025 
        0.19034         249.222         249.617 
       0.196428         242.775         240.617 
       0.202534         235.067         230.871 
       0.208729         222.716         219.819 
       0.214876         209.668         207.955 
       0.220989         200.709         195.984 
       0.227147         187.361         184.596 
        0.23329         177.984         174.565 
       0.239377         170.909         166.233 
       0.245482         162.125         159.397 
       0.251667         158.355          153.65 
       0.257832         152.983         148.569 
       0.263955         147.882         143.655 
       0.270079         142.888         138.534 
        0.27624         138.786         133.051 
       0.282372         133.151         127.362 
        0.28843         127.042         121.747 
       0.294538         121.666         116.356 
       0.300721         118.233         111.397 
        0.30691         112.878         107.027 
       0.313033         109.366         103.273 
       0.319153          104.53         99.9554 
       0.325316          103.02         96.8858 
        0.33145         99.4498         93.9281 
       0.337538         97.0405           90.98 
       0.343633         93.7766         87.9646 
       0.349808         90.9396         84.8769 
       0.355968         88.1373           81.83 
       0.362074          85.233         78.9302 
       0.368217         82.6661         76.2077 
       0.374374         80.0261         73.7031 
       0.380519          78.034         71.4313 
       0.386598          75.958         69.3637 
       0.392688         74.4219         67.4199 
        0.39888         72.2999           65.52 
       0.405048         70.6516         63.6568 
       0.411186         68.9893         61.8159 
       0.417313         66.7184          59.995 
       0.423458         65.0458         58.2009 
       0.429607         63.2468          56.467 
       0.435692         61.3421         54.8359 
       0.441815         60.3046         53.2869 
       0.447964         59.2572          51.828 
       0.454126         57.0053          50.454 
       0.460267         55.9919         49.1515 
       0.466387         54.4032         47.9008 
        0.47254         53.6409         46.6786 
       0.478662         52.6579         45.4887 
       0.484765         51.1737         44.3235 
       0.490885         50.0127         43.1824 
       0.497035         49.3167         42.0714 
       0.503198         48.0702         41.0007 
       0.509342         46.8643         39.9775 
       0.515458         45.9065         39.0039 
       0.521598         45.1509         38.0708 
       0.527764         44.2148         37.1724 
       0.533884         43.4543         36.3117 
           0.54           42.58          35.476 
       0.546137         41.8757         34.6589 
       0.552299         41.1918           33.86 
       0.558452         39.9436         33.0841 
       0.564573         39.4238         32.3337 
       0.570708         38.7956         31.6042 
       0.576825         37.8153         30.9007 
       0.582926         37.1575         30.2237 
       0.589034         36.1863         29.5706 
       0.595184         35.7208         28.9356 
       0.601379         35.1115         28.3163 
       0.607522         34.4926         27.7198 
       0.613639         34.1622         27.1413 
       0.619772         33.2849         26.5764 
       0.625918         33.1051         26.0256 
       0.632068         32.5498         25.4899 
       0.638161          31.873         24.9743 
         0.6443         31.2454           24.47 
       0.650464         30.7109         23.9784 
       0.656582         30.5169         23.5043 
       0.662703         29.9479         23.0433 
       0.668861         29.4171         22.5925 
       0.675024         28.9073         22.1535 
       0.681124         28.4158         21.7309 
       0.687237          27.971         21.3186 
       0.693381         27.7046         20.9152 
       0.699536         27.0041         20.5217 
       0.705665         26.8833           20.14 
       0.711789         26.3434         19.7685 
       0.717957          26.002         19.4038 
        0.72409         25.6024         19.0505 
       0.730186         25.2616         18.7082 
       0.736317         25.0067         18.3725 
       0.742472         24.5826         18.0439 
       0.748622         24.3043         17.7238 
        0.75476         23.8509         17.4122 
       0.760888         23.5747         17.1087 
       0.767043          23.297         16.8113 
       0.773185         22.8566         16.5217 
       0.779291         22.7399         16.2407 
       0.785407         22.4364         15.9659 
       0.791564         22.0344         15.6958 
       0.797719         21.6314         15.4322 
       0.803834          21.561         15.1764 
       0.809972         21.3688         14.9255 
       0.816124         20.8772         14.6799 
       0.822261         20.7098         14.4405 
       0.828378         20.4674         14.2072 
       0.834502          20.269          13.979 
       0.840667         19.9947         13.7544 
       0.846816         19.6533         13.5353 
       0.852925         19.4857         13.3225 
       0.859047         19.2575         13.1139 
       0.865192         19.0935         12.9091 
       0.871341         18.9291         12.7086 
       0.877463         18.5991         12.5133 
       0.883569          18.356         12.3227 
       0.889708         18.0896         12.1351 
       0.895864         17.9813         11.9509 
       0.902008         17.8301          11.771 
       0.908149         17.6302          11.595 
       0.914301         17.4719         11.4223 
       0.920448         17.1562         11.2533 
       0.926574         17.0105         11.0884 
       0.932687         16.8502         10.9272 
       0.938823         16.6238         10.7686 
       0.944975         16.4261         10.6128 
       0.951105         16.3069         10.4608 
       0.957225         16.1749          10.312 
       0.963368         15.9941         10.1656 
       0.969511         15.8561         10.0221 
       0.975621         15.6997         9.88211 
       0.981748         15.5173         9.74451 
       0.987916         15.4018         9.60869 
        0.99406         15.1905         9.47599 
        1.00019         14.9649         9.34609 
        1.00632         14.9606         9.21876 
        1.01246         14.7879         9.09364 
        1.01859         14.5761         8.97107 
        1.02471         14.4963         8.85092 
        1.03085         14.3636         8.73258 
        1.03698          14.153         8.61667 
        1.04314         14.0734         8.50239 
        1.04929         13.8902         8.39047 
        1.05541         13.7528         8.28104 
        1.06154         13.6493          8.1733 
        1.06769         13.5879         8.06734 
        1.07382         13.3948         7.96363 
        1.07993         13.3073         7.86199 
        1.08607         13.1833         7.76172 
        1.09222         13.0729         7.66312 
        1.09836         12.9316         7.56637 
        1.10449         12.8308         7.47141 
        1.11063         12.7179           7.378 
        1.11677         12.6428         7.28623 
         1.1229         12.5498         7.19619 
        1.12903         12.4121         7.10761 
        1.13518         12.2708         7.02046 
        1.14131         12.1774         6.93483 
        1.14745         12.0747         6.85069 
        1.15359         11.9961         6.76795 
        1.15973          11.905         6.68655 
        1.16584         11.7327         6.60686 
        1.17197         11.6709         6.52837 
        1.17811         11.6086         6.45093 
        1.18424         11.5131         6.37497 
        1.19038         11.4525         6.30004 
        1.19652         11.3329         6.22635 
        1.20267         11.2074         6.15384 
        1.20881         11.1902         6.08252 
        1.21495         11.0932         6.01245 
        1.22108         10.9646          5.9435 
         1.2272         10.9046         5.87581 
        1.23334         10.7819         5.80903 
        1.23949          10.704         5.74313 
        1.24562         10.6601         5.67844 
        1.25174         10.5681         5.61486 
        1.25789         10.4969         5.55206 
        1.26402         10.4417         5.49034 
        1.27014         10.3509         5.42972 
        1.27628         10.2373         5.36984 
        1.28244         10.1506         5.31075 
        1.28858         10.1402         5.25263 
        1.29471         10.0288         5.19552 
        1.30084         9.93687         5.13932 
        1.30697         9.93616         5.08387 
        1.31312         9.77426         5.02916 
        1.31925         9.72691         4.97544 
        1.32537         9.66668         4.92257 
        1.33151         9.62369         4.87027 
        1.33765         9.52636         4.81878 
        1.34378         9.45347         4.76814 
        1.34992         9.39975         4.71819 
        1.35606         9.33368         4.66886 
         1.3622         9.28179         4.62033 
        1.36833         9.21299         4.57261 
        1.37445         9.15854         4.52559 
        1.38059         9.12298          4.4791 
        1.38675         9.04207         4.43315 
        1.39288         8.98714         4.38803 
        1.39901         8.89437         4.34357 
        1.40515         8.85941         4.29962 
         1.4113         8.80651         4.25631 
        1.41742         8.74839         4.21376 
        1.42355         8.67112         4.17172 
         1.4297         8.61205         4.13012 
        1.43585         8.58558         4.08911 
        1.44198         8.55503         4.04882 
        1.44809         8.46908         4.00916 
        1.45423         8.40714         3.96988 
        1.46036         8.35989          3.9312 
        1.46649         8.30172         3.89303 
        1.47263         8.23747         3.85533 
        1.47877         8.19418         3.81816 
        1.48491         8.14546         3.78142 
        1.49104         8.10171         3.74525 
        1.49718         8.05596         3.70952 
        1.50333         8.00779         3.67421 
        1.50947         7.95215         3.63943 
         1.5156         7.91065         3.60516 
        1.52172         7.86621         3.57134 
        1.52787         7.81936         3.53788 
          1.534         7.76348         3.50489 
        1.54013         7.73493         3.47237 
        1.54627           7.664         3.44019 
        1.55241         7.62908         3.40843 
        1.55855         7.59759         3.37711 
        1.56467         7.53944         3.34628 
         1.5708         7.51263         3.31574 
        1.57695         7.44285         3.28554 
        1.58308         7.40203          3.2558 
        1.58922         7.38118         3.22639 
        1.59535          7.3448         3.19737 
         1.6015         7.28839         3.16866 
        1.60764         7.24085         3.14032 
        1.61376         7.20891         3.11241 
        1.61989         7.17569         3.08482 
        1.62604         7.12212          3.0575 
        1.63218         7.10548         3.03053 
        1.63831         7.06815         3.00395 
        1.64444         7.02971         2.97768 
        1.65059         6.95361         2.95167 
        1.65673         6.94669         2.92599 
        1.66285         6.88208          2.9007 
        1.66898         6.86168         2.87569 
        1.67512         6.82516         2.85094 
        1.68127         6.78673         2.82646 
         1.6874         6.76163         2.80232 
        1.69353         6.71318         2.77847 
        1.69967         6.67865         2.75486 
        1.70581         6.64417         2.73152 
        1.71193         6.61524         2.70855 
        1.71806         6.59062          2.6858 
        1.72421         6.53943         2.66326 
        1.73035         6.52374         2.64101 
        1.73649         6.48657         2.61902 
        1.74262         6.43898         2.59729 
        1.74876         6.42508         2.57581 
        1.75489         6.40053         2.55461 
        1.76101          6.3442         2.53365 
        1.76715         6.32404         2.51291 
        1.77329         6.29613         2.49237 
        1.77943         6.24132         2.47205 
        1.78557         6.23654         2.45199 
        1.79171          6.1907         2.43215 
        1.79785          6.1637         2.41253 
        1.80399         6.12638         2.39313 
        1.81012         6.10901         2.37397 
        1.81625         6.06945         2.35503 
        1.82239         6.04866         2.33626 
        1.82853         6.01783         2.31772 
        1.83466         5.99585         2.29939 
        1.84078          5.9637         2.28128 
        1.84692         5.95007         2.26334 
        1.85306         5.90057         2.24557 
         1.8592         5.86823         2.22802 
        1.86533         5.84902         2.21067 
        1.87147         5.82538         2.19348 
        1.87761         5.79308         2.17647 
        1.88375         5.76727         2.15966 
        1.88988         5.73387         2.14305 
        1.89601         5.72008         2.12661 
        1.90215         5.69763         2.11032 
        1.90829         5.66058         2.09422 
        1.91442         5.64042         2.07828 
        1.92056         5.60646         2.06252 
         1.9267         5.58415         2.04692 
        1.93284         5.56212         2.03146 
        1.93897          5.5353          2.0162 
        1.94509          5.5011         2.00112 
        1.95123         5.48025         1.98616 
        1.95737          5.4501         1.97135 
        1.96349          5.4338         1.95672 
        1.96964         5.41782          1.9422 
        1.97578         5.38085         1.92783 
        1.98192         5.36653         1.91363 
        1.98805         5.34692         1.89957 
        1.99419         5.32279         1.88565 
        2.00033         5.30288         1.87186 
        2.00647         5.27572         1.85822 
         2.0126         5.25789         1.84474 
        2.01874         5.22038         1.83137 
        2.02488         5.21044         1.81812 
        2.03101         5.17308         1.80503 
        2.03714         5.15709         1.79207 
        2.04328         5.13313         1.77924 
        2.04941         5.10225         1.76653 
        2.05554         5.08906         1.75397 
        2.06167         5.07559         1.74151 
        2.06781         5.04947         1.72916 
        2.07396         5.03752         1.71692 
        2.08009         5.01227         1.70483 
        2.08622         4.98398         1.69286 
        2.09237         4.97698         1.68098 
        2.09851         4.94755         1.66922 
        2.10464         4.92734         1.65759 
        2.11077         4.90294         1.64608 
        2.11691         4.89046         1.63466 
        2.12305         4.87152         1.62335 
        2.12918         4.86027         1.61217 
        2.13531         4.83465          1.6011 
        2.14145         4.81773          1.5901 
         2.1476         4.78643          1.5792 
        2.15372         4.77492         1.56845 
        2.15985          4.7611          1.5578 
        2.16599         4.73518         1.54721 
        2.17213         4.71643         1.53674 
        2.17827         4.70248         1.52636 
         2.1844         4.67982         1.51609 
        2.19054         4.66911         1.50591 
        2.19666         4.64275         1.49584 
         2.2028         4.62525         1.48585 
        2.20893         4.61328         1.47595 
        2.21508         4.58544         1.46613 
        2.22122         4.57227         1.45639 
        2.22736         4.55471         1.44677 
        2.23349         4.54871         1.43723 
        2.23962          4.5217         1.42778 
        2.24577         4.50187          1.4184 
         2.2519         4.49471         1.40912 
        2.25802         4.47082         1.39993 
        2.26417         4.45551         1.39081 
        2.27031         4.43583         1.38175 
        2.27644         4.42179         1.37281 
        2.28257          4.4029         1.36394 
        2.28872         4.39217         1.35514 
        2.29486         4.37031         1.34641 
        2.30099         4.35578         1.33779 
        2.30712         4.33739         1.32923 
        2.31326         4.31926         1.32073 
         2.3194          4.3093         1.31232 
        2.32553         4.28672         1.30399 
        2.33166         4.28038         1.29573 
         2.3378         4.26298         1.28754 
        2.34394         4.24896         1.27942 
        2.35007         4.22842         1.27138 
        2.35619          4.2209         1.26341 
        2.36233         4.20838          1.2555 
        2.36848         4.18221         1.24764 
        2.37462         4.17556         1.23986 
        2.38075         4.16032         1.23216 
        2.38689         4.14416         1.22451 
        2.39303         4.13136         1.21694 
        2.39916         4.11554         1.20943 
        2.40529         4.09975         1.20199 
        2.41143          4.0889         1.19461 
        2.41757         4.07386         1.18729 
         2.4237          4.0619         1.18004 
        2.42983         4.02742         1.17285 
        2.43598         4.03669          1.1657 
        2.44211         4.01122         1.15863 
        2.44823         4.00432         1.15163 
        2.45437          3.9815         1.14467 
        2.46052         3.97565         1.13776 
        2.46665         3.96436         1.13092 
        2.47279         3.94993         1.12414 
        2.47892         3.93711         1.11741 
        2.48507         3.92423         1.11073 
         2.4912         3.90296         1.10412 
