# k  (h/Mpc)    P(k)  (Mpc/h)^3    P_linear(k)  (Mpc/h)^3
     0.00783031         1881.63         1903.84 
       0.013688         2478.99         2481.78 
       0.019231          2626.7         2627.64 
      0.0249154         2514.22         2534.05 
      0.0312784         2283.02         2290.05 
      0.0375637         2022.67         2020.18 
      0.0433917          1794.1         1802.26 
      0.0492413         1631.21         1633.52 
      0.0555754         1489.23         1501.93 
      0.0619321         1407.66         1403.65 
       0.067871         1311.61         1322.08 
      0.0738098         1225.11         1236.09 
      0.0800417          1119.8         1135.19 
      0.0862327         1017.92         1027.59 
      0.0921407         921.835         926.573 
      0.0982031         826.921         833.773 
       0.104506         757.726         755.399 
       0.110769         698.576         697.273 
       0.116806           653.4         656.923 
       0.122832         626.368         626.492 
       0.129052         593.401         598.958 
       0.135211         564.443         570.275 
       0.141259         536.167         538.115 
       0.147318         502.838         502.175 
       0.153489         462.854         464.162 
       0.159709         429.132         427.775 
       0.165845         402.767         396.554 
       0.171974         374.608         371.401 
       0.178125         356.026          352.06 
       0.184229         342.653         337.349 
        0.19034         324.536         325.096 
       0.196428         316.726         313.374 
       0.202534         306.893         300.681 
       0.208729         290.721         286.287 
       0.214876         273.661         270.836 
       0.220989         262.388         255.246 
       0.227147         244.984         240.413 
        0.23329         232.967         227.349 
       0.239377          224.13         216.498 
       0.245482         212.107         207.595 
       0.251667         207.565         200.111 
       0.257832         200.606         193.492 
       0.263955         193.858         187.093 
       0.270079         187.342         180.423 
        0.27624         182.263         173.282 
       0.282372         174.932         165.873 
        0.28843         167.061         158.561 
       0.294538         159.972          151.54 
       0.300721         155.894         145.081 
        0.30691         148.772         139.389 
       0.313033         144.277         134.501 
       0.319153         137.896          130.18 
       0.325316         135.803         126.182 
        0.33145         131.086          122.33 
       0.337538         128.207          118.49 
       0.343633         123.944         114.563 
       0.349808         120.171         110.542 
       0.355968         116.678         106.573 
       0.362074         112.924         102.797 
       0.368217          109.59         99.2511 
       0.374374         106.221         95.9892 
       0.380519         103.615         93.0305 
       0.386598         100.858         90.3377 
       0.392688         98.9208         87.8061 
        0.39888         96.1639         85.3317 
       0.405048         94.0131         82.9051 
       0.411186         91.8527         80.5076 
       0.417313         88.9427         78.1361 
       0.423458         86.7646         75.7994 
       0.429607         84.4439         73.5413 
       0.435692         81.8458         71.4169 
       0.441815         80.6781         69.3996 
       0.447964         79.3084         67.4995 
       0.454126         76.1697         65.7101 
       0.460267         74.9297         64.0137 
       0.466387         72.9424         62.3849 
        0.47254         71.9465         60.7931 
       0.478662         70.6981         59.2434 
       0.484765         68.7251         57.7259 
       0.490885         67.2435         56.2398 
       0.497035         66.3071         54.7928 
       0.503198          64.641         53.3984 
       0.509342          63.025         52.0658 
       0.515458         61.8534         50.7977 
       0.521598         60.9073         49.5825 
       0.527764         59.7223         48.4125 
       0.533884         58.6939         47.2915 
           0.54         57.5514         46.2031 
       0.546137         56.6815         45.1389 
       0.552299         55.8067         44.0985 
       0.558452         54.1573          43.088 
       0.564573         53.3894         42.1107 
       0.570708         52.6481         41.1606 
       0.576825         51.3941         40.2443 
       0.582926         50.4686         39.3627 
       0.589034         49.2141          38.512 
       0.595184         48.6211          37.685 
       0.601379          47.883         36.8784 
       0.607522         46.9288         36.1016 
       0.613639         46.5807         35.3482 
       0.619772         45.3992         34.6125 
       0.625918         45.1784         33.8952 
       0.632068         44.4434         33.1974 
       0.638161         43.5977         32.5259 
         0.6443         42.7853         31.8691 
       0.650464         42.0908         31.2289 
       0.656582         41.8309         30.6114 
       0.662703         41.0212         30.0111 
       0.668861         40.3617         29.4239 
       0.675024         39.7066         28.8522 
       0.681124          39.025         28.3018 
       0.687237         38.4103         27.7648 
       0.693381         38.0905         27.2394 
       0.699536         37.1841         26.7269 
       0.705665         37.1566         26.2299 
       0.711789         36.3189          25.746 
       0.717957         35.9121         25.2711 
        0.72409         35.3786         24.8109 
       0.730186         34.8859         24.3651 
       0.736317         34.5756         23.9279 
       0.742472         33.9672         23.4999 
       0.748622         33.6572          23.083 
        0.75476         33.0962         22.6772 
       0.760888         32.6744         22.2819 
       0.767043         32.3112         21.8946 
       0.773185         31.7468         21.5175 
       0.779291         31.6121         21.1515 
       0.785407         31.2315         20.7936 
       0.791564         30.6584         20.4418 
       0.797719         30.0876         20.0985 
       0.803834         30.0346         19.7653 
       0.809972         29.7453         19.4386 
       0.816124         29.0657         19.1187 
       0.822261         28.9122         18.8069 
       0.828378         28.6006         18.5032 
       0.834502         28.2987         18.2059 
       0.840667         27.9728         17.9133 
       0.846816         27.5101         17.6281 
       0.852925         27.2843          17.351 
       0.859047         26.9609         17.0792 
       0.865192         26.7281         16.8125 
       0.871341         26.5431         16.5514 
       0.877463         26.0559          16.297 
       0.883569         25.7698         16.0487 
       0.889708         25.4474         15.8044 
       0.895864         25.2793         15.5646 
       0.902008         25.0864         15.3303 
       0.908149         24.8122          15.101 
       0.914301         24.6637         14.8761 
       0.920448         24.1754         14.6561 
       0.926574         24.0226         14.4413 
       0.932687         23.7792         14.2313 
       0.938823         23.4719         14.0248 
       0.944975          23.232         13.8219 
       0.951105         23.0696         13.6238 
       0.957225          22.834           13.43 
       0.963368         22.6353         13.2394 
       0.969511         22.4549         13.0525 
       0.975621         22.2713         12.8702 
       0.981748         21.9863          12.691 
       0.987916          21.847         12.5141 
        0.99406         21.5805         12.3413 
        1.00019         21.2916         12.1721 
        1.00632         21.2645         12.0063 
        1.01246         21.0394         11.8433 
        1.01859           20.75         11.6837 
        1.02471         20.6733         11.5272 
        1.03085         20.4803         11.3731 
        1.03698         20.1738         11.2221 
        1.04314         20.0651         11.0733 
        1.04929         19.8284         10.9275 
        1.05541          19.645          10.785 
        1.06154         19.5128         10.6447 
        1.06769         19.4143         10.5067 
        1.07382         19.1758         10.3716 
        1.07993         19.0829         10.2393 
        1.08607         18.8652         10.1087 
        1.09222         18.7342         9.98026 
        1.09836          18.518         9.85425 
        1.10449         18.4184         9.73058 
        1.11063         18.2358         9.60892 
        1.11677         18.1545          9.4894 
         1.1229         18.0462         9.37214 
        1.12903         17.8283         9.25678 
        1.13518         17.6403         9.14328 
        1.14131         17.5508         9.03176 
        1.14745         17.4236         8.92218 
        1.15359         17.3035         8.81441 
        1.15973         17.1622         8.70839 
        1.16584         16.9299         8.60461 
        1.17197         16.8819         8.50239 
        1.17811         16.7528         8.40153 
        1.18424         16.6139         8.30261 
        1.19038         16.5388         8.20502 
        1.19652         16.3811         8.10904 
        1.20267         16.2253         8.01461 
        1.20881         16.1985         7.92173 
        1.21495         16.0704         7.83047 
        1.22108          15.896         7.74067 
         1.2272         15.7818         7.65251 
        1.23334         15.6474         7.56553 
        1.23949         15.5253         7.47971 
        1.24562         15.4823         7.39547 
        1.25174         15.3699         7.31266 
        1.25789         15.2678         7.23087 
        1.26402         15.1931         7.15049 
        1.27014         15.0602         7.07153 
        1.27628         14.8852         6.99354 
        1.28244         14.8144         6.91659 
        1.28858         14.7852          6.8409 
        1.29471         14.6227         6.76652 
        1.30084         14.4978         6.69332 
        1.30697          14.464         6.62111 
        1.31312         14.2872         6.54986 
        1.31925         14.2013         6.47989 
        1.32537         14.1489         6.41103 
        1.33151           14.05         6.34293 
        1.33765         13.9508         6.27586 
        1.34378         13.8559          6.2099 
        1.34992         13.7412         6.14486 
        1.35606         13.6932         6.08061 
         1.3622         13.6104          6.0174 
        1.36833         13.5056         5.95525 
        1.37445         13.4397         5.89402 
        1.38059         13.3827         5.83346 
        1.38675         13.2508         5.77362 
        1.39288         13.1905         5.71486 
        1.39901         13.0652         5.65696 
        1.40515         13.0199         5.59972 
         1.4113          12.949         5.54331 
        1.41742         12.8639          5.4879 
        1.42355         12.7718         5.43314 
         1.4297         12.6886         5.37897 
        1.43585         12.6516         5.32556 
        1.44198          12.582         5.27309 
        1.44809         12.4901         5.22143 
        1.45423         12.4031         5.17027 
        1.46036         12.3482          5.1199 
        1.46649         12.2795         5.07018 
        1.47263         12.1735         5.02109 
        1.47877           12.12         4.97268 
        1.48491          12.051         4.92483 
        1.49104         11.9894         4.87772 
        1.49718         11.9249         4.83119 
        1.50333         11.8578          4.7852 
        1.50947         11.7852         4.73991 
         1.5156         11.7211         4.69528 
        1.52172         11.6563         4.65122 
        1.52787         11.5794         4.60765 
          1.534         11.5167         4.56469 
        1.54013         11.4642         4.52232 
        1.54627         11.3752         4.48043 
        1.55241         11.3361         4.43905 
        1.55855         11.2852         4.39827 
        1.56467         11.1991         4.35811 
         1.5708         11.1804         4.31834 
        1.57695         11.0753         4.27901 
        1.58308         11.0258         4.24027 
        1.58922         10.9853         4.20198 
        1.59535          10.938         4.16418 
         1.6015         10.8568         4.12679 
        1.60764         10.7903         4.08988 
        1.61376          10.768         4.05353 
        1.61989         10.6928         4.01759 
        1.62604          10.639         3.98201 
        1.63218         10.5999         3.94689 
        1.63831         10.5573         3.91227 
        1.64444         10.4935         3.87806 
        1.65059         10.4072         3.84418 
        1.65673         10.3856         3.81074 
        1.66285         10.2891          3.7778 
        1.66898         10.2664         3.74523 
        1.67512         10.2197         3.71299 
        1.68127         10.1606         3.68111 
         1.6874         10.1288         3.64967 
        1.69353         10.0658         3.61862 
        1.69967         10.0026         3.58786 
        1.70581          9.9574         3.55747 
        1.71193          9.9118         3.52755 
        1.71806         9.89529         3.49791 
        1.72421         9.80894         3.46856 
        1.73035         9.79151         3.43958 
        1.73649         9.74606         3.41094 
        1.74262         9.68309         3.38265 
        1.74876         9.65036         3.35467 
        1.75489          9.6174         3.32706 
        1.76101         9.54038         3.29977 
        1.76715         9.51521         3.27275 
        1.77329         9.46525           3.246 
        1.77943         9.40519         3.21954 
        1.78557         9.39485         3.19341 
        1.79171          9.3379         3.16758 
        1.79785         9.28626         3.14202 
        1.80399         9.23695         3.11675 
        1.81012          9.2096          3.0918 
        1.81625         9.15203         3.06713 
        1.82239         9.12664         3.04269 
        1.82853         9.07247         3.01854 
        1.83466         9.03753         2.99467 
        1.84078         8.98773         2.97108 
        1.84692         8.98037         2.94772 
        1.85306         8.91811         2.92457 
         1.8592          8.8692         2.90172 
        1.86533         8.84113         2.87912 
        1.87147         8.80334         2.85673 
        1.87761         8.76478         2.83458 
        1.88375           8.727         2.81269 
        1.88988          8.6946         2.79106 
        1.89601         8.65878         2.76964 
        1.90215         8.61999         2.74843 
        1.90829         8.58086         2.72746 
        1.91442         8.54632          2.7067 
        1.92056         8.51146         2.68618 
         1.9267         8.46701         2.66585 
        1.93284         8.43393         2.64572 
        1.93897         8.39369         2.62584 
        1.94509         8.36078         2.60621 
        1.95123         8.32123         2.58673 
        1.95737         8.28211         2.56743 
        1.96349           8.254         2.54839 
        1.96964         8.22003         2.52948 
        1.97578         8.18014         2.51076 
        1.98192         8.15216         2.49226 
        1.98805         8.12596         2.47395 
        1.99419         8.09139         2.45582 
        2.00033         8.06845         2.43787 
        2.00647         8.03068          2.4201 
         2.0126         7.99683         2.40254 
        2.01874         7.95651         2.38513 
        2.02488         7.93294         2.36787 
        2.03101         7.88897         2.35082 
        2.03714         7.85801         2.33395 
        2.04328         7.82382         2.31723 
        2.04941         7.79409         2.30069 
        2.05554         7.76179         2.28432 
        2.06167         7.73195         2.26809 
        2.06781         7.70906         2.25202 
        2.07396         7.68798         2.23608 
        2.08009           7.648         2.22032 
        2.08622         7.61132         2.20474 
        2.09237         7.60416         2.18927 
        2.09851         7.57284         2.17395 
        2.10464         7.53308          2.1588 
        2.11077         7.48925         2.14382 
        2.11691         7.46985         2.12894 
        2.12305         7.45073         2.11421 
        2.12918         7.42845         2.09965 
        2.13531         7.38786         2.08523 
        2.14145         7.36864         2.07091 
         2.1476         7.32471         2.05671 
        2.15372         7.30619         2.04272 
        2.15985         7.29926         2.02884 
        2.16599         7.24993         2.01505 
        2.17213         7.23564         2.00141 
        2.17827         7.21176         1.98789 
         2.1844         7.17729         1.97452 
        2.19054         7.14342         1.96126 
        2.19666          7.1194         1.94814 
         2.2028         7.09498         1.93513 
        2.20893         7.07986         1.92224 
        2.21508         7.04073         1.90945 
        2.22122         7.01398         1.89677 
        2.22736         6.99122         1.88423 
        2.23349         6.98382         1.87181 
        2.23962         6.94735          1.8595 
        2.24577         6.91358         1.84728 
         2.2519         6.90421          1.8352 
        2.25802         6.86807         1.82324 
        2.26417         6.84327         1.81135 
        2.27031         6.82099         1.79956 
        2.27644         6.79438         1.78791 
        2.28257         6.77575         1.77637 
        2.28872         6.75217          1.7649 
        2.29486         6.72586         1.75354 
        2.30099         6.70754          1.7423 
        2.30712         6.68461         1.73115 
        2.31326         6.64393         1.72009 
         2.3194         6.63511         1.70913 
        2.32553         6.61455         1.69828 
        2.33166         6.59302         1.68753 
         2.3378         6.57024         1.67686 
        2.34394          6.5451         1.66628 
        2.35007         6.51125         1.65581 
        2.35619           6.501         1.64544 
        2.36233         6.47824         1.63513 
        2.36848         6.45216         1.62489 
        2.37462          6.4351         1.61476 
        2.38075         6.42121         1.60473 
        2.38689         6.38959         1.59478 
        2.39303         6.36634         1.58491 
        2.39916         6.35066         1.57513 
        2.40529         6.32438         1.56544 
        2.41143         6.30933         1.55583 
        2.41757         6.29838         1.54629 
         2.4237         6.27727         1.53685 
        2.42983         6.23994         1.52749 
        2.43598         6.23361         1.51818 
        2.44211           6.209         1.50897 
        2.44823         6.18963         1.49985 
        2.45437         6.16425         1.49079 
        2.46052         6.14293         1.48179 
        2.46665         6.12828         1.47288 
        2.47279         6.10419         1.46405 
        2.47892         6.08395         1.45528 
        2.48507         6.07156         1.44658 
         2.4912         6.04191         1.43797 
