# k  (h/Mpc)    P(k)  (Mpc/h)^3    P_linear(k)  (Mpc/h)^3
     0.00783031          2118.4         2143.84 
       0.013688          2792.1         2794.51 
       0.019231         2957.81         2958.69 
      0.0249154         2829.82         2853.28 
      0.0312784         2569.89         2578.52 
      0.0375637          2277.2         2274.65 
      0.0433917         2019.02         2029.27 
      0.0492413         1835.98         1839.26 
      0.0555754         1675.36          1691.1 
      0.0619321         1584.63         1580.44 
       0.067871          1475.5          1488.6 
      0.0738098         1378.12         1391.77 
      0.0800417         1259.23         1278.17 
      0.0862327         1144.88            1157 
      0.0921407         1037.17         1043.27 
      0.0982031         930.215         938.781 
       0.104506          852.99         850.537 
       0.110769         786.339          785.09 
       0.116806         735.316         739.657 
       0.122832         704.989         705.393 
       0.129052         667.455         674.392 
       0.135211         634.919         642.097 
       0.141259         603.349         605.886 
       0.147318         565.938         565.419 
       0.153489         520.821         522.619 
       0.159709         483.208         481.649 
       0.165845         453.814         446.496 
       0.171974         422.126         418.176 
       0.178125         401.219         396.399 
       0.184229         386.212         379.834 
        0.19034         365.381         366.038 
       0.196428         356.908          352.84 
       0.202534         345.932         338.549 
       0.208729         327.692         322.342 
       0.214876         308.469         304.946 
       0.220989         295.975         287.391 
       0.227147         276.403         270.691 
        0.23329         262.982         255.982 
       0.239377         253.248         243.763 
       0.245482         239.382          233.74 
       0.251667         234.469         225.312 
       0.257832          226.65         217.861 
       0.263955             219         210.655 
       0.270079          211.65         203.146 
        0.27624         206.081         195.105 
       0.282372         197.824         186.763 
        0.28843          189.03          178.53 
       0.294538         180.988         170.625 
       0.300721         176.623         163.352 
        0.30691         168.521         156.944 
       0.313033         163.511          151.44 
       0.319153          156.31         146.574 
       0.325316         153.843         142.073 
        0.33145         148.511         137.736 
       0.337538         145.412         133.413 
       0.343633         140.603         128.991 
       0.349808         136.303         124.463 
       0.355968         132.472         119.995 
       0.362074         128.265         115.743 
       0.368217         124.514         111.751 
       0.374374         120.742         108.078 
       0.380519         117.813         104.747 
       0.386598          114.68         101.715 
       0.392688         112.534         98.8643 
        0.39888         109.435         96.0783 
       0.405048         107.003         93.3461 
       0.411186         104.562         90.6467 
       0.417313         101.338         87.9765 
       0.423458         98.8914         85.3456 
       0.429607         96.2835         82.8031 
       0.435692         93.3003         80.4112 
       0.441815         92.0786         78.1397 
       0.447964         90.5262         76.0003 
       0.454126          86.879         73.9856 
       0.460267         85.5249         72.0756 
       0.466387         83.3566         70.2416 
        0.47254         82.2097         68.4493 
       0.478662         80.8228         66.7045 
       0.484765         78.5801         64.9959 
       0.490885         76.9346         63.3226 
       0.497035         75.8624         61.6934 
       0.503198         73.9518         60.1234 
       0.509342         72.1261         58.6229 
       0.515458         70.8467         57.1951 
       0.521598         69.8008         55.8269 
       0.527764         68.4836         54.5096 
       0.533884         67.3028         53.2474 
           0.54         66.0127         52.0219 
       0.546137         65.0642         50.8236 
       0.552299         64.0789         49.6522 
       0.558452         62.2237         48.5144 
       0.564573         61.2961          47.414 
       0.570708         60.5031         46.3443 
       0.576825          59.117         45.3127 
       0.582926         58.0372           44.32 
       0.589034         56.6357         43.3622 
       0.595184         55.9718          42.431 
       0.601379         55.1698         41.5229 
       0.607522         54.0086         40.6482 
       0.613639         53.6685         39.7999 
       0.619772         52.3163         38.9715 
       0.625918         52.0559         38.1639 
       0.632068           51.23         37.3783 
       0.638161         50.2996         36.6222 
         0.6443         49.3979         35.8827 
       0.650464         48.6112         35.1618 
       0.656582         48.3018         34.4666 
       0.662703         47.3477         33.7907 
       0.668861         46.6416         33.1295 
       0.675024         45.9065         32.4858 
       0.681124         45.1201         31.8661 
       0.687237         44.4113         31.2615 
       0.693381         44.0528           30.67 
       0.699536         43.0444         30.0929 
       0.705665         43.0848         29.5332 
       0.711789         42.0639         28.9884 
       0.717957         41.6292         28.4537 
        0.72409         41.0156         27.9356 
       0.730186         40.4298         27.4336 
       0.736317         40.1052         26.9413 
       0.742472         39.3947         26.4595 
       0.748622         39.0622         25.9901 
        0.75476         38.4496         25.5332 
       0.760888         37.9403         25.0881 
       0.767043         37.5309          24.652 
       0.773185         36.9066         24.2274 
       0.779291         36.7579         23.8153 
       0.785407         36.3352         23.4123 
       0.791564         35.6682         23.0163 
       0.797719         35.0141         22.6297 
       0.803834         34.9644         22.2546 
       0.809972         34.5958         21.8867 
       0.816124         33.8337         21.5265 
       0.822261         33.6815         21.1755 
       0.828378           33.34         20.8334 
       0.834502         32.9717         20.4987 
       0.840667         32.6201         20.1693 
       0.846816         32.0967         19.8482 
       0.852925         31.8394         19.5361 
       0.859047         31.4492         19.2302 
       0.865192         31.1861         18.9299 
       0.871341         30.9928         18.6359 
       0.877463         30.4096         18.3495 
       0.883569         30.1076         18.0699 
       0.889708         29.7675         17.7948 
       0.895864          29.555         17.5248 
       0.902008         29.3307          17.261 
       0.908149         29.0164         17.0028 
       0.914301         28.8724         16.7496 
       0.920448         28.2941         16.5018 
       0.926574         28.1388           16.26 
       0.932687         27.8466         16.0236 
       0.938823         27.4907          15.791 
       0.944975         27.2424         15.5626 
       0.951105         27.0463         15.3396 
       0.957225         26.7503         15.1214 
       0.963368         26.5492         14.9068 
       0.969511         26.3391         14.6963 
       0.975621         26.1386         14.4911 
       0.981748         25.7919         14.2893 
       0.987916         25.6417         14.0901 
        0.99406         25.3495         13.8956 
        1.00019         25.0281         13.7051 
        1.00632         24.9754         13.5184 
        1.01246         24.7292         13.3349 
        1.01859          24.401         13.1551 
        1.02471         24.3275          12.979 
        1.03085         24.0963         12.8054 
        1.03698         23.7355         12.6354 
        1.04314         23.6007         12.4679 
        1.04929         23.3495         12.3038 
        1.05541         23.1356         12.1433 
        1.06154         22.9932         11.9853 
        1.06769         22.8664         11.8299 
        1.07382         22.6079         11.6778 
        1.07993         22.5121         11.5288 
        1.08607         22.2363         11.3818 
        1.09222         22.0993         11.2372 
        1.09836         21.8383         11.0953 
        1.10449         21.7421          10.956 
        1.11063         21.5113         10.8191 
        1.11677          21.428         10.6845 
         1.1229         21.3135         10.5525 
        1.12903         21.0441         10.4226 
        1.13518          20.839         10.2948 
        1.14131         20.7542         10.1692 
        1.14745         20.6076         10.0458 
        1.15359         20.4694         9.92449 
        1.15973         20.2872         9.80512 
        1.16584         20.0339         9.68827 
        1.17197         20.0063         9.57317 
        1.17811         19.8148         9.45961 
        1.18424         19.6516         9.34824 
        1.19038         19.5718         9.23835 
        1.19652            19.4         9.13029 
        1.20267         19.2317         9.02397 
        1.20881         19.1827         8.91938 
        1.21495         19.0387         8.81663 
        1.22108         18.8493         8.71553 
         1.2272         18.6961         8.61626 
        1.23334         18.5628         8.51833 
        1.23949         18.4103          8.4217 
        1.24562         18.3721         8.32684 
        1.25174         18.2437         8.23361 
        1.25789          18.125         8.14152 
        1.26402         18.0346         8.05102 
        1.27014         17.8726         7.96212 
        1.27628         17.6759          7.8743 
        1.28244          17.619         7.78765 
        1.28858         17.5682         7.70243 
        1.29471         17.3772         7.61869 
        1.30084         17.2393         7.53627 
        1.30697         17.1771         7.45496 
        1.31312         16.9962         7.37474 
        1.31925          16.892         7.29597 
        1.32537          16.845         7.21843 
        1.33151         16.7066         7.14175 
        1.33765         16.6109         7.06624 
        1.34378         16.5132         6.99197 
        1.34992         16.3517         6.91874 
        1.35606         16.3139          6.8464 
         1.3622          16.216         6.77523 
        1.36833         16.0902         6.70525 
        1.37445         16.0214         6.63631 
        1.38059         15.9472         6.56813 
        1.38675         15.7843         6.50075 
        1.39288          15.722         6.43459 
        1.39901         15.5826         6.36939 
        1.40515         15.5281         6.30495 
         1.4113         15.4408         6.24143 
        1.41742         15.3393         6.17904 
        1.42355         15.2491         6.11738 
         1.4297         15.1525         6.05639 
        1.43585         15.1106         5.99626 
        1.44198              15         5.93718 
        1.44809         14.9157         5.87901 
        1.45423         14.8174         5.82141 
        1.46036         14.7589         5.76469 
        1.46649         14.6817         5.70872 
        1.47263         14.5544         5.65344 
        1.47877         14.4915         5.59893 
        1.48491         14.4138         5.54506 
        1.49104         14.3475         5.49201 
        1.49718         14.2587         5.43963 
        1.50333         14.1869         5.38785 
        1.50947         14.1097         5.33685 
         1.5156         14.0216         5.28659 
        1.52172         13.9455         5.23699 
        1.52787         13.8589         5.18793 
          1.534         13.7891         5.13956 
        1.54013         13.7172         5.09186 
        1.54627         13.6235         5.04469 
        1.55241         13.5756         4.99811 
        1.55855          13.517         4.95218 
        1.56467         13.4198         4.90697 
         1.5708         13.4017         4.86219 
        1.57695         13.2765         4.81791 
        1.58308         13.2246         4.77428 
        1.58922         13.1689         4.73117 
        1.59535         13.1115         4.68861 
         1.6015          13.018         4.64651 
        1.60764         12.9481         4.60496 
        1.61376         12.9278         4.56403 
        1.61989         12.8195         4.52357 
        1.62604         12.7801          4.4835 
        1.63218         12.7153         4.44396 
        1.63831         12.6706         4.40498 
        1.64444         12.5844         4.36646 
        1.65059         12.5087         4.32831 
        1.65673         12.4743         4.29066 
        1.66285         12.3606         4.25357 
        1.66898         12.3386          4.2169 
        1.67512         12.2809          4.1806 
        1.68127         12.2069          4.1447 
         1.6874         12.1693          4.1093 
        1.69353         12.1039         4.07434 
        1.69967          12.026         4.03971 
        1.70581         11.9685         4.00549 
        1.71193         11.9151         3.97181 
        1.71806         11.9006         3.93844 
        1.72421         11.7971         3.90539 
        1.73035         11.7772         3.87276 
        1.73649         11.7241         3.84051 
        1.74262         11.6613         3.80866 
        1.74876         11.6138         3.77715 
        1.75489         11.5704         3.74606 
        1.76101         11.4819         3.71534 
        1.76715         11.4635         3.68491 
        1.77329         11.3979          3.6548 
        1.77943         11.3303           3.625 
        1.78557         11.3096         3.59559 
        1.79171          11.256          3.5665 
        1.79785         11.1881         3.53772 
        1.80399         11.1383         3.50927 
        1.81012          11.096         3.48118 
        1.81625         11.0307          3.4534 
        1.82239         10.9981         3.42589 
        1.82853          10.926         3.39869 
        1.83466         10.8927         3.37181 
        1.84078         10.8268         3.34526 
        1.84692         10.8205         3.31895 
        1.85306          10.755         3.29289 
         1.8592          10.698         3.26715 
        1.86533         10.6632         3.24171 
        1.87147         10.6171         3.21651 
        1.87761          10.575         3.19157 
        1.88375         10.5271         3.16692 
        1.88988          10.497         3.14256 
        1.89601         10.4478         3.11844 
        1.90215         10.3947         3.09457 
        1.90829         10.3567         3.07095 
        1.91442          10.314         3.04758 
        1.92056         10.2786         3.02447 
         1.9267         10.2273         3.00159 
        1.93284          10.182         2.97892 
        1.93897         10.1305         2.95654 
        1.94509         10.0997         2.93443 
        1.95123         10.0545          2.9125 
        1.95737         10.0092         2.89077 
        1.96349         9.97069         2.86933 
        1.96964         9.92853         2.84804 
        1.97578         9.88828         2.82696 
        1.98192          9.8469         2.80613 
        1.98805         9.81812         2.78552 
        1.99419         9.77663         2.76511 
        2.00033         9.75113         2.74489 
        2.00647          9.7069         2.72488 
         2.0126         9.65625         2.70511 
        2.01874         9.62032         2.68551 
        2.02488         9.58191         2.66608 
        2.03101         9.54335         2.64688 
        2.03714          9.5041         2.62789 
        2.04328         9.46638         2.60906 
        2.04941         9.43271         2.59044 
        2.05554         9.39328         2.57201 
        2.06167         9.35054         2.55374 
        2.06781         9.33188         2.53564 
        2.07396         9.29921         2.51769 
        2.08009         9.24947         2.49995 
        2.08622         9.21023          2.4824 
        2.09237          9.2013         2.46498 
        2.09851         9.17408         2.44773 
        2.10464         9.12264         2.43068 
        2.11077         9.06725         2.41381 
        2.11691         9.03854         2.39706 
        2.12305         9.02215         2.38047 
        2.12918         8.99503         2.36408 
        2.13531         8.94377         2.34784 
        2.14145         8.92331         2.33172 
         2.1476         8.87142         2.31573 
        2.15372         8.84898         2.29997 
        2.15985         8.84221         2.28435 
        2.16599         8.78787         2.26882 
        2.17213         8.76935         2.25346 
        2.17827         8.73716         2.23825 
         2.1844         8.69805         2.22318 
        2.19054         8.64977         2.20826 
        2.19666         8.63208         2.19349 
         2.2028         8.59746         2.17884 
        2.20893         8.58223         2.16432 
        2.21508         8.53681         2.14992 
        2.22122         8.49963         2.13565 
        2.22736         8.47645         2.12153 
        2.23349         8.45635         2.10755 
        2.23962         8.42463         2.09368 
        2.24577         8.38338         2.07993 
         2.2519         8.36532         2.06632 
        2.25802         8.32927         2.05286 
        2.26417         8.29683         2.03947 
        2.27031         8.27313          2.0262 
        2.27644         8.24248         2.01308 
        2.28257         8.22077         2.00008 
        2.28872         8.18446         1.98717 
        2.29486         8.15931         1.97438 
        2.30099         8.14352         1.96172 
        2.30712         8.11556         1.94917 
        2.31326         8.06236         1.93671 
         2.3194         8.04476         1.92437 
        2.32553         8.03282         1.91216 
        2.33166         7.99914         1.90006 
         2.3378         7.97414         1.88804 
        2.34394         7.94328         1.87613 
        2.35007         7.89918         1.86434 
        2.35619         7.88228         1.85266 
        2.36233         7.85595         1.84106 
        2.36848         7.83409         1.82953 
        2.37462         7.80698         1.81813 
        2.38075         7.78991         1.80683 
        2.38689         7.75421         1.79562 
        2.39303         7.72384         1.78451 
        2.39916         7.70693         1.77351 
        2.40529         7.67781          1.7626 
        2.41143         7.65332         1.75177 
        2.41757         7.64588         1.74103 
         2.4237         7.61661          1.7304 
        2.42983         7.58716         1.71986 
        2.43598          7.5695         1.70938 
        2.44211         7.54257         1.69901 
        2.44823         7.52109         1.68874 
        2.45437         7.49193         1.67853 
        2.46052         7.45676          1.6684 
        2.46665         7.44024         1.65837 
        2.47279         7.41162         1.64843 
        2.47892         7.38458         1.63856 
        2.48507         7.37096         1.62877 
         2.4912         7.33772         1.61907 
