# k  (h/Mpc)    P(k)  (Mpc/h)^3    P_linear(k)  (Mpc/h)^3
     0.00783031         1061.34         1072.93 
       0.013688         1395.87         1398.91 
       0.019231         1480.32         1481.26 
      0.0249154          1419.6         1428.58 
      0.0312784         1288.39         1291.08 
      0.0375637         1140.66         1138.96 
      0.0433917         1013.44         1016.11 
      0.0492413         920.857         920.983 
      0.0555754         842.279         846.802 
      0.0619321         793.951         791.397 
       0.067871         741.791         745.412 
      0.0738098         692.997         696.931 
      0.0800417          634.28         640.045 
      0.0862327         576.105         579.375 
      0.0921407         521.028         522.423 
      0.0982031         467.745         470.101 
       0.104506         427.366         425.913 
       0.110769          394.13         393.141 
       0.116806         369.071         370.391 
       0.122832         353.513         353.233 
       0.129052          335.75         337.709 
       0.135211         319.323         321.537 
       0.141259         302.829         303.405 
       0.147318         283.784         283.141 
       0.153489         261.467         261.708 
       0.159709         241.808         241.192 
       0.165845         226.344         223.589 
       0.171974         210.549         209.407 
       0.178125         200.006         198.502 
       0.184229         192.334         190.207 
        0.19034          183.03         183.299 
       0.196428         177.958          176.69 
       0.202534         172.154         169.533 
       0.208729         163.156         161.417 
       0.214876         153.643         152.706 
       0.220989         146.809         143.915 
       0.227147         137.072         135.552 
        0.23329         130.077         128.187 
       0.239377         124.679         122.068 
       0.245482         118.547         117.049 
       0.251667         115.566         112.829 
       0.257832         111.595         109.097 
       0.263955         107.915         105.489 
       0.270079         104.245         101.728 
        0.27624         101.088         97.7021 
       0.282372         96.9385         93.5244 
        0.28843         92.4298         89.4018 
       0.294538         88.5147         85.4429 
       0.300721         85.7858         81.8011 
        0.30691         81.9369         78.5921 
       0.313033         79.3239         75.8358 
       0.319153         75.8595         73.3994 
       0.325316         74.7578         71.1454 
        0.33145         72.1957         68.9734 
       0.337538         70.2882         66.8086 
       0.343633         67.8965         64.5943 
       0.349808         65.8398          62.327 
       0.355968         63.7165         60.0896 
       0.362074         61.5694         57.9602 
       0.368217         59.6765          55.961 
       0.374374         57.6874         54.1218 
       0.380519         56.2395         52.4536 
       0.386598         54.7452         50.9353 
       0.392688         53.5761         49.5079 
        0.39888          52.021         48.1128 
       0.405048         50.8003         46.7446 
       0.411186         49.5654         45.3928 
       0.417313         47.9037         44.0557 
       0.423458         46.6837         42.7382 
       0.429607         45.3421          41.465 
       0.435692         44.0107         40.2672 
       0.441815         43.1431         39.1297 
       0.447964         42.3654         38.0584 
       0.454126          40.827         37.0495 
       0.460267         40.0342          36.093 
       0.466387         38.8583         35.1746 
        0.47254         38.2683         34.2771 
       0.478662         37.5269         33.4034 
       0.484765         36.4648         32.5477 
       0.490885         35.6034         31.7098 
       0.497035         35.1022          30.894 
       0.503198         34.1976         30.1078 
       0.509342         33.3558         29.3564 
       0.515458         32.6126         28.6414 
       0.521598         32.0341         27.9562 
       0.527764         31.3262         27.2966 
       0.533884         30.7871         26.6645 
           0.54         30.1442         26.0508 
       0.546137         29.6078         25.4508 
       0.552299         29.0867         24.8642 
       0.558452         28.2034         24.2944 
       0.564573         27.8469         23.7434 
       0.570708         27.3488         23.2077 
       0.576825         26.6377         22.6911 
       0.582926         26.1888          22.194 
       0.589034         25.4761         21.7143 
       0.595184         25.1222          21.248 
       0.601379         24.6491         20.7933 
       0.607522         24.2608         20.3552 
       0.613639         23.9837         19.9304 
       0.619772         23.3592         19.5157 
       0.625918         23.1934         19.1112 
       0.632068         22.8035         18.7178 
       0.638161         22.2934         18.3392 
         0.6443          21.843         17.9689 
       0.650464         21.4427         17.6079 
       0.656582          21.288         17.2597 
       0.662703            20.9         16.9212 
       0.668861         20.5205         16.5901 
       0.675024         20.1378         16.2678 
       0.681124         19.7969         15.9575 
       0.687237         19.4958         15.6547 
       0.693381         19.2697         15.3585 
       0.699536         18.7637         15.0695 
       0.705665         18.6114         14.7893 
       0.711789         18.2794         14.5164 
       0.717957         18.0106         14.2487 
        0.72409         17.7209         13.9892 
       0.730186         17.4888         13.7378 
       0.736317         17.3055         13.4913 
       0.742472         17.0234           13.25 
       0.748622         16.7818          13.015 
        0.75476         16.4414         12.7862 
       0.760888         16.2644         12.5633 
       0.767043         16.0661         12.3449 
       0.773185         15.7461         12.1323 
       0.779291         15.6431         11.9259 
       0.785407         15.4117         11.7241 
       0.791564         15.1495         11.5258 
       0.797719         14.8921         11.3322 
       0.803834         14.8054         11.1443 
       0.809972          14.663         10.9601 
       0.816124          14.342         10.7798 
       0.822261         14.1765          10.604 
       0.828378         14.0071         10.4327 
       0.834502         13.8769         10.2651 
       0.840667         13.6546         10.1001 
       0.846816         13.4251         9.93931 
       0.852925         13.3099         9.78304 
       0.859047         13.1452         9.62984 
       0.865192         13.0343         9.47946 
       0.871341         12.9006         9.33222 
       0.877463         12.6895         9.18881 
       0.883569         12.4991         9.04881 
       0.889708         12.3043         8.91104 
       0.895864         12.2255         8.77582 
       0.902008         12.0989         8.64372 
       0.908149         11.9631         8.51445 
       0.914301         11.8138         8.38764 
       0.920448         11.6298         8.26357 
       0.926574          11.504         8.14246 
       0.932687          11.404         8.02407 
       0.938823          11.248         7.90763 
       0.944975         11.1041         7.79325 
       0.951105         11.0137         7.68158 
       0.957225         10.9465          7.5723 
       0.963368         10.8004         7.46481 
       0.969511         10.6901         7.35942 
       0.975621         10.5645         7.25666 
       0.981748         10.4524         7.15561 
       0.987916         10.3605         7.05587 
        0.99406         10.2027         6.95843 
        1.00019         10.0534         6.86304 
        1.00632         10.0363         6.76954 
        1.01246         9.92039         6.67767 
        1.01859         9.78262         6.58766 
        1.02471         9.70408         6.49943 
        1.03085         9.61197         6.41253 
        1.03698         9.47757         6.32741 
        1.04314         9.41294          6.2435 
        1.04929         9.28928         6.16131 
        1.05541         9.19093         6.08095 
        1.06154         9.11751         6.00184 
        1.06769         9.07362         5.92403 
        1.07382         8.93204         5.84787 
        1.07993         8.85362         5.77324 
        1.08607         8.79008         5.69961 
        1.09222         8.70389          5.6272 
        1.09836         8.61885         5.55615 
        1.10449         8.53225         5.48643 
        1.11063         8.45807         5.41783 
        1.11677         8.39557         5.35044 
         1.1229         8.32045         5.28433 
        1.12903          8.2319         5.21928 
        1.13518         8.14437         5.15528 
        1.14131         8.05693         5.09241 
        1.14745          7.9746         5.03062 
        1.15359         7.93051         4.96986 
        1.15973         7.85936         4.91008 
        1.16584         7.76161         4.85157 
        1.17197           7.706         4.79393 
        1.17811         7.65824         4.73706 
        1.18424         7.59986         4.68129 
        1.19038         7.54869         4.62626 
        1.19652         7.47185         4.57215 
        1.20267         7.38479         4.51891 
        1.20881         7.35301         4.46653 
        1.21495         7.28946         4.41508 
        1.22108         7.21019         4.36445 
         1.2272         7.17604         4.31474 
        1.23334         7.08211          4.2657 
        1.23949         7.02663         4.21731 
        1.24562          6.9947         4.16981 
        1.25174         6.91725         4.12312 
        1.25789          6.8722           4.077 
        1.26402          6.8226         4.03168 
        1.27014         6.76051         3.98717 
        1.27628         6.70672         3.94319 
        1.28244         6.63034          3.8998 
        1.28858         6.61562         3.85712 
        1.29471         6.54381         3.81519 
        1.30084         6.48397         3.77392 
        1.30697         6.48441          3.7332 
        1.31312         6.36317         3.69303 
        1.31925         6.33944         3.65358 
        1.32537         6.28933         3.61475 
        1.33151         6.26464         3.57635 
        1.33765         6.18614         3.53854 
        1.34378         6.14149         3.50135 
        1.34992         6.11656         3.46468 
        1.35606         6.04904         3.42845 
         1.3622         6.02153         3.39281 
        1.36833         5.97585         3.35777 
        1.37445         5.93399         3.32324 
        1.38059         5.90795          3.2891 
        1.38675         5.86245         3.25536 
        1.39288         5.81254         3.22223 
        1.39901         5.75572         3.18958 
        1.40515         5.72459         3.15731 
         1.4113          5.6876          3.1255 
        1.41742         5.65049         3.09426 
        1.42355         5.60223         3.06338 
         1.4297         5.55597         3.03284 
        1.43585         5.53864         3.00273 
        1.44198         5.51254         2.97314 
        1.44809         5.45061         2.94401 
        1.45423         5.41156         2.91517 
        1.46036         5.37287         2.88677 
        1.46649         5.33218         2.85874 
        1.47263         5.29505         2.83106 
        1.47877         5.25657         2.80376 
        1.48491         5.22512         2.77678 
        1.49104         5.19957         2.75022 
        1.49718         5.16205         2.72399 
        1.50333         5.13278         2.69806 
        1.50947         5.09503         2.67252 
         1.5156         5.06349         2.64735 
        1.52172         5.03451         2.62251 
        1.52787         5.00443         2.59794 
          1.534         4.96428         2.57372 
        1.54013         4.94266         2.54984 
        1.54627          4.8939         2.52621 
        1.55241         4.86553         2.50289 
        1.55855         4.84752         2.47989 
        1.56467         4.81327         2.45725 
         1.5708         4.78079         2.43482 
        1.57695         4.74311         2.41265 
        1.58308         4.71163          2.3908 
        1.58922         4.69869         2.36921 
        1.59535         4.66811          2.3479 
         1.6015         4.63557         2.32682 
        1.60764         4.60637         2.30601 
        1.61376         4.57982         2.28552 
        1.61989          4.5541         2.26525 
        1.62604         4.52093         2.24519 
        1.63218         4.50874         2.22539 
        1.63831         4.47468         2.20587 
        1.64444         4.44685         2.18658 
        1.65059         4.41168         2.16748 
        1.65673         4.39794         2.14862 
        1.66285         4.35975         2.13005 
        1.66898         4.34343         2.11169 
        1.67512         4.31122         2.09351 
        1.68127         4.28842         2.07553 
         1.6874         4.27327          2.0578 
        1.69353         4.23177          2.0403 
        1.69967         4.21536         2.02295 
        1.70581          4.1971         2.00582 
        1.71193         4.17326         1.98895 
        1.71806         4.15178         1.97224 
        1.72421         4.12527         1.95569 
        1.73035         4.10745         1.93935 
        1.73649         4.07893          1.9232 
        1.74262         4.05215         1.90725 
        1.74876          4.0446         1.89147 
        1.75489         4.01838          1.8759 
        1.76101          3.9858         1.86052 
        1.76715          3.9712         1.84528 
        1.77329         3.95368          1.8302 
        1.77943         3.91621         1.81528 
        1.78557         3.90852         1.80055 
        1.79171         3.88499         1.78599 
        1.79785         3.86085         1.77158 
        1.80399         3.84227         1.75733 
        1.81012         3.82871         1.74326 
        1.81625         3.80104         1.72935 
        1.82239         3.78068         1.71557 
        1.82853         3.75884         1.70195 
        1.83466         3.75079         1.68849 
        1.84078         3.72743          1.6752 
        1.84692         3.71287         1.66202 
        1.85306         3.68189         1.64897 
         1.8592         3.66284         1.63608 
        1.86533         3.64765         1.62334 
        1.87147         3.63439         1.61072 
        1.87761         3.61322         1.59823 
        1.88375            3.59         1.58589 
        1.88988         3.57219         1.57369 
        1.89601         3.55807         1.56162 
        1.90215         3.53749         1.54966 
        1.90829         3.51598         1.53783 
        1.91442         3.50617         1.52613 
        1.92056         3.48169         1.51456 
         1.9267           3.471          1.5031 
        1.93284          3.4542         1.49175 
        1.93897         3.43637         1.48054 
        1.94509         3.41084         1.46947 
        1.95123         3.39658         1.45848 
        1.95737         3.37814         1.44761 
        1.96349         3.36763         1.43687 
        1.96964         3.35817          1.4262 
        1.97578         3.33377         1.41565 
        1.98192         3.32141         1.40522 
        1.98805         3.30663          1.3949 
        1.99419         3.28978         1.38467 
        2.00033         3.28106         1.37455 
        2.00647         3.25889         1.36453 
         2.0126         3.24826         1.35463 
        2.01874         3.22243         1.34481 
        2.02488         3.21418         1.33509 
        2.03101         3.19115         1.32547 
        2.03714         3.17951         1.31596 
        2.04328         3.16756         1.30653 
        2.04941         3.14357         1.29721 
        2.05554         3.13855         1.28798 
        2.06167         3.12387         1.27883 
        2.06781          3.1123         1.26976 
        2.07396         3.09975         1.26078 
        2.08009         3.08263         1.25189 
        2.08622         3.06394          1.2431 
        2.09237         3.05863         1.23438 
        2.09851         3.04096         1.22574 
        2.10464         3.03062          1.2172 
        2.11077         3.01462         1.20876 
        2.11691         3.00172         1.20037 
        2.12305         2.99103         1.19206 
        2.12918          2.9815         1.18385 
        2.13531         2.96599         1.17572 
        2.14145         2.95176         1.16765 
         2.1476         2.93506         1.15964 
        2.15372         2.92394         1.15175 
        2.15985         2.91126         1.14393 
        2.16599         2.90029         1.13615 
        2.17213         2.88343         1.12846 
        2.17827         2.87417         1.12084 
         2.1844         2.86226          1.1133 
        2.19054         2.85329         1.10582 
        2.19666          2.8376         1.09843 
         2.2028         2.82491         1.09109 
        2.20893         2.81448         1.08382 
        2.21508         2.80083         1.07661 
        2.22122         2.78805         1.06946 
        2.22736         2.77532         1.06239 
        2.23349          2.7699         1.05539 
        2.23962         2.75361         1.04845 
        2.24577          2.7436         1.04156 
         2.2519         2.73227         1.03475 
        2.25802         2.72511           1.028 
        2.26417         2.71264          1.0213 
        2.27031         2.69992         1.01465 
        2.27644          2.6911         1.00808 
        2.28257         2.67699         1.00157 
        2.28872          2.6684        0.995109 
        2.29486          2.6573        0.988703 
        2.30099         2.64493        0.982366 
        2.30712         2.63164        0.976083 
        2.31326         2.62635        0.969844 
         2.3194         2.61391        0.963663 
        2.32553         2.60337        0.957547 
        2.33166         2.59401        0.951487 
         2.3378         2.58422        0.945471 
        2.34394          2.5736        0.939505 
        2.35007         2.56162          0.9336 
        2.35619         2.55767        0.927753 
        2.36233         2.54458        0.921942 
        2.36848          2.5337        0.916169 
        2.37462         2.52635        0.910458 
        2.38075         2.51387        0.904802 
        2.38689         2.50662        0.899189 
        2.39303         2.49683        0.893625 
        2.39916         2.48638        0.888114 
        2.40529         2.47624         0.88265 
        2.41143         2.46683        0.877229 
        2.41757         2.45692        0.871851 
         2.4237         2.45038        0.866527 
        2.42983         2.43305         0.86125 
        2.43598         2.43564        0.856002 
        2.44211         2.42004        0.850807 
        2.44823         2.41487        0.845667 
        2.45437         2.40274        0.840555 
        2.46052         2.39488        0.835482 
        2.46665         2.38817        0.830459 
        2.47279         2.37718         0.82548 
        2.47892         2.36956        0.820539 
        2.48507         2.36228        0.815633 
         2.4912         2.34826        0.810777 
