# k  (h/Mpc)    P(k)  (Mpc/h)^3    P_linear(k)  (Mpc/h)^3
     0.00783031         2629.69         2662.31 
       0.013688         3468.86         3470.07 
       0.019231         3673.09          3673.8 
      0.0249154         3510.83         3542.82 
      0.0312784            3189         3201.61 
      0.0375637         2826.71         2824.28 
      0.0433917         2504.09         2519.59 
      0.0492413         2277.72         2283.66 
      0.0555754         2076.38         2099.69 
      0.0619321         1966.48         1962.29 
       0.067871         1828.52         1848.25 
      0.0738098         1707.64         1728.03 
      0.0800417         1559.24         1586.97 
      0.0862327         1418.17         1436.54 
      0.0921407         1285.67         1295.32 
      0.0982031         1152.69         1165.59 
       0.104506         1058.52         1056.02 
       0.110769         975.641         974.765 
       0.116806         911.971         918.356 
       0.122832         874.527         875.813 
       0.129052         826.887         837.322 
       0.135211         786.686         797.224 
       0.141259         748.143         752.265 
       0.147318         701.968         702.021 
       0.153489         645.735          648.88 
       0.159709         599.955         598.012 
       0.165845         564.179         554.366 
       0.171974         524.958         519.204 
       0.178125         499.009         492.166 
       0.184229         480.478         471.599 
        0.19034         453.595          454.47 
       0.196428         443.839         438.084 
       0.202534         430.395         420.339 
       0.208729         407.709         400.217 
       0.214876         383.864         378.618 
       0.220989          368.79         356.823 
       0.227147         344.637         336.087 
        0.23329         328.238         317.825 
       0.239377         316.695         302.654 
       0.245482         298.677         290.209 
       0.251667         293.053         279.746 
       0.257832         283.366         270.494 
       0.263955         273.758         261.548 
       0.270079         264.586         252.224 
        0.27624         258.051         242.241 
       0.282372         247.773         231.883 
        0.28843         237.074         221.662 
       0.294538         226.902         211.846 
       0.300721         222.057         202.816 
        0.30691          211.79          194.86 
       0.313033         205.721         188.026 
       0.319153         196.813         181.985 
       0.325316         193.387         176.397 
        0.33145          186.76         171.012 
       0.337538         183.252         165.644 
       0.343633         177.251         160.154 
       0.349808         171.764         154.532 
       0.355968         167.293         148.985 
       0.362074         162.134         143.705 
       0.368217         157.475         138.749 
       0.374374         152.783         134.189 
       0.380519         149.206         130.052 
       0.386598          145.25         126.288 
       0.392688         142.673         122.749 
        0.39888         138.839          119.29 
       0.405048         135.774         115.898 
       0.411186         132.696         112.546 
       0.417313         128.879         109.231 
       0.423458         125.869         105.964 
       0.429607         122.627         102.807 
       0.435692         118.811         99.8377 
       0.441815         117.484         97.0174 
       0.447964         115.517         94.3612 
       0.454126         110.724         91.8598 
       0.460267         109.139         89.4883 
       0.466387         106.661         87.2112 
        0.47254         105.119          84.986 
       0.478662         103.457         82.8196 
       0.484765         100.614         80.6982 
       0.490885         98.6348         78.6206 
       0.497035         97.2646         76.5979 
       0.503198         94.7867         74.6485 
       0.509342         92.5591         72.7856 
       0.515458         91.0539         71.0128 
       0.521598         89.7903         69.3141 
       0.527764         88.1934         67.6785 
       0.533884          86.665         66.1114 
           0.54         85.0561         64.5898 
       0.546137         83.9579         63.1021 
       0.552299         82.7122         61.6477 
       0.558452         80.4481          60.235 
       0.564573         79.1347         58.8688 
       0.570708         78.2304         57.5406 
       0.576825         76.5941         56.2597 
       0.582926         75.1742         55.0272 
       0.589034         73.4715         53.8381 
       0.595184           72.65         52.6819 
       0.601379         71.7142         51.5544 
       0.607522          70.071         50.4683 
       0.613639         69.7715         49.4151 
       0.619772         68.0457         48.3867 
       0.625918         67.6497         47.3839 
       0.632068         66.6459         46.4085 
       0.638161         65.5441         45.4698 
         0.6443         64.4767         44.5516 
       0.650464         63.4833         43.6565 
       0.656582          63.025         42.7934 
       0.662703         61.7348         41.9541 
       0.668861         60.9735         41.1332 
       0.675024         60.0657         40.3341 
       0.681124         59.0661         39.5646 
       0.687237         58.1446         38.8139 
       0.693381         57.6681         38.0795 
       0.699536         56.4737          37.363 
       0.705665         56.6773         36.6681 
       0.711789         55.2232         35.9917 
       0.717957         54.7457         35.3278 
        0.72409         53.9394         34.6845 
       0.730186         53.1324         34.0613 
       0.736317         52.8138         33.4501 
       0.742472         51.8955         32.8518 
       0.748622         51.4895          32.269 
        0.75476         50.7711         31.7017 
       0.760888         50.0704         31.1491 
       0.767043         49.5513         30.6077 
       0.773185         48.8152         30.0804 
       0.779291         48.6185         29.5688 
       0.785407         48.1012         29.0685 
       0.791564         47.2419         28.5767 
       0.797719         46.4353         28.0968 
       0.803834         46.3693          27.631 
       0.809972         45.7642         27.1743 
       0.816124         44.8973         26.7271 
       0.822261          44.715         26.2912 
       0.828378         44.3119         25.8666 
       0.834502         43.7867          25.451 
       0.840667         43.3879          25.042 
       0.846816         42.7414         24.6433 
       0.852925         42.4053         24.2558 
       0.859047         41.8436          23.876 
       0.865192         41.5422         23.5031 
       0.871341         41.3249         23.1381 
       0.877463         40.5196         22.7825 
       0.883569         40.1966         22.4354 
       0.889708         39.8422         22.0938 
       0.895864         39.5111         21.7586 
       0.902008         39.1981          21.431 
       0.908149          38.804         21.1105 
       0.914301         38.6401         20.7961 
       0.920448         37.9096         20.4885 
       0.926574         37.7327         20.1882 
       0.932687         37.3352         19.8947 
       0.938823         36.8554          19.606 
       0.944975         36.6276         19.3224 
       0.951105         36.3296         19.0455 
       0.957225         35.9038         18.7746 
       0.963368         35.7077         18.5081 
       0.969511          35.422         18.2468 
       0.975621         35.1651          17.992 
       0.981748          34.693         17.7414 
       0.987916         34.5179         17.4942 
        0.99406          34.185         17.2526 
        1.00019         33.7726         17.0161 
        1.00632         33.6583         16.7842 
        1.01246         33.3677         16.5564 
        1.01859         32.9592         16.3333 
        1.02471         32.9007         16.1145 
        1.03085         32.5757         15.8991 
        1.03698         32.1047          15.688 
        1.04314         31.8848           15.48 
        1.04929         31.6449         15.2762 
        1.05541          31.338          15.077 
        1.06154         31.1878         14.8808 
        1.06769         30.9782         14.6879 
        1.07382          30.691         14.4991 
        1.07993         30.5842          14.314 
        1.08607         30.1775         14.1315 
        1.09222         30.0433         13.9519 
        1.09836         29.6841         13.7758 
        1.10449         29.5809         13.6029 
        1.11063         29.2259         13.4328 
        1.11677         29.1326         13.2657 
         1.1229          29.012         13.1018 
        1.12903         28.6243         12.9406 
        1.13518         28.4026         12.7819 
        1.14131          28.329          12.626 
        1.14745         28.1075         12.4728 
        1.15359         27.9498         12.3221 
        1.15973         27.6597         12.1739 
        1.16584         27.3742         12.0289 
        1.17197         27.4023         11.8859 
        1.17811         27.0487         11.7449 
        1.18424         26.8346         11.6067 
        1.19038         26.7556         11.4702 
        1.19652         26.5628         11.3361 
        1.20267         26.3672         11.2041 
        1.20881         26.2382         11.0742 
        1.21495         26.0477         10.9466 
        1.22108         25.8463         10.8211 
         1.2272         25.5958         10.6979 
        1.23334         25.4726         10.5763 
        1.23949         25.2625         10.4563 
        1.24562         25.2213         10.3385 
        1.25174         25.0541         10.2228 
        1.25789         24.8979         10.1084 
        1.26402         24.7684         9.99605 
        1.27014         24.5301         9.88568 
        1.27628         24.3145         9.77665 
        1.28244         24.2638         9.66907 
        1.28858          24.162         9.56326 
        1.29471         23.9236         9.45928 
        1.30084         23.7622         9.35695 
        1.30697         23.6312           9.256 
        1.31312         23.4256          9.1564 
        1.31925         23.3027         9.05859 
        1.32537         23.2488         8.96232 
        1.33151         23.0323         8.86712 
        1.33765         22.9464         8.77336 
        1.34378         22.8452         8.68116 
        1.34992         22.5636         8.59023 
        1.35606         22.5316         8.50041 
         1.3622         22.4032         8.41205 
        1.36833         22.2463         8.32517 
        1.37445         22.1801         8.23957 
        1.38059         22.0614         8.15491 
        1.38675         21.8304         8.07126 
        1.39288         21.7681         7.98911 
        1.39901         21.5903         7.90816 
        1.40515         21.5144         7.82816 
         1.4113         21.3837         7.74929 
        1.41742         21.2243         7.67183 
        1.42355         21.1599         7.59528 
         1.4297         21.0307         7.51955 
        1.43585         20.9805         7.44489 
        1.44198          20.766         7.37154 
        1.44809          20.704         7.29931 
        1.45423         20.5867          7.2278 
        1.46036           20.52         7.15738 
        1.46649         20.4043         7.08788 
        1.47263         20.2433         7.01925 
        1.47877         20.1526         6.95157 
        1.48491         20.0521         6.88468 
        1.49104         19.9983         6.81882 
        1.49718         19.8255         6.75378 
        1.50333         19.7465         6.68949 
        1.50947         19.6734         6.62617 
         1.5156         19.5163         6.56378 
        1.52172         19.4001         6.50219 
        1.52787         19.3351         6.44128 
          1.534         19.2301         6.38122 
        1.54013         19.1025           6.322 
        1.54627         19.0157         6.26343 
        1.55241         18.9201         6.20559 
        1.55855         18.8529         6.14857 
        1.56467         18.7501         6.09243 
         1.5708         18.7025         6.03684 
        1.57695         18.5315         5.98186 
        1.58308         18.4976          5.9277 
        1.58922         18.3939         5.87417 
        1.59535         18.3048         5.82132 
         1.6015         18.1888         5.76906 
        1.60764         18.1259         5.71746 
        1.61376         18.0805         5.66665 
        1.61989         17.9036         5.61641 
        1.62604         17.9003         5.56667 
        1.63218         17.7757         5.51757 
        1.63831         17.7244         5.46918 
        1.64444         17.5891         5.42135 
        1.65059         17.5301         5.37398 
        1.65673         17.4708         5.32724 
        1.66285         17.3343         5.28118 
        1.66898         17.3032         5.23566 
        1.67512         17.2215         5.19059 
        1.68127         17.1002         5.14602 
         1.6874          17.043         5.10207 
        1.69353         16.9976         5.05866 
        1.69967         16.8772         5.01566 
        1.70581         16.7777         4.97317 
        1.71193           16.71         4.93135 
        1.71806         16.6837         4.88992 
        1.72421         16.5636         4.84889 
        1.73035         16.5336         4.80838 
        1.73649         16.4413         4.76834 
        1.74262         16.4029         4.72879 
        1.74876         16.3074         4.68967 
        1.75489         16.2478         4.65107 
        1.76101         16.1393         4.61292 
        1.76715         16.1418         4.57515 
        1.77329         16.0366         4.53775 
        1.77943         15.9387         4.50077 
        1.78557         15.8883         4.46424 
        1.79171         15.8419         4.42812 
        1.79785         15.7423          4.3924 
        1.80399         15.6914         4.35707 
        1.81012         15.6185         4.32219 
        1.81625         15.5364          4.2877 
        1.82239         15.4904         4.25354 
        1.82853         15.3774         4.21977 
        1.83466         15.3469         4.18641 
        1.84078         15.2421         4.15344 
        1.84692         15.2227         4.12077 
        1.85306         15.1533         4.08842 
         1.8592         15.0865         4.05646 
        1.86533         15.0347         4.02487 
        1.87147         14.9638         3.99358 
        1.87761          14.912         3.96261 
        1.88375         14.8256         3.93201 
        1.88988         14.8001         3.90177 
        1.89601         14.7341         3.87183 
        1.90215         14.6547         3.84218 
        1.90829         14.6133         3.81286 
        1.91442         14.5457         3.78384 
        1.92056         14.5058         3.75515 
         1.9267         14.4415         3.72674 
        1.93284         14.3697          3.6986 
        1.93897         14.2873         3.67081 
        1.94509         14.2575         3.64336 
        1.95123         14.2082         3.61613 
        1.95737         14.1431         3.58915 
        1.96349         14.0816         3.56253 
        1.96964         14.0341         3.53609 
        1.97578          13.979         3.50992 
        1.98192         13.9076         3.48406 
        1.98805         13.8744         3.45846 
        1.99419         13.8097         3.43312 
        2.00033         13.7702         3.40803 
        2.00647         13.7266         3.38319 
         2.0126         13.6175         3.35864 
        2.01874         13.5899          3.3343 
        2.02488         13.5209         3.31017 
        2.03101         13.5066         3.28634 
        2.03714         13.4492         3.26276 
        2.04328         13.3856         3.23938 
        2.04941         13.3362         3.21626 
        2.05554         13.3001         3.19338 
        2.06167         13.2381         3.17069 
        2.06781         13.2002         3.14822 
        2.07396         13.1517         3.12594 
        2.08009         13.0894         3.10391 
        2.08622         13.0306         3.08212 
        2.09237         13.0103          3.0605 
        2.09851         12.9709         3.03908 
        2.10464         12.9046          3.0179 
        2.11077         12.8493         2.99695 
        2.11691         12.7886         2.97616 
        2.12305         12.7684         2.95556 
        2.12918         12.7302         2.93521 
        2.13531         12.6666         2.91505 
        2.14145         12.6303         2.89504 
         2.1476         12.5728         2.87519 
        2.15372         12.5368         2.85562 
        2.15985         12.5014         2.83622 
        2.16599         12.4527         2.81695 
        2.17213         12.4232         2.79787 
        2.17827         12.3703         2.77898 
         2.1844         12.3238         2.76028 
        2.19054         12.2526         2.74175 
        2.19666         12.2337         2.72341 
         2.2028         12.1766         2.70523 
        2.20893           12.16          2.6872 
        2.21508         12.0996         2.66932 
        2.22122         12.0392          2.6516 
        2.22736         12.0137         2.63407 
        2.23349          11.961         2.61671 
        2.23962         11.9457         2.59949 
        2.24577         11.8828         2.58242 
         2.2519         11.8463         2.56552 
        2.25802          11.804          2.5488 
        2.26417         11.7593         2.53219 
        2.27031          11.735          2.5157 
        2.27644         11.6932         2.49942 
        2.28257          11.665         2.48328 
        2.28872         11.5929         2.46725 
        2.29486         11.5739         2.45136 
        2.30099         11.5579         2.43565 
        2.30712         11.5162         2.42007 
        2.31326         11.4525          2.4046 
         2.3194         11.3945         2.38928 
        2.32553         11.3944         2.37411 
        2.33166         11.3316         2.35909 
         2.3378         11.3096         2.34417 
        2.34394         11.2643         2.32938 
        2.35007         11.2033         2.31474 
        2.35619         11.1735         2.30024 
        2.36233         11.1337         2.28584 
        2.36848         11.1201         2.27152 
        2.37462         11.0717         2.25736 
        2.38075         11.0249         2.24334 
        2.38689         10.9937         2.22942 
        2.39303         10.9622         2.21563 
        2.39916         10.9275         2.20196 
        2.40529         10.9039         2.18842 
        2.41143         10.8483         2.17498 
        2.41757         10.8381         2.16164 
         2.4237         10.7845         2.14844 
        2.42983         10.7675         2.13536 
        2.43598         10.7345         2.12235 
        2.44211         10.6841         2.10947 
        2.44823         10.6653         2.09672 
        2.45437         10.6248         2.08405 
        2.46052         10.5793         2.07147 
        2.46665         10.5485         2.05902 
        2.47279         10.5165         2.04667 
        2.47892         10.4732         2.03442 
        2.48507         10.4387         2.02226 
         2.4912         10.4167         2.01022 
