# k  (h/Mpc)    P(k)  (Mpc/h)^3    P_linear(k)  (Mpc/h)^3
     0.00783031         3637.44         3684.91 
       0.013688         4804.89         4802.33 
       0.019231         5083.75         5083.97 
      0.0249154         4851.05         4902.54 
      0.0312784         4407.69         4430.26 
      0.0375637         3909.03         3908.05 
      0.0433917         3457.64         3486.41 
      0.0492413         3146.53         3159.92 
      0.0555754          2863.2         2905.34 
      0.0619321          2717.5         2715.21 
       0.067871         2520.67          2557.4 
      0.0738098         2353.52         2391.05 
      0.0800417         2146.32         2195.86 
      0.0862327         1953.35          1987.7 
      0.0921407         1773.13          1792.3 
      0.0982031         1588.88         1612.79 
       0.104506         1462.68         1461.19 
       0.110769         1347.75         1348.75 
       0.116806          1259.2          1270.7 
       0.122832         1207.61         1211.83 
       0.129052         1139.19         1158.57 
       0.135211         1084.11         1103.09 
       0.141259         1032.31         1040.88 
       0.147318         969.053         971.361 
       0.153489         890.838          897.83 
       0.159709          829.83         827.447 
       0.165845         782.069         767.055 
       0.171974         728.391         718.402 
       0.178125         692.383         680.991 
       0.184229          666.89         652.533 
        0.19034         627.533         628.832 
       0.196428          615.68         606.159 
       0.202534         597.306         581.606 
       0.208729         565.984         553.764 
       0.214876         533.293         523.878 
       0.220989         513.277         493.721 
       0.227147         480.538          465.03 
        0.23329         458.441         439.761 
       0.239377          443.76          418.77 
       0.245482         417.046          401.55 
       0.251667         410.299         387.072 
       0.257832         396.825         374.271 
       0.263955         383.359         361.892 
       0.270079         370.509         348.991 
        0.27624         362.405         335.178 
       0.282372         348.018         320.846 
        0.28843         333.983         306.703 
       0.294538         319.317         293.122 
       0.300721         313.988         280.628 
        0.30691         299.301         269.619 
       0.313033          291.33         260.164 
       0.319153         279.384         251.805 
       0.325316         273.534         244.072 
        0.33145         264.502         236.621 
       0.337538         260.336         229.194 
       0.343633         251.916         221.598 
       0.349808         243.921          213.82 
       0.355968         238.537         206.144 
       0.362074         231.653         198.839 
       0.368217         225.153          191.98 
       0.374374         218.311         185.671 
       0.380519          213.73         179.948 
       0.386598         208.128         174.739 
       0.392688         204.844         169.842 
        0.39888         199.504         165.056 
       0.405048         195.098         160.362 
       0.411186         190.647         155.725 
       0.417313         185.985         151.138 
       0.423458         181.902         146.618 
       0.429607         177.385          142.25 
       0.435692         171.993         138.141 
       0.441815          170.41         134.239 
       0.447964         167.536         130.563 
       0.454126         160.393         127.102 
       0.460267         158.389         123.821 
       0.466387         155.555          120.67 
        0.47254          152.96         117.591 
       0.478662         150.918         114.594 
       0.484765         146.764         111.658 
       0.490885         144.194         108.784 
       0.497035         142.226         105.985 
       0.503198         138.517         103.288 
       0.509342          135.75          100.71 
       0.515458         133.766         98.2573 
       0.521598         132.024         95.9068 
       0.527764         129.867         93.6437 
       0.533884         127.612         91.4753 
           0.54         125.409           89.37 
       0.546137         124.055         87.3115 
       0.552299          122.19         85.2991 
       0.558452         119.294         83.3444 
       0.564573          117.17         81.4541 
       0.570708         115.903         79.6163 
       0.576825         113.888         77.8441 
       0.582926         111.817         76.1387 
       0.589034         109.606         74.4933 
       0.595184         108.455         72.8935 
       0.601379         107.239         71.3334 
       0.607522          104.62         69.8307 
       0.613639         104.382         68.3734 
       0.619772         101.916         66.9504 
       0.625918         101.089         65.5629 
       0.632068         99.7832         64.2133 
       0.638161         98.4094         62.9145 
         0.6443         97.0478          61.644 
       0.650464         95.6705         60.4055 
       0.656582         94.7667         59.2113 
       0.662703         92.8074           58.05 
       0.668861         91.9585         56.9142 
       0.675024         90.7354         55.8084 
       0.681124         89.4291         54.7437 
       0.687237         88.0176         53.7051 
       0.693381         87.1784         52.6889 
       0.699536          85.767         51.6975 
       0.705665         86.2577          50.736 
       0.711789         83.8685         49.8001 
       0.717957         83.3787         48.8815 
        0.72409         82.1232         47.9914 
       0.730186         80.7971          47.129 
       0.736317         80.5663         46.2833 
       0.742472         79.3526         45.4556 
       0.748622         78.7256         44.6491 
        0.75476         77.7834         43.8642 
       0.760888         76.7282         43.0996 
       0.767043         75.9479         42.3504 
       0.773185         75.0309         41.6209 
       0.779291         74.6147          40.913 
       0.785407         73.9173         40.2207 
       0.791564         72.7561         39.5403 
       0.797719         71.7195         38.8762 
       0.803834         71.5333         38.2318 
       0.809972         70.3228         37.5999 
       0.816124         69.5357          36.981 
       0.822261          69.153          36.378 
       0.828378         68.5516         35.7904 
       0.834502         67.7553         35.2154 
       0.840667         67.2429         34.6495 
       0.846816         66.3704         34.0978 
       0.852925         65.8059         33.5617 
       0.859047         64.8987         33.0361 
       0.865192         64.5833         32.5202 
       0.871341         64.2319         32.0151 
       0.877463         63.0484         31.5231 
       0.883569         62.6824         31.0428 
       0.889708         62.2883         30.5702 
       0.895864         61.6937         30.1063 
       0.902008         61.1804         29.6531 
       0.908149         60.6691         29.2097 
       0.914301         60.2588         28.7746 
       0.920448         59.4758          28.349 
       0.926574         59.1262         27.9335 
       0.932687         58.5796         27.5273 
       0.938823         57.7777         27.1279 
       0.944975         57.6449         26.7355 
       0.951105           57.07         26.3524 
       0.957225         56.3888         25.9775 
       0.963368         56.2146         25.6088 
       0.969511         55.7799         25.2472 
       0.975621         55.3305         24.8947 
       0.981748         54.6923          24.548 
       0.987916         54.4292         24.2059 
        0.99406         54.0692         23.8716 
        1.00019         53.3647         23.5443 
        1.00632         53.1815         23.2236 
        1.01246          52.697         22.9084 
        1.01859         52.1332         22.5996 
        1.02471         52.1744         22.2969 
        1.03085         51.5929         21.9988 
        1.03698         51.0085         21.7068 
        1.04314         50.5289         21.4189 
        1.04929         50.3762          21.137 
        1.05541         49.8312         20.8613 
        1.06154          49.688         20.5899 
        1.06769         49.2591          20.323 
        1.07382         48.9368         20.0617 
        1.07993         48.7762         19.8056 
        1.08607         48.1762         19.5531 
        1.09222         48.0363         19.3047 
        1.09836         47.5398         19.0609 
        1.10449         47.2905         18.8217 
        1.11063         46.7112         18.5864 
        1.11677          46.531         18.3552 
         1.1229         46.3995         18.1284 
        1.12903         45.7516         17.9052 
        1.13518         45.6371         17.6857 
        1.14131         45.5381           17.47 
        1.14745         44.9814          17.258 
        1.15359         44.8522         17.0496 
        1.15973         44.3594         16.8445 
        1.16584         44.0422         16.6438 
        1.17197         44.0178          16.446 
        1.17811         43.5374         16.2509 
        1.18424         43.1777         16.0596 
        1.19038         43.1265         15.8708 
        1.19652         42.8564         15.6852 
        1.20267         42.5687         15.5025 
        1.20881           42.24         15.3229 
        1.21495          41.953         15.1463 
        1.22108         41.7012         14.9727 
         1.2272         41.2581         14.8021 
        1.23334          41.141         14.6339 
        1.23949         40.9455         14.4679 
        1.24562         40.7748         14.3049 
        1.25174         40.5123         14.1448 
        1.25789         40.2769         13.9866 
        1.26402         40.0427         13.8311 
        1.27014         39.6695         13.6784 
        1.27628         39.4803         13.5275 
        1.28244         39.2545         13.3786 
        1.28858         39.1131         13.2322 
        1.29471         38.8766         13.0884 
        1.30084         38.6321         12.9468 
        1.30697         38.3428         12.8071 
        1.31312         38.0274         12.6693 
        1.31925          37.939          12.534 
        1.32537         37.7771         12.4008 
        1.33151         37.5006          12.269 
        1.33765         37.4263         12.1393 
        1.34378         37.2448         12.0117 
        1.34992          36.706         11.8859 
        1.35606         36.6171         11.7616 
         1.3622         36.4119         11.6394 
        1.36833          36.247         11.5191 
        1.37445         36.2238         11.4007 
        1.38059         36.0062         11.2836 
        1.38675         35.6818         11.1678 
        1.39288          35.574         11.0542 
        1.39901         35.2712         10.9422 
        1.40515         35.1254         10.8315 
         1.4113         35.0198         10.7223 
        1.41742         34.6462         10.6151 
        1.42355         34.6352         10.5092 
         1.4297         34.3746         10.4045 
        1.43585         34.3237         10.3011 
        1.44198         33.9963         10.1997 
        1.44809         33.8902         10.0997 
        1.45423         33.7555         10.0008 
        1.46036         33.6351         9.90333 
        1.46649         33.4009         9.80717 
        1.47263         33.2358         9.71222 
        1.47877           33.08         9.61857 
        1.48491         32.8759         9.52602 
        1.49104         32.8252         9.43489 
        1.49718         32.4951         9.34489 
        1.50333         32.4232         9.25594 
        1.50947         32.2839         9.16833 
         1.5156         32.0703         9.08199 
        1.52172         31.8361         8.99678 
        1.52787         31.8687          8.9125 
          1.534         31.6141          8.8294 
        1.54013         31.4059         8.74746 
        1.54627         31.3611         8.66641 
        1.55241         31.1529         8.58639 
        1.55855         31.0035          8.5075 
        1.56467         30.8761         8.42982 
         1.5708         30.7456          8.3529 
        1.57695         30.4592         8.27682 
        1.58308         30.5373         8.20188 
        1.58922         30.3062         8.12781 
        1.59535         30.1154          8.0547 
         1.6015         29.9976         7.98238 
        1.60764         29.9349         7.91099 
        1.61376         29.7605         7.84068 
        1.61989         29.4978         7.77116 
        1.62604         29.4793         7.70234 
        1.63218         29.2683          7.6344 
        1.63831         29.2176         7.56744 
        1.64444         29.0434         7.50127 
        1.65059         28.8807         7.43573 
        1.65673         28.7919         7.37105 
        1.66285         28.6504         7.30733 
        1.66898         28.5107         7.24434 
        1.67512         28.4269         7.18198 
        1.68127         28.2139          7.1203 
         1.6874         28.1228         7.05949 
        1.69353         28.0873         6.99943 
        1.69967         27.8613         6.93993 
        1.70581           27.73         6.88115 
        1.71193         27.5873         6.82328 
        1.71806         27.5207         6.76595 
        1.72421         27.3829         6.70918 
        1.73035         27.3031         6.65312 
        1.73649          27.119         6.59773 
        1.74262         27.0559         6.54301 
        1.74876          26.927         6.48887 
        1.75489         26.7912         6.43547 
        1.76101         26.7109         6.38268 
        1.76715         26.6195         6.33042 
        1.77329         26.5231         6.27868 
        1.77943         26.3726          6.2275 
        1.78557         26.2508         6.17697 
        1.79171         26.1631         6.12699 
        1.79785         26.0172         6.07756 
        1.80399         25.9179         6.02868 
        1.81012          25.851         5.98041 
        1.81625         25.7254         5.93269 
        1.82239         25.6627         5.88543 
        1.82853         25.4496          5.8387 
        1.83466         25.3542         5.79253 
        1.84078         25.1953         5.74692 
        1.84692         25.1912         5.70172 
        1.85306         25.0291         5.65695 
         1.8592         24.9581         5.61274 
        1.86533         24.8453         5.56903 
        1.87147         24.7416         5.52573 
        1.87761         24.7125         5.48288 
        1.88375         24.5256         5.44054 
        1.88988         24.4988         5.39869 
        1.89601         24.3337         5.35727 
        1.90215           24.25         5.31624 
        1.90829         24.1848         5.27567 
        1.91442         24.0528         5.23552 
        1.92056          23.982         5.19583 
         1.9267         23.9018         5.15651 
        1.93284         23.7699         5.11758 
        1.93897         23.6934         5.07912 
        1.94509         23.6015         5.04115 
        1.95123         23.4803         5.00347 
        1.95737         23.3739         4.96614 
        1.96349         23.3063          4.9293 
        1.96964         23.1904         4.89273 
        1.97578         23.1447         4.85651 
        1.98192         22.9883         4.82073 
        1.98805         22.9466         4.78532 
        1.99419         22.8311         4.75025 
        2.00033         22.7334         4.71553 
        2.00647         22.6811         4.68116 
         2.0126          22.498         4.64719 
        2.01874         22.4733         4.61351 
        2.02488         22.4064         4.58013 
        2.03101          22.369         4.54715 
        2.03714         22.2252         4.51452 
        2.04328         22.1161         4.48218 
        2.04941         22.0372         4.45019 
        2.05554         22.0182         4.41853 
        2.06167         21.9135         4.38713 
        2.06781          21.812         4.35604 
        2.07396         21.7219         4.32521 
        2.08009         21.6717         4.29473 
        2.08622          21.573         4.26458 
        2.09237         21.4896         4.23466 
        2.09851         21.3716         4.20503 
        2.10464         21.3218         4.17573 
        2.11077         21.2187         4.14675 
        2.11691         21.1827         4.11797 
        2.12305         21.0427         4.08948 
        2.12918          20.982         4.06132 
        2.13531         20.9226         4.03342 
        2.14145         20.8242         4.00573 
         2.1476         20.7404         3.97826 
        2.15372         20.6954         3.95119 
        2.15985         20.5653         3.92435 
        2.16599         20.5424         3.89768 
        2.17213         20.4651         3.87129 
        2.17827         20.3913         3.84515 
         2.1844         20.3067         3.81927 
        2.19054         20.2259         3.79363 
        2.19666         20.1657         3.76826 
         2.2028         20.0935          3.7431 
        2.20893         19.9826         3.71815 
        2.21508         19.9453         3.69341 
        2.22122         19.8201         3.66889 
        2.22736         19.7724         3.64464 
        2.23349         19.6935         3.62061 
        2.23962         19.6462         3.59679 
        2.24577           19.54         3.57317 
         2.2519         19.5041         3.54979 
        2.25802         19.4442         3.52666 
        2.26417         19.3707         3.50367 
        2.27031          19.301         3.48086 
        2.27644          19.233         3.45833 
        2.28257         19.1521         3.43599 
        2.28872         19.0633         3.41381 
        2.29486         19.0431         3.39184 
        2.30099         18.9466          3.3701 
        2.30712         18.9129         3.34854 
        2.31326         18.8338         3.32714 
         2.3194         18.7192         3.30593 
        2.32553         18.6907         3.28495 
        2.33166         18.5802         3.26416 
         2.3378         18.5328         3.24352 
        2.34394         18.4556         3.22306 
        2.35007          18.378          3.2028 
        2.35619          18.339         3.18274 
        2.36233          18.266          3.1628 
        2.36848         18.2424           3.143 
        2.37462         18.1865         3.12341 
        2.38075         18.1052           3.104 
        2.38689         18.0411         3.08475 
        2.39303         17.9733         3.06566 
        2.39916         17.8955         3.04675 
        2.40529         17.8463         3.02801 
        2.41143         17.7798         3.00941 
        2.41757          17.743         2.99096 
         2.4237          17.641          2.9727 
        2.42983         17.6063         2.95459 
        2.43598         17.5322         2.93659 
        2.44211         17.4398         2.91877 
        2.44823         17.3934         2.90114 
        2.45437         17.3671          2.8836 
        2.46052         17.3132          2.8662 
        2.46665         17.2394         2.84897 
        2.47279         17.1905         2.83188 
        2.47892         17.1209         2.81493 
        2.48507         17.0744          2.7981 
         2.4912         17.0158         2.78144 
