# k  (h/Mpc)    P(k)  (Mpc/h)^3    P_linear(k)  (Mpc/h)^3
     0.00783031          112.35         113.294 
       0.013688         147.253         147.816 
       0.019231         156.433         156.563 
      0.0249154          150.57         151.019 
      0.0312784         136.467         136.497 
      0.0375637         120.633         120.422 
      0.0433917         107.518         107.438 
      0.0492413         97.5476         97.3823 
      0.0555754         89.5339         89.5405 
      0.0619321         83.8851         83.6833 
       0.067871         78.7831         78.8217 
      0.0738098          73.622         73.6959 
      0.0800417         67.5501         67.6811 
      0.0862327         61.2331         61.2661 
      0.0921407         55.2637          55.244 
      0.0982031         49.7005         49.7114 
       0.104506         45.1522         45.0389 
       0.110769         41.6626         41.5735 
       0.116806         39.1477         39.1678 
       0.122832           37.39         37.3535 
       0.129052         35.6682         35.7119 
       0.135211         33.9338         34.0018 
       0.141259         32.0706         32.0844 
       0.147318         29.9834         29.9416 
       0.153489         27.6844         27.6751 
       0.159709         25.5237         25.5057 
       0.165845         23.7453         23.6442 
       0.171974         22.1623         22.1445 
       0.178125         21.0196         20.9914 
       0.184229         20.1649         20.1142 
        0.19034         19.3619         19.3836 
       0.196428         18.6974         18.6847 
       0.202534          17.996         17.9279 
       0.208729         17.0977         17.0697 
       0.214876         16.1431         16.1485 
       0.220989         15.2895         15.2189 
       0.227147          14.339         14.3346 
        0.23329         13.5649         13.5556 
       0.239377          12.929         12.9086 
       0.245482         12.3805         12.3778 
       0.251667         11.9724         11.9315 
       0.257832         11.5571         11.5369 
       0.263955         11.1825         11.1554 
       0.270079         10.7885         10.7577 
        0.27624         10.3925         10.3319 
       0.282372         9.94832         9.89015 
        0.28843         9.48845          9.4542 
       0.294538         9.07581         9.03554 
       0.300721          8.7166         8.65043 
        0.30691            8.35         8.31108 
       0.313033         8.06404         8.01961 
       0.319153         7.76523         7.76196 
       0.325316         7.58331         7.52359 
        0.33145          7.3442         7.29391 
       0.337538         7.11068         7.06498 
       0.343633         6.86699         6.83082 
       0.349808         6.63877         6.59105 
       0.355968         6.40518         6.35445 
       0.362074         6.17538         6.12927 
       0.368217         5.96708         5.91785 
       0.374374         5.75522         5.72337 
       0.380519         5.59558         5.54695 
       0.386598          5.4405          5.3864 
       0.392688         5.29685         5.23545 
        0.39888         5.14175         5.08791 
       0.405048         4.99949         4.94322 
       0.411186         4.86065         4.80028 
       0.417313         4.70789         4.65887 
       0.423458         4.57858         4.51955 
       0.429607          4.4338         4.38491 
       0.435692         4.30713         4.25825 
       0.441815         4.18974         4.13796 
       0.447964         4.09005         4.02467 
       0.454126         3.96778         3.91798 
       0.460267         3.86491         3.81683 
       0.466387         3.76319         3.71971 
        0.47254         3.67289          3.6248 
       0.478662         3.58438          3.5324 
       0.484765         3.48831         3.44192 
       0.490885         3.40117         3.35331 
       0.497035         3.33014         3.26703 
       0.503198         3.23917         3.18389 
       0.509342         3.16404         3.10443 
       0.515458         3.08199         3.02882 
       0.521598         3.01129         2.95637 
       0.527764          2.9347         2.88661 
       0.533884         2.87795         2.81977 
           0.54         2.81014         2.75487 
       0.546137         2.75015         2.69142 
       0.552299         2.68615         2.62938 
       0.558452         2.61887         2.56913 
       0.564573         2.56573         2.51086 
       0.570708          2.5095         2.45421 
       0.576825         2.45072         2.39958 
       0.582926         2.40419         2.34701 
       0.589034         2.34061         2.29629 
       0.595184         2.29464         2.24698 
       0.601379         2.24683         2.19889 
       0.607522          2.2057         2.15256 
       0.613639         2.16707         2.10764 
       0.619772         2.11324         2.06378 
       0.625918          2.0735         2.02101 
       0.632068         2.03599          1.9794 
       0.638161         1.99145         1.93937 
         0.6443         1.95134          1.9002 
       0.650464         1.90897         1.86203 
       0.656582         1.87648         1.82522 
       0.662703         1.84125         1.78942 
       0.668861         1.81073         1.75441 
       0.675024         1.77182         1.72032 
       0.681124         1.73439          1.6875 
       0.687237         1.70821         1.65548 
       0.693381         1.67746         1.62416 
       0.699536         1.63764          1.5936 
       0.705665         1.61037         1.56396 
       0.711789         1.58458         1.53511 
       0.717957         1.55303          1.5068 
        0.72409         1.52708         1.47936 
       0.730186         1.49888         1.45277 
       0.736317         1.47866         1.42671 
       0.742472          1.4513         1.40119 
       0.748622         1.42426         1.37633 
        0.75476         1.39657         1.35213 
       0.760888          1.3725         1.32857 
       0.767043         1.35678         1.30547 
       0.773185         1.32926         1.28299 
       0.779291         1.30761         1.26116 
       0.785407         1.28682         1.23982 
       0.791564         1.26606         1.21885 
       0.797719         1.24729         1.19838 
       0.803834          1.2273         1.17851 
       0.809972         1.20667         1.15903 
       0.816124         1.18604         1.13996 
       0.822261         1.16544         1.12137 
       0.828378         1.14996         1.10326 
       0.834502         1.13393         1.08553 
       0.840667         1.11198         1.06809 
       0.846816         1.09532         1.05108 
       0.852925         1.08245         1.03456 
       0.859047          1.0656         1.01836 
       0.865192         1.04771         1.00245 
       0.871341         1.03152        0.986881 
       0.877463            1.02        0.971716 
       0.883569         1.00204        0.956911 
       0.889708        0.987022        0.942342 
       0.895864        0.972761        0.928042 
       0.902008        0.957206        0.914073 
       0.908149        0.943443        0.900403 
       0.914301        0.926425        0.886993 
       0.920448        0.915026        0.873872 
       0.926574        0.901541        0.861065 
       0.932687        0.888689        0.848545 
       0.938823        0.879837        0.836231 
       0.944975        0.866214        0.824136 
       0.951105        0.854996        0.812326 
       0.957225        0.844982        0.800771 
       0.963368        0.832317        0.789403 
       0.969511        0.819223        0.778258 
       0.975621         0.80725        0.767391 
       0.981748          0.7996        0.756706 
       0.987916        0.787876        0.746158 
        0.99406        0.776545        0.735854 
        1.00019         0.76835        0.725767 
        1.00632        0.755286        0.715879 
        1.01246         0.74554        0.706163 
        1.01859        0.737284        0.696644 
        1.02471         0.72693        0.687314 
        1.03085        0.720004        0.678125 
        1.03698        0.708767        0.669124 
        1.04314         0.70045        0.660249 
        1.04929        0.690442        0.651558 
        1.05541        0.683215         0.64306 
        1.06154        0.673553        0.634694 
        1.06769        0.664316        0.626466 
        1.07382        0.657151        0.618412 
        1.07993        0.647581        0.610519 
        1.08607        0.642507        0.602733 
        1.09222        0.632789        0.595077 
        1.09836        0.627585        0.587563 
        1.10449        0.619395        0.580189 
        1.11063         0.61033        0.572935 
        1.11677        0.602043        0.565809 
         1.1229        0.596325        0.558817 
        1.12903        0.588241        0.551939 
        1.13518        0.582697        0.545171 
        1.14131        0.574837        0.538522 
        1.14745        0.565828        0.531988 
        1.15359        0.561498        0.525562 
        1.15973        0.553247        0.519241 
        1.16584          0.5495        0.513053 
        1.17197        0.542431        0.506958 
        1.17811        0.536956        0.500944 
        1.18424        0.532143        0.495046 
        1.19038        0.524541        0.489227 
        1.19652        0.517193        0.483504 
        1.20267        0.513617        0.477874 
        1.20881        0.506986        0.472336 
        1.21495        0.502702        0.466894 
        1.22108          0.4968         0.46154 
         1.2272        0.491863        0.456284 
        1.23334        0.485783        0.451098 
        1.23949        0.480563         0.44598 
        1.24562        0.475489        0.440957 
        1.25174         0.47079         0.43602 
        1.25789        0.466277        0.431143 
        1.26402         0.45968         0.42635 
        1.27014        0.455413        0.421643 
        1.27628         0.45156        0.416992 
        1.28244        0.444903        0.412404 
        1.28858        0.441221        0.407891 
        1.29471        0.437953        0.403456 
        1.30084        0.432214        0.399092 
        1.30697        0.427894        0.394786 
        1.31312        0.422005        0.390538 
        1.31925        0.418518        0.386366 
        1.32537        0.415007         0.38226 
        1.33151        0.411297        0.378199 
        1.33765        0.406958          0.3742 
        1.34378        0.401799        0.370268 
        1.34992        0.398552        0.366389 
        1.35606         0.39439        0.362559 
         1.3622        0.390576         0.35879 
        1.36833        0.386534        0.355084 
        1.37445        0.381683        0.351433 
        1.38059        0.378366        0.347822 
        1.38675        0.376695        0.344254 
        1.39288        0.372047        0.340751 
        1.39901        0.368604        0.337298 
        1.40515        0.365451        0.333886 
         1.4113        0.360967        0.330522 
        1.41742        0.357637        0.327218 
        1.42355        0.355286        0.323953 
         1.4297        0.350959        0.320723 
        1.43585        0.348203        0.317539 
        1.44198        0.345609         0.31441 
        1.44809        0.341478         0.31133 
        1.45423        0.338688        0.308279 
        1.46036        0.335258        0.305276 
        1.46649        0.333027        0.302311 
        1.47263        0.329414        0.299384 
        1.47877        0.325739        0.296498 
        1.48491        0.323452        0.293645 
        1.49104        0.319686        0.290836 
        1.49718        0.317141        0.288062 
        1.50333        0.315088        0.285319 
        1.50947        0.311809        0.282619 
         1.5156        0.308781        0.279958 
        1.52172        0.306312        0.277331 
        1.52787        0.303565        0.274733 
          1.534        0.300558        0.272171 
        1.54013        0.297748        0.269645 
        1.54627        0.295829        0.267147 
        1.55241        0.292724         0.26468 
        1.55855        0.289726        0.262248 
        1.56467        0.288636        0.259854 
         1.5708        0.285463        0.257483 
        1.57695        0.283067        0.255138 
        1.58308          0.2805        0.252828 
        1.58922        0.278365        0.250544 
        1.59535        0.275891        0.248291 
         1.6015        0.273292        0.246061 
        1.60764        0.271376        0.243861 
        1.61376        0.268434        0.241693 
        1.61989        0.266579        0.239551 
        1.62604        0.264687        0.237429 
        1.63218        0.262512        0.235335 
        1.63831        0.260357        0.233271 
        1.64444        0.258207        0.231231 
        1.65059        0.256073        0.229211 
        1.65673        0.254052        0.227217 
        1.66285        0.252355        0.225253 
        1.66898        0.250114        0.223311 
        1.67512        0.247655        0.221389 
        1.68127        0.245551        0.219487 
         1.6874        0.244245        0.217613 
        1.69353        0.241629        0.215761 
        1.69967        0.240571        0.213927 
        1.70581         0.23779        0.212115 
        1.71193        0.236188        0.210332 
        1.71806        0.233979        0.208564 
        1.72421        0.232935        0.206814 
        1.73035        0.230633        0.205086 
        1.73649         0.22926        0.203379 
        1.74262        0.227287        0.201692 
        1.74876        0.225445        0.200023 
        1.75489        0.224001        0.198377 
        1.76101        0.221735         0.19675 
        1.76715        0.220185        0.195139 
        1.77329        0.218218        0.193544 
        1.77943          0.2168        0.191966 
        1.78557        0.215532        0.190409 
        1.79171        0.213834        0.188868 
        1.79785        0.212144        0.187344 
        1.80399        0.210487        0.185838 
        1.81012        0.209107         0.18435 
        1.81625        0.207375        0.182879 
        1.82239        0.205936        0.181422 
        1.82853        0.204105        0.179981 
        1.83466        0.202934        0.178558 
        1.84078        0.201365        0.177152 
        1.84692        0.199789        0.175759 
        1.85306        0.198632        0.174379 
         1.8592        0.196837        0.173016 
        1.86533        0.195734        0.171669 
        1.87147        0.194292        0.170334 
        1.87761        0.193124        0.169013 
        1.88375        0.191327        0.167708 
        1.88988         0.19005        0.166418 
        1.89601        0.188541        0.165141 
        1.90215        0.187467        0.163876 
        1.90829        0.185831        0.162626 
        1.91442        0.185003        0.161388 
        1.92056        0.183391        0.160165 
         1.9267        0.181963        0.158953 
        1.93284        0.180775        0.157752 
        1.93897        0.179471        0.156567 
        1.94509        0.178557        0.155396 
        1.95123        0.177137        0.154235 
        1.95737        0.176119        0.153084 
        1.96349        0.174709        0.151949 
        1.96964        0.173414        0.150821 
        1.97578        0.172274        0.149705 
        1.98192        0.171387        0.148602 
        1.98805        0.170282         0.14751 
        1.99419        0.168716        0.146429 
        2.00033        0.167626        0.145359 
        2.00647        0.166902        0.144299 
         2.0126        0.165398        0.143252 
        2.01874        0.164615        0.142214 
        2.02488         0.16344        0.141185 
        2.03101        0.162406        0.140169 
        2.03714        0.161109        0.139163 
        2.04328        0.160304        0.138166 
        2.04941         0.15898         0.13718 
        2.05554        0.158188        0.136204 
        2.06167        0.157413        0.135236 
        2.06781        0.155958        0.134278 
        2.07396         0.15498        0.133327 
        2.08009        0.153999        0.132388 
        2.08622        0.153174        0.131458 
        2.09237        0.152278        0.130536 
        2.09851        0.151318        0.129623 
        2.10464        0.150407        0.128719 
        2.11077        0.149179        0.127826 
        2.11691        0.148378        0.126939 
        2.12305        0.147346        0.126061 
        2.12918        0.146646        0.125193 
        2.13531        0.145533        0.124333 
        2.14145         0.14445        0.123479 
         2.1476        0.143725        0.122632 
        2.15372        0.143125        0.121798 
        2.15985        0.142005         0.12097 
        2.16599        0.141068        0.120148 
        2.17213        0.140298        0.119335 
        2.17827        0.139282        0.118529 
         2.1844        0.138669        0.117731 
        2.19054        0.137739        0.116941 
        2.19666        0.136652        0.116159 
         2.2028        0.136002        0.115383 
        2.20893        0.135451        0.114614 
        2.21508        0.134212        0.113852 
        2.22122        0.133416        0.113096 
        2.22736        0.132938        0.112348 
        2.23349        0.132022        0.111608 
        2.23962        0.131387        0.110873 
        2.24577        0.130373        0.110145 
         2.2519        0.129769        0.109424 
        2.25802        0.128908        0.108711 
        2.26417        0.128247        0.108003 
        2.27031        0.127355          0.1073 
        2.27644        0.126651        0.106605 
        2.28257        0.125901        0.105917 
        2.28872        0.125313        0.105233 
        2.29486        0.124751        0.104555 
        2.30099         0.12376        0.103885 
        2.30712        0.123124        0.103221 
        2.31326        0.122185        0.102561 
         2.3194        0.121999        0.101907 
        2.32553         0.12113        0.101261 
        2.33166        0.120622         0.10062 
         2.3378        0.119786       0.0999836 
        2.34394        0.119073       0.0993528 
        2.35007        0.118368       0.0987283 
        2.35619        0.117537       0.0981099 
        2.36233        0.117071       0.0974955 
        2.36848        0.116525        0.096885 
        2.37462        0.115634       0.0962811 
        2.38075        0.115203       0.0956829 
        2.38689        0.114606       0.0950893 
        2.39303        0.114064        0.094501 
        2.39916        0.113209       0.0939182 
        2.40529        0.112704       0.0933404 
        2.41143        0.112005        0.092767 
        2.41757        0.111406       0.0921983 
         2.4237        0.110944       0.0916354 
        2.42983        0.110303       0.0910772 
        2.43598        0.109903       0.0905223 
        2.44211        0.109049       0.0899729 
        2.44823        0.108692       0.0894294 
        2.45437         0.10786       0.0888888 
        2.46052        0.107485       0.0883523 
        2.46665        0.106778       0.0878212 
        2.47279        0.106169       0.0872946 
        2.47892        0.105466        0.086772 
        2.48507        0.104983       0.0862533 
         2.4912        0.104521       0.0857398 
