# k  (h/Mpc)    P(k)  (Mpc/h)^3    P_linear(k)  (Mpc/h)^3
     0.00783031         467.548         472.172 
       0.013688         613.828          615.79 
       0.019231         651.519          652.12 
      0.0249154         625.951          628.97 
      0.0312784         567.738         568.455 
      0.0375637          502.26         501.492 
      0.0433917         446.956          447.41 
      0.0492413         405.846         405.528 
      0.0555754          371.86         372.868 
      0.0619321         349.506         348.475 
       0.067871           327.4         328.228 
      0.0738098         305.912         306.882 
      0.0800417         280.347         281.834 
      0.0862327         254.408          255.12 
      0.0921407         229.813         230.042 
      0.0982031         206.488         207.003 
       0.104506         188.126         187.546 
       0.110769         173.546         173.115 
       0.116806         162.757         163.098 
       0.122832         155.703         155.543 
       0.129052         148.224         148.707 
       0.135211         140.981         141.586 
       0.141259         133.471         133.602 
       0.147318         124.952         124.679 
       0.153489         115.245         115.241 
       0.159709         106.372         106.207 
       0.165845         99.2832         98.4556 
       0.171974         92.4588         92.2109 
       0.178125         87.7667          87.409 
       0.184229         84.3075         83.7564 
        0.19034         80.6106         80.7144 
       0.196428         78.0908         77.8041 
       0.202534         75.3727         74.6528 
       0.208729         71.5051         71.0791 
       0.214876         67.4099          67.243 
       0.220989         64.1422         63.3723 
       0.227147         59.9783         59.6897 
        0.23329         56.8141         56.4462 
       0.239377         54.2812          53.752 
       0.245482         51.8231         51.5417 
       0.251667          50.322         49.6834 
       0.257832         48.5618         48.0403 
       0.263955         46.9941         46.4514 
       0.270079         45.3649         44.7955 
        0.27624         43.8494         43.0225 
       0.282372         42.0091         41.1829 
        0.28843         40.0368         39.3676 
       0.294538         38.3237         37.6243 
       0.300721         36.9624         36.0206 
        0.30691         35.3428         34.6076 
       0.313033         34.1724         33.3939 
       0.319153         32.7681          32.321 
       0.325316            32.2         31.3285 
        0.33145         31.1412         30.3721 
       0.337538         30.2075         29.4188 
       0.343633          29.163         28.4438 
       0.349808         28.2533         27.4453 
       0.355968         27.2875         26.4601 
       0.362074         26.3308         25.5224 
       0.368217         25.4873         24.6421 
       0.374374         24.5803         23.8323 
       0.380519         23.9477         23.0977 
       0.386598         23.3082         22.4291 
       0.392688           22.75         21.8005 
        0.39888         22.0801         21.1862 
       0.405048         21.5196         20.5837 
       0.411186         20.9565         19.9885 
       0.417313         20.2632         19.3997 
       0.423458         19.7361         18.8195 
       0.429607         19.1271         18.2589 
       0.435692          18.585         17.7315 
       0.441815         18.1292         17.2306 
       0.447964         17.7611         16.7588 
       0.454126         17.1762         16.3146 
       0.460267         16.7826         15.8934 
       0.466387         16.3017          15.489 
        0.47254         15.9854         15.0938 
       0.478662         15.6383          14.709 
       0.484765          15.202         14.3322 
       0.490885         14.8268         13.9633 
       0.497035         14.5909          13.604 
       0.503198         14.1948         13.2578 
       0.509342         13.8655         12.9269 
       0.515458         13.5187         12.6121 
       0.521598         13.2421         12.3104 
       0.527764         12.9167         12.0199 
       0.533884         12.6923         11.7416 
           0.54         12.4049         11.4713 
       0.546137         12.1611         11.2071 
       0.552299         11.9091         10.9488 
       0.558452         11.5714         10.6979 
       0.564573         11.3955         10.4553 
       0.570708         11.1607         10.2194 
       0.576825         10.8791          9.9919 
       0.582926         10.6959           9.773 
       0.589034         10.3946         9.56181 
       0.595184         10.2234         9.35647 
       0.601379         10.0111         9.15621 
       0.607522         9.86099         8.96333 
       0.613639         9.72026         8.77627 
       0.619772         9.46252         8.59362 
       0.625918         9.33845         8.41552 
       0.632068         9.18565         8.24229 
       0.638161         8.97028         8.07558 
         0.6443         8.78894          7.9125 
       0.650464         8.60524         7.75353 
       0.656582         8.50821         7.60024 
       0.662703         8.35306         7.45119 
       0.668861         8.21518         7.30539 
       0.675024         8.04181         7.16346 
       0.681124         7.89242         7.02679 
       0.687237         7.78184         6.89348 
       0.693381         7.65678         6.76304 
       0.699536         7.45556         6.63578 
       0.705665          7.3547         6.51238 
       0.711789         7.24186         6.39224 
       0.717957         7.11176         6.27433 
        0.72409           6.994         6.16008 
       0.730186         6.88645         6.04939 
       0.736317         6.81588         5.94084 
       0.742472         6.70148         5.83459 
       0.748622         6.57816         5.73107 
        0.75476         6.43847         5.63032 
       0.760888         6.35738         5.53218 
       0.767043         6.28411         5.43602 
       0.773185         6.15369         5.34238 
       0.779291         6.08548         5.25151 
       0.785407         5.98703         5.16265 
       0.791564         5.89489         5.07532 
       0.797719         5.81127         4.99008 
       0.803834         5.74087         4.90736 
       0.809972         5.66327         4.82625 
       0.816124         5.55511         4.74682 
       0.822261         5.46358         4.66941 
       0.828378         5.39972         4.59398 
       0.834502         5.34354         4.52018 
       0.840667         5.23476         4.44754 
       0.846816         5.15682         4.37673 
       0.852925          5.1114         4.30792 
       0.859047         5.03846         4.24046 
       0.865192         4.97647         4.17423 
       0.871341          4.9127          4.1094 
       0.877463          4.8503         4.04625 
       0.883569         4.76387          3.9846 
       0.889708         4.69119         3.92393 
       0.895864           4.643         3.86439 
       0.902008         4.57197         3.80622 
       0.908149         4.52055          3.7493 
       0.914301         4.43968         3.69346 
       0.920448         4.38727         3.63882 
       0.926574         4.32568         3.58549 
       0.932687         4.28211         3.53336 
       0.938823         4.23548         3.48209 
       0.944975         4.17657         3.43172 
       0.951105          4.1313         3.38255 
       0.957225         4.10155         3.33443 
       0.963368         4.04059         3.28709 
       0.969511         3.98382         3.24069 
       0.975621          3.9246         3.19543 
       0.981748         3.89026         3.15094 
       0.987916         3.84201         3.10702 
        0.99406         3.78034         3.06411 
        1.00019          3.7435         3.02211 
        1.00632         3.70032         2.98094 
        1.01246         3.65904         2.94048 
        1.01859         3.61851         2.90084 
        1.02471         3.57125         2.86199 
        1.03085         3.53585         2.82373 
        1.03698         3.48736         2.78625 
        1.04314         3.45523         2.74929 
        1.04929         3.40891          2.7131 
        1.05541          3.3738         2.67772 
        1.06154         3.33698         2.64288 
        1.06769         3.30531         2.60862 
        1.07382         3.26414         2.57508 
        1.07993         3.21772         2.54222 
        1.08607         3.20058          2.5098 
        1.09222          3.1591         2.47791 
        1.09836         3.13687         2.44663 
        1.10449         3.09885         2.41592 
        1.11063         3.05911         2.38572 
        1.11677         3.02628         2.35604 
         1.1229         2.99408         2.32693 
        1.12903         2.95931         2.29829 
        1.13518         2.93771          2.2701 
        1.14131         2.89532         2.24242 
        1.14745         2.85123         2.21521 
        1.15359          2.8398         2.18845 
        1.15973         2.79796         2.16213 
        1.16584         2.78726         2.13636 
        1.17197         2.75382         2.11098 
        1.17811         2.72627         2.08594 
        1.18424         2.70947         2.06138 
        1.19038         2.67509         2.03715 
        1.19652         2.64704         2.01332 
        1.20267         2.62613         1.98988 
        1.20881          2.5915         1.96682 
        1.21495         2.57446         1.94416 
        1.22108         2.54989         1.92186 
         1.2272         2.53288         1.89998 
        1.23334         2.49957         1.87838 
        1.23949         2.47284         1.85707 
        1.24562         2.45793         1.83616 
        1.25174         2.42882          1.8156 
        1.25789         2.40931         1.79529 
        1.26402         2.37829         1.77533 
        1.27014         2.35714         1.75573 
        1.27628         2.34797         1.73637 
        1.28244         2.31422         1.71726 
        1.28858         2.29813         1.69847 
        1.29471         2.27665            1.68 
        1.30084         2.25363         1.66183 
        1.30697         2.23891          1.6439 
        1.31312         2.20419         1.62621 
        1.31925          2.1957         1.60884 
        1.32537         2.17698         1.59174 
        1.33151         2.15971         1.57483 
        1.33765         2.13535         1.55818 
        1.34378         2.11275          1.5418 
        1.34992         2.10597         1.52565 
        1.35606         2.07769          1.5097 
         1.3622         2.06609         1.49401 
        1.36833         2.04698         1.47858 
        1.37445         2.02543         1.46337 
        1.38059         2.01012         1.44834 
        1.38675         2.00467         1.43348 
        1.39288         1.97684         1.41889 
        1.39901         1.96032         1.40452 
        1.40515         1.94624         1.39031 
         1.4113         1.92901          1.3763 
        1.41742         1.91381         1.36254 
        1.42355         1.90676         1.34895 
         1.4297         1.88063          1.3355 
        1.43585         1.86974         1.32224 
        1.44198         1.86034         1.30921 
        1.44809         1.83437         1.29638 
        1.45423          1.8224         1.28368 
        1.46036         1.80889         1.27118 
        1.46649         1.79275         1.25883 
        1.47263         1.77741         1.24664 
        1.47877         1.76146         1.23462 
        1.48491         1.74822         1.22274 
        1.49104         1.73688         1.21105 
        1.49718          1.7264         1.19949 
        1.50333         1.70989         1.18808 
        1.50947         1.69977         1.17683 
         1.5156         1.68528         1.16575 
        1.52172         1.67168         1.15481 
        1.52787         1.65714         1.14399 
          1.534         1.64963         1.13333 
        1.54013         1.63064         1.12281 
        1.54627         1.61771         1.11241 
        1.55241         1.60589         1.10213 
        1.55855         1.59535         1.09201 
        1.56467         1.58583         1.08204 
         1.5708         1.56777         1.07216 
        1.57695         1.56275          1.0624 
        1.58308         1.55029         1.05278 
        1.58922         1.53895         1.04327 
        1.59535          1.5276         1.03389 
         1.6015          1.5168         1.02461 
        1.60764         1.50759         1.01544 
        1.61376         1.49402         1.00642 
        1.61989         1.48443        0.997494 
        1.62604         1.47266         0.98866 
        1.63218         1.46684        0.979939 
        1.63831         1.45039        0.971345 
        1.64444         1.44051         0.96285 
        1.65059         1.43312        0.954438 
        1.65673         1.42162        0.946136 
        1.66285         1.41028        0.937957 
        1.66898         1.40485        0.929872 
        1.67512         1.39054        0.921868 
        1.68127         1.38211        0.913951 
         1.6874         1.37538        0.906145 
        1.69353         1.36198        0.898435 
        1.69967         1.35293        0.890798 
        1.70581         1.34745        0.883253 
        1.71193         1.33626        0.875825 
        1.71806         1.32951        0.868467 
        1.72421           1.319        0.861179 
        1.73035         1.30879        0.853984 
        1.73649          1.3025        0.846873 
        1.74262          1.2937         0.83985 
        1.74876         1.28432        0.832901 
        1.75489         1.27403        0.826046 
        1.76101         1.26555        0.819271 
        1.76715         1.25855        0.812562 
        1.77329         1.25065        0.805921 
        1.77943         1.24111        0.799352 
        1.78557         1.23255        0.792866 
        1.79171          1.2274         0.78645 
        1.79785         1.21829        0.780105 
        1.80399         1.21098        0.773832 
        1.81012         1.20506        0.767636 
        1.81625         1.19427        0.761511 
        1.82239         1.18853        0.755444 
        1.82853         1.17582        0.749447 
        1.83466         1.17195        0.743521 
        1.84078         1.16368        0.737665 
        1.84692         1.15913        0.731863 
        1.85306         1.15015        0.726117 
         1.8592         1.14487        0.720442 
        1.86533         1.13647        0.714832 
        1.87147         1.13002        0.709274 
        1.87761          1.1234        0.703774 
        1.88375         1.11229        0.698339 
        1.88988         1.10982        0.692968 
        1.89601         1.10082         0.68765 
        1.90215         1.09488        0.682385 
        1.90829         1.08732        0.677177 
        1.91442         1.08026        0.672023 
        1.92056         1.07489        0.666929 
         1.9267         1.06825        0.661882 
        1.93284         1.06358        0.656884 
        1.93897         1.05693        0.651948 
        1.94509         1.04969        0.647074 
        1.95123         1.04253        0.642237 
        1.95737         1.03746        0.637446 
        1.96349         1.02999        0.632717 
        1.96964         1.02486        0.628023 
        1.97578         1.01868        0.623374 
        1.98192         1.01567        0.618782 
        1.98805         1.00665        0.614236 
        1.99419         1.00226        0.609735 
        2.00033        0.998163        0.605278 
        2.00647        0.989898        0.600866 
         2.0126         0.98557        0.596506 
        2.01874        0.979942        0.592183 
        2.02488        0.974675        0.587899 
        2.03101        0.967033        0.583665 
        2.03714        0.960393        0.579477 
        2.04328        0.958162        0.575326 
        2.04941        0.951487        0.571219 
        2.05554        0.946447        0.567155 
        2.06167        0.940689        0.563126 
        2.06781        0.934504        0.559135 
        2.07396        0.928562        0.555178 
        2.08009        0.924879        0.551265 
        2.08622        0.918774        0.547395 
        2.09237        0.917537        0.543555 
        2.09851        0.912036        0.539751 
        2.10464        0.907092         0.53599 
        2.11077        0.900449         0.53227 
        2.11691        0.894978        0.528577 
        2.12305        0.891216        0.524919 
        2.12918        0.885736        0.521305 
        2.13531        0.881498        0.517724 
        2.14145        0.876285        0.514169 
         2.1476         0.87141        0.510644 
        2.15372        0.868593        0.507169 
        2.15985        0.862018        0.503723 
        2.16599        0.856846          0.5003 
        2.17213        0.853077        0.496913 
        2.17827        0.850951        0.493557 
         2.1844        0.845972        0.490236 
        2.19054         0.84216        0.486944 
        2.19666        0.835948        0.483688 
         2.2028        0.832375        0.480458 
        2.20893        0.826928        0.477257 
        2.21508        0.824222        0.474081 
        2.22122        0.818003        0.470933 
        2.22736        0.813708         0.46782 
        2.23349        0.812838        0.464737 
        2.23962        0.806991        0.461679 
        2.24577        0.801481        0.458647 
         2.2519        0.798458        0.455646 
        2.25802        0.794466        0.452677 
        2.26417        0.788626        0.449726 
        2.27031        0.785796        0.446798 
        2.27644        0.782523        0.443906 
        2.28257        0.778714        0.441039 
        2.28872        0.774162        0.438192 
        2.29486        0.770594        0.435371 
        2.30099        0.766461        0.432581 
        2.30712         0.76359        0.429814 
        2.31326        0.759552        0.427066 
         2.3194        0.757659        0.424345 
        2.32553        0.753232        0.421652 
        2.33166        0.749037        0.418983 
         2.3378        0.745197        0.416334 
        2.34394        0.739679        0.413707 
        2.35007        0.737322        0.411107 
        2.35619         0.73419        0.408532 
        2.36233        0.728999        0.405973 
        2.36848        0.727204        0.403431 
        2.37462        0.723155        0.400916 
        2.38075        0.721506        0.398426 
        2.38689        0.716744        0.395954 
        2.39303        0.714467        0.393504 
        2.39916        0.708939        0.391077 
        2.40529        0.707207        0.388671 
        2.41143        0.704255        0.386284 
        2.41757        0.699963        0.383916 
         2.4237        0.696805        0.381572 
        2.42983        0.694314        0.379248 
        2.43598        0.690788        0.376937 
        2.44211        0.687959        0.374649 
        2.44823        0.684832        0.372386 
        2.45437        0.681482        0.370135 
        2.46052        0.680196        0.367901 
        2.46665        0.675614        0.365689 
        2.47279        0.671965        0.363497 
        2.47892        0.668496        0.361321 
        2.48507        0.666391         0.35916 
         2.4912        0.663084        0.357022 
