# k  (h/Mpc)    P(k)  (Mpc/h)^3    P_linear(k)  (Mpc/h)^3
     0.00783031         1246.12         1260.01 
       0.013688          1639.6         1642.74 
       0.019231         1738.43         1739.41 
      0.0249154         1666.34         1677.52 
      0.0312784         1512.54         1516.04 
      0.0375637         1339.35         1337.41 
      0.0433917         1189.48         1193.15 
      0.0492413         1080.99         1081.45 
      0.0555754         988.298         994.337 
      0.0619321         932.249         929.278 
       0.067871         870.418         875.281 
      0.0738098         813.128         818.352 
      0.0800417         743.988         751.554 
      0.0862327         675.892         680.314 
      0.0921407         611.473         613.439 
      0.0982031         548.829         552.001 
       0.104506         501.813         500.115 
       0.110769         462.752         461.633 
       0.116806         433.189         434.919 
       0.122832          415.03         414.772 
       0.129052         393.934         396.544 
       0.135211         374.667         377.554 
       0.141259         355.463         356.263 
       0.147318         333.178         332.468 
       0.153489         306.902         307.301 
       0.159709         283.992         283.211 
       0.165845         266.013         262.541 
       0.171974          247.42         245.889 
       0.178125         235.065         233.084 
       0.184229         226.102         223.344 
        0.19034         214.905         215.232 
       0.196428         209.147         207.472 
       0.202534         202.421         199.068 
       0.208729          191.81         189.539 
       0.214876         180.595          179.31 
       0.220989         172.724         168.988 
       0.227147         161.246         159.168 
        0.23329         153.095         150.519 
       0.239377         146.874         143.334 
       0.245482         139.489          137.44 
       0.251667         136.114         132.485 
       0.257832         131.467         128.103 
       0.263955         127.107         123.867 
       0.270079           122.8         119.451 
        0.27624         119.178         114.723 
       0.282372         114.313         109.818 
        0.28843         109.028         104.977 
       0.294538         104.414         100.328 
       0.300721          101.33          96.052 
        0.30691         96.7617          92.284 
       0.313033         93.7117         89.0475 
       0.319153         89.5875         86.1866 
       0.325316         88.2994         83.5399 
        0.33145         85.2533         80.9896 
       0.337538         83.0927         78.4476 
       0.343633         80.2813         75.8476 
       0.349808         77.8534         73.1852 
       0.355968         75.3954          70.558 
       0.362074         72.8826         68.0576 
       0.368217         70.6649         65.7102 
       0.374374         68.3594         63.5506 
       0.380519         66.6501         61.5918 
       0.386598         64.8781          59.809 
       0.392688         63.5303         58.1329 
        0.39888         61.7014         56.4947 
       0.405048         60.2758         54.8881 
       0.411186         58.8354         53.3009 
       0.417313         56.8763         51.7308 
       0.423458         55.4379         50.1838 
       0.429607         53.8754         48.6888 
       0.435692         52.2734         47.2823 
       0.441815         51.3159         45.9467 
       0.447964         50.4097         44.6887 
       0.454126         48.5361          43.504 
       0.460267         47.6342         42.3809 
       0.466387         46.2532         41.3025 
        0.47254         45.5826         40.2487 
       0.478662          44.724         39.2227 
       0.484765         43.4596          38.218 
       0.490885         42.4519         37.2341 
       0.497035         41.8594         36.2761 
       0.503198         40.7924          35.353 
       0.509342         39.7766         34.4707 
       0.515458         38.9263         33.6311 
       0.521598         38.2612         32.8266 
       0.527764         37.4422          32.052 
       0.533884         36.7978         31.3098 
           0.54         36.0441         30.5892 
       0.546137         35.4242         29.8847 
       0.552299         34.8249         29.1959 
       0.558452         33.7652         28.5268 
       0.564573         33.3364         27.8798 
       0.570708         32.7714         27.2508 
       0.576825         31.9281         26.6442 
       0.582926          31.382         26.0605 
       0.589034         30.5438         25.4973 
       0.595184         30.1362         24.9497 
       0.601379         29.5941         24.4157 
       0.607522         29.1028         23.9014 
       0.613639         28.7957         23.4026 
       0.619772         28.0514         22.9155 
       0.625918         27.8802         22.4406 
       0.632068         27.4104         21.9787 
       0.638161         26.8175         21.5341 
         0.6443         26.2809         21.0993 
       0.650464         25.8163         20.6754 
       0.656582         25.6439         20.2666 
       0.662703         25.1725         19.8692 
       0.668861         24.7169         19.4804 
       0.675024         24.2726         19.1019 
       0.681124         23.8619         18.7375 
       0.687237         23.4928          18.382 
       0.693381         23.2465         18.0342 
       0.699536         22.6459         17.6948 
       0.705665         22.5022         17.3658 
       0.711789         22.0769         17.0454 
       0.717957         21.7713          16.731 
        0.72409         21.4289         16.4263 
       0.730186         21.1478         16.1311 
       0.736317         20.9282         15.8417 
       0.742472         20.5809         15.5584 
       0.748622          20.319         15.2823 
        0.75476         19.9221         15.0137 
       0.760888         19.7014          14.752 
       0.767043         19.4641         14.4956 
       0.773185         19.0852         14.2459 
       0.779291         18.9754         14.0036 
       0.785407         18.7084         13.7666 
       0.791564         18.3808         13.5337 
       0.797719         18.0548         13.3064 
       0.803834         17.9747         13.0858 
       0.809972         17.8114         12.8696 
       0.816124         17.4098         12.6577 
       0.822261         17.2398         12.4513 
       0.828378         17.0347         12.2502 
       0.834502         16.8739         12.0534 
       0.840667         16.6254         11.8597 
       0.846816          16.342         11.6709 
       0.852925         16.2017         11.4874 
       0.859047         16.0079         11.3075 
       0.865192         15.8737         11.1309 
       0.871341         15.7234          10.958 
       0.877463         15.4569         10.7896 
       0.883569         15.2397         10.6252 
       0.889708         15.0084         10.4635 
       0.895864         14.9177         10.3047 
       0.902008         14.7797         10.1496 
       0.908149         14.6132         9.99779 
       0.914301         14.4567         9.84889 
       0.920448         14.2131          9.7032 
       0.926574         14.0757         9.56099 
       0.932687         13.9487         9.42197 
       0.938823         13.7583         9.28524 
       0.944975         13.5875         9.15094 
       0.951105         13.4837         9.01981 
       0.957225         13.3895          8.8915 
       0.963368         13.2242         8.76528 
       0.969511         13.1009         8.64153 
       0.975621         12.9591         8.52087 
       0.981748         12.8158         8.40222 
       0.987916         12.7122          8.2851 
        0.99406          12.528         8.17069 
        1.00019         12.3398         8.05868 
        1.00632         12.3323         7.94889 
        1.01246         12.1885         7.84101 
        1.01859         12.0147         7.73532 
        1.02471         11.9346         7.63172 
        1.03085         11.8242         7.52968 
        1.03698         11.6544         7.42974 
        1.04314         11.5829          7.3312 
        1.04929         11.4303          7.2347 
        1.05541          11.313         7.14034 
        1.06154          11.225         7.04744 
        1.06769         11.1744         6.95608 
        1.07382         11.0063         6.86665 
        1.07993         10.9229         6.77901 
        1.08607         10.8331         6.69256 
        1.09222         10.7348         6.60754 
        1.09836         10.6237         6.52411 
        1.10449         10.5283         6.44224 
        1.11063         10.4377         6.36169 
        1.11677         10.3686         6.28256 
         1.1229         10.2841         6.20493 
        1.12903         10.1742         6.12855 
        1.13518         10.0602          6.0534 
        1.14131         9.96789         5.97957 
        1.14745         9.87598         5.90702 
        1.15359         9.81597         5.83567 
        1.15973         9.73745         5.76548 
        1.16584         9.60197         5.69678 
        1.17197         9.54226          5.6291 
        1.17811         9.49057         5.56232 
        1.18424         9.41475         5.49683 
        1.19038         9.35977         5.43222 
        1.19652         9.26242         5.36868 
        1.20267         9.15499         5.30616 
        1.20881         9.13164         5.24466 
        1.21495         9.05108         5.18424 
        1.22108         8.94843          5.1248 
         1.2272         8.90416         5.06643 
        1.23334         8.79438         5.00884 
        1.23949         8.72932         4.95202 
        1.24562         8.69107         4.89625 
        1.25174         8.60574         4.84142 
        1.25789          8.5488         4.78727 
        1.26402         8.49719         4.73406 
        1.27014         8.42173         4.68178 
        1.27628         8.34054         4.63015 
        1.28244         8.25613          4.5792 
        1.28858         8.24481         4.52909 
        1.29471          8.1545         4.47985 
        1.30084         8.07976         4.43139 
        1.30697          8.0827         4.38357 
        1.31312          7.9383          4.3364 
        1.31925         7.90471         4.29008 
        1.32537         7.84769         4.24449 
        1.33151          7.8175          4.1994 
        1.33765         7.72743           4.155 
        1.34378         7.66989         4.11133 
        1.34992         7.63323         4.06827 
        1.35606         7.56395         4.02573 
         1.3622         7.52558         3.98389 
        1.36833         7.47004         3.94274 
        1.37445         7.42178          3.9022 
        1.38059           7.392         3.86211 
        1.38675         7.33056         3.82249 
        1.39288         7.27781         3.78359 
        1.39901         7.20354         3.74525 
        1.40515         7.17082         3.70736 
         1.4113         7.12544         3.67001 
        1.41742         7.07876         3.63332 
        1.42355         7.01551         3.59707 
         1.4297         6.96419          3.5612 
        1.43585          6.9428         3.52585 
        1.44198         6.91587         3.49111 
        1.44809         6.84116          3.4569 
        1.45423         6.79146         3.42303 
        1.46036         6.74792         3.38968 
        1.46649         6.69817         3.35677 
        1.47263         6.64967         3.32427 
        1.47877         6.60861         3.29221 
        1.48491         6.56942         3.26054 
        1.49104         6.53524         3.22935 
        1.49718         6.49312         3.19854 
        1.50333          6.4557         3.16809 
        1.50947         6.40885         3.13811 
         1.5156         6.37277         3.10856 
        1.52172         6.33698         3.07939 
        1.52787         6.30077         3.05054 
          1.534         6.25109          3.0221 
        1.54013         6.22767         2.99405 
        1.54627         6.16772         2.96631 
        1.55241         6.13541         2.93892 
        1.55855         6.11173         2.91192 
        1.56467         6.06678         2.88533 
         1.5708         6.03624           2.859 
        1.57695         5.98318         2.83297 
        1.58308          5.9468         2.80731 
        1.58922         5.93118         2.78196 
        1.59535         5.89737         2.75694 
         1.6015         5.85369         2.73219 
        1.60764         5.81609         2.70775 
        1.61376         5.78535         2.68368 
        1.61989         5.75841         2.65989 
        1.62604         5.71488         2.63633 
        1.63218         5.70071         2.61308 
        1.63831          5.6654         2.59016 
        1.64444         5.63234         2.56751 
        1.65059         5.57644         2.54508 
        1.65673         5.56785         2.52294 
        1.66285         5.51699         2.50113 
        1.66898         5.49898         2.47957 
        1.67512         5.46376         2.45823 
        1.68127         5.43404         2.43712 
         1.6874         5.41399          2.4163 
        1.69353         5.36926         2.39574 
        1.69967         5.34584         2.37538 
        1.70581         5.31867         2.35526 
        1.71193         5.29369         2.33545 
        1.71806          5.2684         2.31583 
        1.72421         5.23201          2.2964 
        1.73035         5.21524         2.27721 
        1.73649         5.18189         2.25825 
        1.74262         5.14501         2.23952 
        1.74876         5.13597         2.22099 
        1.75489         5.11041         2.20271 
        1.76101         5.06565         2.18465 
        1.76715         5.04939         2.16676 
        1.77329         5.02796         2.14905 
        1.77943         4.97985         2.13153 
        1.78557         4.97418         2.11423 
        1.79171         4.93942         2.09713 
        1.79785         4.91536         2.08021 
        1.80399         4.88842         2.06348 
        1.81012         4.87205         2.04696 
        1.81625         4.83967         2.03063 
        1.82239         4.81821         2.01445 
        1.82853         4.79323         1.99846 
        1.83466         4.77983         1.98265 
        1.84078         4.75236         1.96704 
        1.84692         4.73715         1.95157 
        1.85306         4.69683         1.93625 
         1.8592         4.67136         1.92111 
        1.86533         4.65489         1.90615 
        1.87147         4.63709         1.89133 
        1.87761            4.61         1.87667 
        1.88375         4.58636         1.86217 
        1.88988         4.55936         1.84785 
        1.89601         4.54701         1.83367 
        1.90215         4.52589         1.81963 
        1.90829         4.49588         1.80574 
        1.91442         4.48199           1.792 
        1.92056         4.45159         1.77841 
         1.9267         4.43753         1.76496 
        1.93284         4.41776         1.75163 
        1.93897         4.39595         1.73847 
        1.94509         4.36488         1.72547 
        1.95123         4.34868         1.71257 
        1.95737         4.32429          1.6998 
        1.96349         4.31156         1.68719 
        1.96964         4.30023         1.67467 
        1.97578         4.26841         1.66227 
        1.98192         4.25613         1.65003 
        1.98805         4.23979          1.6379 
        1.99419         4.21837          1.6259 
        2.00033         4.20401         1.61402 
        2.00647         4.18002         1.60225 
         2.0126         4.16612         1.59063 
        2.01874         4.13382          1.5791 
        2.02488         4.12476         1.56768 
        2.03101         4.09505         1.55639 
        2.03714         4.08287         1.54522 
        2.04328         4.06525         1.53415 
        2.04941         4.03627          1.5232 
        2.05554         4.02882         1.51236 
        2.06167         4.01559         1.50162 
        2.06781         3.99625         1.49097 
        2.07396         3.98422         1.48042 
        2.08009         3.96279         1.46999 
        2.08622         3.94022         1.45967 
        2.09237         3.93359         1.44943 
        2.09851         3.91036         1.43929 
        2.10464         3.89612         1.42926 
        2.11077         3.87686         1.41934 
        2.11691         3.86383         1.40949 
        2.12305         3.84881         1.39973 
        2.12918         3.83995          1.3901 
        2.13531         3.81912         1.38055 
        2.14145         3.80365         1.37107 
         2.1476         3.77961         1.36167 
        2.15372         3.76877          1.3524 
        2.15985         3.75461         1.34321 
        2.16599         3.73832         1.33409 
        2.17213         3.71872         1.32505 
        2.17827         3.70743         1.31611 
         2.1844         3.69074         1.30725 
        2.19054         3.68214         1.29847 
        2.19666         3.66092         1.28979 
         2.2028         3.64542         1.28118 
        2.20893         3.63464         1.27264 
        2.21508         3.61312         1.26417 
        2.22122         3.60207         1.25578 
        2.22736         3.58644         1.24748 
        2.23349         3.57994         1.23925 
        2.23962         3.55944          1.2311 
        2.24577         3.54538         1.22302 
         2.2519         3.53505         1.21501 
        2.25802         3.52121          1.2071 
        2.26417         3.50755         1.19923 
        2.27031         3.49055         1.19142 
        2.27644         3.48055         1.18371 
        2.28257         3.46302         1.17606 
        2.28872         3.45424         1.16847 
        2.29486          3.4373         1.16095 
        2.30099         3.42451         1.15351 
        2.30712         3.40786         1.14613 
        2.31326         3.39769          1.1388 
         2.3194         3.38596         1.13155 
        2.32553         3.36905         1.12436 
        2.33166         3.36263         1.11725 
         2.3378         3.34879         1.11018 
        2.34394         3.33703         1.10318 
        2.35007         3.32119         1.09625 
        2.35619         3.31519         1.08938 
        2.36233         3.30309         1.08256 
        2.36848         3.28445         1.07578 
        2.37462         3.27753         1.06907 
        2.38075          3.2632         1.06243 
        2.38689         3.25279         1.05584 
        2.39303         3.24167         1.04931 
        2.39916         3.22829         1.04284 
        2.40529         3.21551         1.03642 
        2.41143         3.20537         1.03005 
        2.41757         3.19253         1.02374 
         2.4237         3.18323         1.01749 
        2.42983         3.15779         1.01129 
        2.43598         3.16512         1.00513 
        2.44211         3.14384        0.999029 
        2.44823         3.13941        0.992993 
        2.45437         3.12162        0.986991 
        2.46052         3.11464        0.981034 
        2.46665         3.10536        0.975137 
        2.47279         3.09299         0.96929 
        2.47892         3.08335        0.963487 
        2.48507         3.07328        0.957727 
         2.4912          3.0547        0.952025 
