# k  (h/Mpc)    P(k)  (Mpc/h)^3    P_linear(k)  (Mpc/h)^3
     0.00783031         1657.89         1677.11 
       0.013688          2183.3         2186.32 
       0.019231         2313.89         2314.87 
      0.0249154         2215.85         2232.45 
      0.0312784         2011.85         2017.51 
      0.0375637         1782.11         1779.77 
      0.0433917         1581.39         1587.78 
      0.0492413          1437.6         1439.12 
      0.0555754         1313.09          1323.2 
      0.0619321         1240.34         1236.62 
       0.067871          1156.5         1164.76 
      0.0738098         1080.28            1089 
      0.0800417         987.758         1000.11 
      0.0862327         897.715         905.307 
      0.0921407         812.698         816.314 
      0.0982031         729.156         734.558 
       0.104506          667.66         665.511 
       0.110769         615.592         614.301 
       0.116806         575.929         578.753 
       0.122832         552.012         551.943 
       0.129052         523.293         527.686 
       0.135211         497.732         502.416 
       0.141259         472.609         474.083 
       0.147318         443.153         442.419 
       0.153489         408.008         408.929 
       0.159709          378.03         376.872 
       0.165845         354.574         349.366 
       0.171974         329.769         327.207 
       0.178125          313.38         310.168 
       0.184229         301.555         297.206 
        0.19034         285.939         286.412 
       0.196428         278.803         276.085 
       0.202534         270.056         264.902 
       0.208729         255.842         252.221 
       0.214876         240.835         238.609 
       0.220989         230.736         224.873 
       0.227147         215.402         211.806 
        0.23329         204.729         200.296 
       0.239377         196.776         190.736 
       0.245482         186.441         182.893 
       0.251667          182.28         176.299 
       0.257832         176.133         170.468 
       0.263955         170.232          164.83 
       0.270079         164.498         158.954 
        0.27624         159.908         152.663 
       0.282372         153.447         146.135 
        0.28843          146.47         139.694 
       0.294538         140.267         133.508 
       0.300721           136.5         127.817 
        0.30691          130.29         122.803 
       0.313033         126.293         118.496 
       0.319153           120.7         114.689 
       0.325316         118.923         111.167 
        0.33145         114.792         107.773 
       0.337538         112.142         104.391 
       0.343633         108.392         100.931 
       0.349808         105.105         97.3881 
       0.355968         101.955         93.8921 
       0.362074         98.6344         90.5648 
       0.368217         95.6939          87.441 
       0.374374         92.6986         84.5673 
       0.380519          90.405         81.9606 
       0.386598         87.9993         79.5882 
       0.392688         86.2659         77.3578 
        0.39888          83.833         75.1779 
       0.405048         81.9425           73.04 
       0.411186         80.0397         70.9278 
       0.417313         77.4483         68.8385 
       0.423458         75.5278         66.7799 
       0.429607         73.4753         64.7905 
       0.435692         71.2365         62.9189 
       0.441815         70.1291         61.1416 
       0.447964         68.9268         59.4676 
       0.454126         66.2516         57.8911 
       0.460267         65.1251         56.3966 
       0.466387         63.3313         54.9616 
        0.47254         62.4618         53.5592 
       0.478662         61.3482         52.1939 
       0.484765         59.6268          50.857 
       0.490885         58.3066         49.5477 
       0.497035         57.4953         48.2729 
       0.503198         56.0489         47.0444 
       0.509342         54.6405         45.8704 
       0.515458         53.5754         44.7532 
       0.521598         52.7258         43.6826 
       0.527764         51.6674         42.6518 
       0.533884         50.7781         41.6642 
           0.54         49.7741         40.7053 
       0.546137         48.9856         39.7677 
       0.552299           48.21         38.8511 
       0.558452         46.7633         37.9608 
       0.564573         46.1308         37.0998 
       0.570708         45.4435         36.2628 
       0.576825         44.3249         35.4556 
       0.582926         43.5398         34.6788 
       0.589034         42.4288         33.9294 
       0.595184         41.9015         33.2008 
       0.601379         41.2269         32.4902 
       0.607522         40.4532         31.8058 
       0.613639         40.1084          31.142 
       0.619772         39.0849         30.4939 
       0.625918         38.8898         29.8619 
       0.632068         38.2449         29.2472 
       0.638161         37.4836         28.6556 
         0.6443          36.763         28.0769 
       0.650464          36.152         27.5129 
       0.656582         35.9293         26.9689 
       0.662703         35.2474           26.44 
       0.668861         34.6473         25.9227 
       0.675024         34.0669          25.419 
       0.681124         33.4841         24.9341 
       0.687237          32.957          24.461 
       0.693381         32.6668         23.9982 
       0.699536         31.8635         23.5466 
       0.705665         31.7817         23.1087 
       0.711789          31.104         22.6824 
       0.717957         30.7284          22.264 
        0.72409         30.2654         21.8586 
       0.730186         29.8538         21.4658 
       0.736317         29.5679         21.0807 
       0.742472         29.0553         20.7036 
       0.748622         28.7621         20.3363 
        0.75476         28.2539         19.9788 
       0.760888         27.9102         19.6305 
       0.767043         27.5902         19.2893 
       0.773185         27.0874         18.9571 
       0.779291         26.9627         18.6346 
       0.785407         26.6216         18.3193 
       0.791564         26.1369         18.0094 
       0.797719         25.6508         17.7069 
       0.803834         25.5901         17.4134 
       0.809972         25.3575         17.1256 
       0.816124         24.7706         16.8437 
       0.822261         24.6103         16.5691 
       0.828378         24.3317         16.3014 
       0.834502         24.0862         16.0395 
       0.840667         23.7861         15.7818 
       0.846816         23.3844         15.5305 
       0.852925         23.1879         15.2863 
       0.859047         22.9176          15.047 
       0.865192         22.7192          14.812 
       0.871341         22.5434         14.5819 
       0.877463           22.14         14.3578 
       0.883569         21.8734         14.1391 
       0.889708         21.5761         13.9238 
       0.895864         21.4419         13.7125 
       0.902008         21.2734         13.5061 
       0.908149         21.0372         13.3041 
       0.914301         20.8825          13.106 
       0.920448         20.4835         12.9121 
       0.926574         20.3329         12.7229 
       0.932687         20.1338         12.5379 
       0.938823         19.8689         12.3559 
       0.944975         19.6468         12.1772 
       0.951105         19.5087         12.0027 
       0.957225         19.3285          11.832 
       0.963368         19.1368          11.664 
       0.969511         18.9803         11.4993 
       0.975621         18.8101         11.3388 
       0.981748         18.5803         11.1809 
       0.987916         18.4528          11.025 
        0.99406         18.2137         10.8728 
        1.00019         17.9548         10.7237 
        1.00632         17.9442         10.5776 
        1.01246          17.744         10.4341 
        1.01859         17.4932         10.2934 
        1.02471         17.4145         10.1556 
        1.03085         17.2542         10.0198 
        1.03698         16.9977         9.88679 
        1.04314         16.9063         9.75567 
        1.04929         16.6939         9.62725 
        1.05541          16.535         9.50169 
        1.06154         16.4158         9.37808 
        1.06769          16.339          9.2565 
        1.07382         16.1225         9.13749 
        1.07993          16.032         9.02087 
        1.08607         15.8649         8.90583 
        1.09222         15.7433         8.79269 
        1.09836         15.5667         8.68168 
        1.10449         15.4651         8.57272 
        1.11063         15.3212         8.46554 
        1.11677         15.2424         8.36024 
         1.1229         15.1413         8.25693 
        1.12903         14.9676          8.1553 
        1.13518          14.801          8.0553 
        1.14131         14.7087         7.95705 
        1.14745         14.5952         7.86051 
        1.15359         14.4953         7.76557 
        1.15973          14.384         7.67217 
        1.16584         14.1789         7.58073 
        1.17197         14.1197         7.49067 
        1.17811         14.0333         7.40181 
        1.18424         13.9168         7.31467 
        1.19038         13.8489         7.22869 
        1.19652         13.7086         7.14413 
        1.20267         13.5668         7.06094 
        1.20881         13.5494         6.97911 
        1.21495         13.4369         6.89871 
        1.22108         13.2833          6.8196 
         1.2272            13.2         6.74193 
        1.23334          13.069          6.6653 
        1.23949         12.9725         6.58968 
        1.24562         12.9268         6.51547 
        1.25174         12.8262         6.44251 
        1.25789         12.7397         6.37046 
        1.26402          12.677         6.29964 
        1.27014         12.5674         6.23008 
        1.27628         12.4211         6.16137 
        1.28244          12.339         6.09357 
        1.28858         12.3234         6.02689 
        1.29471         12.1877         5.96136 
        1.30084         12.0785         5.89687 
        1.30697         12.0657         5.83325 
        1.31312         11.8934         5.77048 
        1.31925          11.828         5.70884 
        1.32537           11.77         5.64817 
        1.33151         11.7035         5.58817 
        1.33765         11.6037         5.52908 
        1.34378          11.517         5.47098 
        1.34992         11.4378         5.41367 
        1.35606         11.3797         5.35707 
         1.3622         11.3126         5.30138 
        1.36833         11.2272         5.24663 
        1.37445         11.1664         5.19268 
        1.38059         11.1221         5.13933 
        1.38675         11.0178         5.08661 
        1.39288         10.9602         5.03484 
        1.39901         10.8496         4.98382 
        1.40515         10.8112          4.9334 
         1.4113         10.7506          4.8837 
        1.41742         10.6795         4.83488 
        1.42355         10.5921         4.78664 
         1.4297         10.5216         4.73892 
        1.43585         10.4903         4.69186 
        1.44198         10.4467         4.64564 
        1.44809         10.3543         4.60012 
        1.45423         10.2796         4.55505 
        1.46036         10.2286         4.51067 
        1.46649         10.1649         4.46687 
        1.47263         10.0805         4.42362 
        1.47877         10.0336         4.38097 
        1.48491         9.97472         4.33882 
        1.49104         9.92092         4.29731 
        1.49718         9.86931         4.25632 
        1.50333         9.81022          4.2158 
        1.50947         9.74532          4.1759 
         1.5156         9.69594         4.13658 
        1.52172         9.64158         4.09776 
        1.52787         9.57981         4.05937 
          1.534         9.52068         4.02153 
        1.54013         9.48227          3.9842 
        1.54627         9.40152         3.94729 
        1.55241         9.36492         3.91084 
        1.55855         9.32392         3.87491 
        1.56467         9.25144         3.83953 
         1.5708         9.22875         3.80449 
        1.57695           9.142         3.76985 
        1.58308         9.09686         3.73571 
        1.58922         9.06746         3.70198 
        1.59535         9.02715         3.66867 
         1.6015         8.95821         3.63574 
        1.60764         8.90015         3.60322 
        1.61376         8.87201         3.57119 
        1.61989         8.82263         3.53953 
        1.62604         8.76439         3.50819 
        1.63218         8.74076         3.47724 
        1.63831         8.70076         3.44674 
        1.64444         8.65286          3.4166 
        1.65059         8.56545         3.38675 
        1.65673         8.55404         3.35729 
        1.66285          8.4737         3.32827 
        1.66898         8.45163         3.29958 
        1.67512         8.41259         3.27118 
        1.68127         8.36416         3.24309 
         1.6874         8.33583         3.21539 
        1.69353         8.28014         3.18803 
        1.69967         8.23164         3.16093 
        1.70581         8.19237         3.13416 
        1.71193         8.15584          3.1078 
        1.71806         8.13485         3.08169 
        1.72421         8.06678         3.05583 
        1.73035         8.05073          3.0303 
        1.73649         8.01007         3.00507 
        1.74262         7.95263         2.98014 
        1.74876         7.93093         2.95549 
        1.75489         7.90455         2.93116 
        1.76101         7.83834         2.90712 
        1.76715         7.81285         2.88332 
        1.77329         7.77599         2.85975 
        1.77943          7.7182         2.83644 
        1.78557         7.71277         2.81342 
        1.79171         7.65856         2.79066 
        1.79785         7.62187         2.76815 
        1.80399         7.57624         2.74588 
        1.81012         7.55649          2.7239 
        1.81625         7.50824         2.70217 
        1.82239         7.48658         2.68064 
        1.82853         7.44647         2.65936 
        1.83466         7.41594         2.63833 
        1.84078         7.37672         2.61755 
        1.84692         7.36629         2.59696 
        1.85306         7.30912         2.57657 
         1.8592         7.26872         2.55644 
        1.86533         7.24579         2.53653 
        1.87147         7.21529         2.51681 
        1.87761         7.17938         2.49729 
        1.88375         7.14864           2.478 
        1.88988         7.11458         2.45894 
        1.89601           7.092         2.44007 
        1.90215         7.06451         2.42139 
        1.90829         7.02411         2.40291 
        1.91442         6.99718         2.38462 
        1.92056         6.96197         2.36655 
         1.9267         6.92828         2.34864 
        1.93284         6.90224          2.3309 
        1.93897         6.86985         2.31339 
        1.94509         6.83528         2.29609 
        1.95123         6.80567         2.27893 
        1.95737         6.77108         2.26193 
        1.96349          6.7497         2.24515 
        1.96964         6.72546         2.22849 
        1.97578         6.68604           2.212 
        1.98192         6.66665          2.1957 
        1.98805         6.64388         2.17957 
        1.99419         6.61563          2.1636 
        2.00033         6.59329         2.14778 
        2.00647          6.5613         2.13213 
         2.0126         6.53753         2.11666 
        2.01874         6.49671         2.10132 
        2.02488         6.48284         2.08611 
        2.03101         6.43983         2.07109 
        2.03714         6.41682         2.05623 
        2.04328         6.38677          2.0415 
        2.04941         6.35713         2.02693 
        2.05554         6.33435         2.01251 
        2.06167          6.3157         1.99821 
        2.06781         6.28853         1.98405 
        2.07396         6.27443         1.97001 
        2.08009         6.24273         1.95612 
        2.08622         6.20931         1.94239 
        2.09237         6.20282         1.92876 
        2.09851         6.16952         1.91527 
        2.10464         6.14097         1.90192 
        2.11077         6.10848         1.88872 
        2.11691          6.0941         1.87562 
        2.12305         6.07393         1.86263 
        2.12918         6.05756         1.84981 
        2.13531         6.02587          1.8371 
        2.14145         6.00723         1.82449 
         2.1476         5.96981         1.81198 
        2.15372          5.9552         1.79965 
        2.15985         5.94474         1.78742 
        2.16599         5.90585         1.77528 
        2.17213         5.89071         1.76326 
        2.17827         5.87238         1.75135 
         2.1844         5.84379         1.73956 
        2.19054         5.82457         1.72789 
        2.19666         5.79676         1.71633 
         2.2028         5.77694         1.70487 
        2.20893         5.76337         1.69351 
        2.21508         5.73021         1.68224 
        2.22122         5.71141         1.67107 
        2.22736         5.69113         1.66002 
        2.23349         5.68684         1.64908 
        2.23962         5.65264         1.63823 
        2.24577           5.626         1.62747 
         2.2519         5.62058         1.61682 
        2.25802         5.58769         1.60629 
        2.26417         5.56848         1.59582 
        2.27031         5.54838         1.58543 
        2.27644         5.52737         1.57517 
        2.28257         5.50916         1.56499 
        2.28872         5.49372         1.55489 
        2.29486         5.46863         1.54488 
        2.30099          5.4514         1.53498 
        2.30712         5.43172         1.52516 
        2.31326         5.40279         1.51541 
         2.3194         5.39511         1.50575 
        2.32553         5.37063          1.4962 
        2.33166         5.35859         1.48673 
         2.3378         5.33873         1.47733 
        2.34394         5.31964         1.46801 
        2.35007         5.29365         1.45878 
        2.35619         5.28564         1.44964 
        2.36233         5.26882         1.44056 
        2.36848         5.24013         1.43154 
        2.37462         5.23071         1.42262 
        2.38075         5.21571         1.41378 
        2.38689         5.19151         1.40501 
        2.39303         5.17542         1.39632 
        2.39916         5.15872         1.38771 
        2.40529         5.13846         1.37917 
        2.41143         5.12638          1.3707 
        2.41757         5.11194         1.36229 
         2.4237         5.09677         1.35398 
        2.42983         5.05668         1.34573 
        2.43598         5.06121         1.33753 
        2.44211         5.03526         1.32941 
        2.44823         5.02213         1.32138 
        2.45437         4.99786         1.31339 
        2.46052         4.98784         1.30547 
        2.46665         4.97448         1.29762 
        2.47279         4.95595         1.28984 
        2.47892         4.93982         1.28212 
        2.48507         4.92652         1.27445 
         2.4912         4.90184         1.26687 
