# k  (h/Mpc)    P(k)  (Mpc/h)^3    P_linear(k)  (Mpc/h)^3
     0.00783031         3261.88         3303.72 
       0.013688         4306.69         4305.73 
       0.019231         4557.92         4558.34 
      0.0249154          4351.9         4395.72 
      0.0312784         3953.77          3972.3 
      0.0375637         3505.81          3504.1 
      0.0433917         3102.66         3126.05 
      0.0492413         2823.05         2833.32 
      0.0555754         2570.53         2605.05 
      0.0619321         2437.88         2434.57 
       0.067871         2263.29         2293.09 
      0.0738098         2113.38         2143.93 
      0.0800417         1928.18         1968.91 
      0.0862327         1754.44         1782.27 
      0.0921407         1591.83         1607.07 
      0.0982031         1426.68         1446.11 
       0.104506         1312.22         1310.17 
       0.110769         1209.24         1209.36 
       0.116806         1129.95         1139.37 
       0.122832         1083.65         1086.59 
       0.129052          1023.1         1038.84 
       0.135211         973.532         989.086 
       0.141259           926.6         933.307 
       0.147318         869.681         870.972 
       0.153489         799.665         805.041 
       0.159709         744.206         741.931 
       0.165845         700.823         687.781 
       0.171974         652.469         644.156 
       0.178125         620.232         610.612 
       0.184229         597.339         585.095 
        0.19034         562.695         563.844 
       0.196428          551.57         543.513 
       0.202534          535.05         521.499 
       0.208729         506.924         496.533 
       0.214876         477.483         469.736 
       0.220989         459.293         442.696 
       0.227147         429.681          416.97 
        0.23329         409.686         394.312 
       0.239377         396.114         375.491 
       0.245482         372.704         360.051 
       0.251667         366.341         347.069 
       0.257832         354.301         335.591 
       0.263955         342.268         324.492 
       0.270079         330.803         312.924 
        0.27624         323.235         300.539 
       0.282372         310.401         287.688 
        0.28843         297.538         275.006 
       0.294538         284.594         262.828 
       0.300721         279.383         251.626 
        0.30691         266.364         241.755 
       0.313033         259.073         233.276 
       0.319153         248.205         225.782 
       0.325316         243.334         218.848 
        0.33145         235.176         212.167 
       0.337538         231.241         205.508 
       0.343633         223.734         198.696 
       0.349808         216.697         191.722 
       0.355968         211.602          184.84 
       0.362074         205.333         178.289 
       0.368217         199.529          172.14 
       0.374374          193.55         166.482 
       0.380519         189.295         161.351 
       0.386598         184.309          156.68 
       0.392688         181.261          152.29 
        0.39888         176.498         147.998 
       0.405048         172.607         143.789 
       0.411186          168.68         139.631 
       0.417313          164.29         135.518 
       0.423458         160.604         131.465 
       0.429607         156.562         127.549 
       0.435692          151.74         123.864 
       0.441815         150.266         120.366 
       0.447964         147.747          117.07 
       0.454126         141.482         113.967 
       0.460267         139.634         111.024 
       0.466387         136.901         108.199 
        0.47254         134.738         105.439 
       0.478662         132.808         102.751 
       0.484765         129.166         100.119 
       0.490885         126.808         97.5413 
       0.497035         125.065         95.0318 
       0.503198         121.826         92.6133 
       0.509342         119.221         90.3021 
       0.515458         117.423         88.1027 
       0.521598         115.871         85.9951 
       0.527764         113.928         83.9659 
       0.533884         111.946         82.0216 
           0.54         109.955         80.1339 
       0.546137         108.694         78.2881 
       0.552299         107.079         76.4837 
       0.558452         104.388         74.7311 
       0.564573         102.565          73.036 
       0.570708         101.467         71.3883 
       0.576825         99.5797         69.7991 
       0.582926         97.7432           68.27 
       0.589034          95.706         66.7946 
       0.595184         94.6819         65.3602 
       0.601379          93.575         63.9613 
       0.607522         91.3152         62.6139 
       0.613639         91.0661         61.3072 
       0.619772         88.8773         60.0313 
       0.625918         88.2308         58.7872 
       0.632068         87.0321          57.577 
       0.638161         85.7454         56.4125 
         0.6443         84.4989         55.2733 
       0.650464          83.255         54.1628 
       0.656582         82.5355          53.092 
       0.662703         80.8186         52.0508 
       0.668861         80.0162         51.0323 
       0.675024         78.9065         50.0408 
       0.681124         77.6905         49.0861 
       0.687237         76.4746         48.1548 
       0.693381         75.7912         47.2436 
       0.699536         74.4368         46.3547 
       0.705665          74.833         45.4926 
       0.711789         72.7988         44.6534 
       0.717957          72.303         43.8297 
        0.72409         71.2239         43.0316 
       0.730186         70.1037         42.2584 
       0.736317         69.8368         41.5001 
       0.742472         68.7121         40.7579 
       0.748622          68.175         40.0348 
        0.75476         67.3201          39.331 
       0.760888         66.3945         38.6454 
       0.767043         65.7163         37.9737 
       0.773185         64.8648         37.3195 
       0.779291         64.5539         36.6847 
       0.785407         63.9187          36.064 
       0.791564          62.857          35.454 
       0.797719         61.9045         34.8585 
       0.803834          61.774         34.2807 
       0.809972         60.7932          33.714 
       0.816124         59.9415         33.1592 
       0.822261         59.6511         32.6184 
       0.828378         59.1418         32.0915 
       0.834502         58.4326          31.576 
       0.840667         57.9725         31.0686 
       0.846816         57.1832         30.5739 
       0.852925         56.7151         30.0932 
       0.859047         55.9287          29.622 
       0.865192         55.6177         29.1594 
       0.871341         55.3331         28.7064 
       0.877463         54.2685         28.2653 
       0.883569         53.9269         27.8346 
       0.889708         53.5597         27.4109 
       0.895864         53.0589         26.9949 
       0.902008         52.6207         26.5886 
       0.908149         52.1474         26.1909 
       0.914301         51.8614         25.8009 
       0.920448         51.0627         25.4192 
       0.926574         50.7982         25.0467 
       0.932687         50.2918         24.6825 
       0.938823         49.6204         24.3243 
       0.944975         49.4574         23.9725 
       0.951105         48.9916          23.629 
       0.957225         48.4085         23.2928 
       0.963368         48.2279         22.9622 
       0.969511         47.8444          22.638 
       0.975621         47.4707         22.3219 
       0.981748         46.8849         22.0111 
       0.987916         46.6614         21.7043 
        0.99406          46.312         21.4045 
        1.00019         45.7261         21.1111 
        1.00632         45.5586         20.8235 
        1.01246         45.1681         20.5409 
        1.01859         44.6651          20.264 
        1.02471         44.6536         19.9926 
        1.03085         44.1829         19.7253 
        1.03698         43.6213         19.4635 
        1.04314         43.2459         19.2053 
        1.04929         43.0671         18.9525 
        1.05541         42.6086         18.7053 
        1.06154          42.465          18.462 
        1.06769           42.12         18.2227 
        1.07382         41.8119         17.9884 
        1.07993         41.6774         17.7588 
        1.08607          41.133         17.5323 
        1.09222          41.008         17.3096 
        1.09836         40.5511          17.091 
        1.10449         40.3761         16.8766 
        1.11063         39.8648         16.6655 
        1.11677         39.7294         16.4583 
         1.1229          39.609         16.2549 
        1.12903          39.062         16.0548 
        1.13518         38.8839         15.8579 
        1.14131         38.8086         15.6645 
        1.14745         38.4016         15.4745 
        1.15359         38.2562         15.2876 
        1.15973         37.8305         15.1037 
        1.16584         37.5225         14.9237 
        1.17197         37.5551         14.7464 
        1.17811         37.0734         14.5715 
        1.18424         36.7847         14.3999 
        1.19038         36.7214         14.2306 
        1.19652         36.4885         14.0642 
        1.20267         36.2431         13.9004 
        1.20881         35.9863         13.7393 
        1.21495         35.7309          13.581 
        1.22108         35.5096         13.4253 
         1.2272         35.1329         13.2724 
        1.23334         35.0203         13.1215 
        1.23949         34.7991         12.9727 
        1.24562         34.6952         12.8266 
        1.25174         34.4735         12.6829 
        1.25789         34.2643         12.5411 
        1.26402         34.0804         12.4017 
        1.27014         33.7468         12.2647 
        1.27628         33.5435         12.1295 
        1.28244         33.4095          11.996 
        1.28858         33.2735         11.8647 
        1.29471         33.0219         11.7357 
        1.30084         32.8168         11.6088 
        1.30697         32.5928         11.4835 
        1.31312         32.3185           11.36 
        1.31925         32.2139         11.2386 
        1.32537         32.1031         11.1192 
        1.33151         31.8398         11.0011 
        1.33765         31.7643         10.8847 
        1.34378         31.6229         10.7703 
        1.34992         31.1779         10.6575 
        1.35606         31.1169         10.5461 
         1.3622         30.9418         10.4365 
        1.36833          30.776         10.3287 
        1.37445         30.7422         10.2225 
        1.38059         30.5592         10.1175 
        1.38675         30.2588         10.0137 
        1.39288         30.1804         9.91176 
        1.39901         29.9299         9.81132 
        1.40515         29.8151         9.71206 
         1.4113         29.6811         9.61422 
        1.41742         29.3943         9.51811 
        1.42355         29.3721         9.42314 
         1.4297         29.1706         9.32919 
        1.43585         29.1132         9.23656 
        1.44198         28.8136         9.14555 
        1.44809          28.743         9.05595 
        1.45423         28.6088         8.96723 
        1.46036         28.5199         8.87986 
        1.46649         28.3273         8.79363 
        1.47263          28.157         8.70849 
        1.47877         28.0259         8.62452 
        1.48491         27.8668         8.54154 
        1.49104         27.8332         8.45983 
        1.49718         27.5525         8.37913 
        1.50333         27.4758         8.29937 
        1.50947         27.3793         8.22081 
         1.5156         27.1683          8.1434 
        1.52172         26.9719         8.06699 
        1.52787         26.9773         7.99142 
          1.534         26.7872         7.91691 
        1.54013         26.5933         7.84344 
        1.54627          26.539         7.77077 
        1.55241         26.3653         7.69902 
        1.55855         26.2617         7.62828 
        1.56467         26.1636         7.55863 
         1.5708         26.0429         7.48965 
        1.57695         25.8031         7.42144 
        1.58308         25.8422         7.35424 
        1.58922         25.6573         7.28783 
        1.59535         25.5067         7.22227 
         1.6015         25.3908         7.15743 
        1.60764         25.3333         7.09342 
        1.61376         25.2082         7.03037 
        1.61989         24.9736         6.96804 
        1.62604         24.9666         6.90633 
        1.63218         24.7926         6.84541 
        1.63831         24.7415         6.78537 
        1.64444         24.5666         6.72604 
        1.65059         24.4696         6.66727 
        1.65673          24.384         6.60928 
        1.66285         24.2475         6.55214 
        1.66898         24.1581         6.49566 
        1.67512         24.0684         6.43975 
        1.68127         23.8874         6.38444 
         1.6874         23.8025         6.32992 
        1.69353         23.7887         6.27606 
        1.69967          23.581         6.22271 
        1.70581         23.4612         6.17001 
        1.71193         23.3492         6.11812 
        1.71806         23.3004         6.06672 
        1.72421         23.1847         6.01581 
        1.73035         23.1199         5.96555 
        1.73649         22.9579         5.91587 
        1.74262         22.9332         5.86681 
        1.74876         22.7899         5.81827 
        1.75489         22.7011         5.77038 
        1.76101         22.6085         5.72305 
        1.76715         22.5669         5.67619 
        1.77329         22.4524          5.6298 
        1.77943         22.3191         5.58391 
        1.78557         22.2281          5.5386 
        1.79171         22.1672         5.49379 
        1.79785         22.0244         5.44946 
        1.80399         21.9491         5.40564 
        1.81012         21.8787         5.36236 
        1.81625         21.7691         5.31957 
        1.82239         21.7181         5.27719 
        1.82853         21.5511         5.23529 
        1.83466          21.483          5.1939 
        1.84078          21.341         5.15299 
        1.84692         21.3221         5.11246 
        1.85306          21.202         5.07232 
         1.8592         21.1419         5.03268 
        1.86533         21.0556         4.99349 
        1.87147         20.9575         4.95467 
        1.87761         20.9159         4.91625 
        1.88375          20.759         4.87828 
        1.88988         20.7348         4.84076 
        1.89601         20.6269         4.80361 
        1.90215         20.5341         4.76683 
        1.90829         20.4831         4.73045 
        1.91442         20.3792         4.69445 
        1.92056         20.3151         4.65886 
         1.9267         20.2464          4.6236 
        1.93284         20.1311         4.58869 
        1.93897         20.0478         4.55421 
        1.94509         19.9871         4.52016 
        1.95123         19.9008         4.48637 
        1.95737         19.8037         4.45291 
        1.96349         19.7422         4.41987 
        1.96964         19.6609         4.38708 
        1.97578         19.6013         4.35461 
        1.98192         19.4828         4.32253 
        1.98805         19.4445         4.29077 
        1.99419         19.3471         4.25933 
        2.00033         19.2793         4.22819 
        2.00647         19.2446         4.19738 
         2.0126          19.074         4.16692 
        2.01874         19.0398         4.13672 
        2.02488         18.9586         4.10679 
        2.03101         18.9544         4.07722 
        2.03714          18.851         4.04796 
        2.04328         18.7459         4.01897 
        2.04941         18.6776         3.99028 
        2.05554         18.6704         3.96189 
        2.06167         18.5768         3.93374 
        2.06781         18.4879         3.90586 
        2.07396         18.4227         3.87822 
        2.08009         18.3619         3.85089 
        2.08622         18.2824         3.82385 
        2.09237         18.2181         3.79703 
        2.09851         18.1325         3.77045 
        2.10464         18.0721         3.74418 
        2.11077         18.0095         3.71819 
        2.11691         17.9412          3.6924 
        2.12305         17.8535         3.66684 
        2.12918         17.8021         3.64159 
        2.13531         17.7452         3.61658 
        2.14145         17.6635         3.59175 
         2.1476         17.6111         3.56712 
        2.15372         17.5656         3.54285 
        2.15985         17.4608         3.51878 
        2.16599         17.4367         3.49487 
        2.17213           17.38          3.4712 
        2.17827         17.3202         3.44776 
         2.1844          17.252         3.42456 
        2.19054         17.1624         3.40157 
        2.19666         17.1246         3.37882 
         2.2028         17.0548         3.35626 
        2.20893         16.9886          3.3339 
        2.21508         16.9363         3.31171 
        2.22122           16.84         3.28972 
        2.22736         16.7933         3.26798 
        2.23349         16.7281         3.24644 
        2.23962         16.6993         3.22508 
        2.24577         16.6106          3.2039 
         2.2519         16.5789         3.18293 
        2.25802         16.5157         3.16219 
        2.26417         16.4593         3.14158 
        2.27031         16.4087         3.12113 
        2.27644         16.3468         3.10092 
        2.28257         16.2928         3.08089 
        2.28872         16.2148         3.06101 
        2.29486         16.1973          3.0413 
        2.30099         16.1279         3.02181 
        2.30712           16.08         3.00248 
        2.31326         16.0257         2.98329 
         2.3194          15.918         2.96428 
        2.32553         15.9136         2.94546 
        2.33166         15.8033         2.92682 
         2.3378         15.7813         2.90832 
        2.34394         15.7139         2.88997 
        2.35007         15.6382          2.8718 
        2.35619         15.6155         2.85381 
        2.36233          15.549         2.83594 
        2.36848         15.5353         2.81818 
        2.37462         15.4776         2.80062 
        2.38075         15.4016         2.78322 
        2.38689         15.3535         2.76595 
        2.39303         15.3163         2.74884 
        2.39916         15.2502         2.73188 
        2.40529         15.2111         2.71508 
        2.41143         15.1398          2.6984 
        2.41757         15.1209         2.68186 
         2.4237         15.0323         2.66548 
        2.42983         15.0087         2.64925 
        2.43598         14.9484          2.6331 
        2.44211         14.8723         2.61712 
        2.44823         14.8382         2.60131 
        2.45437         14.8111         2.58559 
        2.46052         14.7651         2.56998 
        2.46665         14.6936         2.55453 
        2.47279         14.6632         2.53922 
        2.47892         14.5988         2.52402 
        2.48507         14.5584         2.50893 
         2.4912         14.5204         2.49399 
