# k  (h/Mpc)    P(k)  (Mpc/h)^3    P_linear(k)  (Mpc/h)^3
     0.00783031         178.481         180.066 
       0.013688         234.019         234.903 
       0.019231         248.551         248.791 
      0.0249154         239.125         239.974 
      0.0312784         216.769         216.895 
      0.0375637         191.656          191.35 
      0.0433917         170.752         170.717 
      0.0492413         154.955         154.738 
      0.0555754         142.159         142.277 
      0.0619321         133.304          132.97 
       0.067871         125.112         125.245 
      0.0738098         116.913           117.1 
      0.0800417         107.239         107.542 
      0.0862327         97.2423         97.3492 
      0.0921407         87.7773         87.7802 
      0.0982031         78.9227         78.9891 
       0.104506         71.7526         71.5647 
       0.110769         66.2039         66.0582 
       0.116806         62.1744         62.2357 
       0.122832         59.4091         59.3528 
       0.129052         56.6449         56.7445 
       0.135211         53.8872         54.0272 
       0.141259         50.9509         50.9805 
       0.147318         47.6536         47.5757 
       0.153489         43.9873         43.9744 
       0.159709         40.5618         40.5272 
       0.165845         37.7692         37.5694 
       0.171974         35.2277         35.1865 
       0.178125         33.4192         33.3542 
       0.184229         32.0708         31.9604 
        0.19034         30.7644         30.7996 
       0.196428         29.7301         29.6891 
       0.202534         28.6358         28.4866 
       0.208729         27.1963         27.1229 
       0.214876         25.6679         25.6591 
       0.220989          24.339         24.1821 
       0.227147         22.8062         22.7769 
        0.23329         21.5809         21.5392 
       0.239377           20.58         20.5111 
       0.245482         19.6938         19.6677 
       0.251667         19.0662         18.9586 
       0.257832         18.4008         18.3316 
       0.263955         17.8081         17.7253 
       0.270079         17.1817         17.0934 
        0.27624         16.5665         16.4169 
       0.282372         15.8614         15.7149 
        0.28843         15.1233         15.0222 
       0.294538         14.4686          14.357 
       0.300721         13.9103         13.7451 
        0.30691         13.3175         13.2059 
       0.313033         12.8657         12.7427 
       0.319153         12.3751         12.3333 
       0.325316         12.1073         11.9546 
        0.33145         11.7225         11.5896 
       0.337538         11.3529         11.2259 
       0.343633         10.9614         10.8538 
       0.349808         10.6042         10.4728 
       0.355968          10.233         10.0969 
       0.362074         9.86673         9.73908 
       0.368217          9.5392         9.40315 
       0.374374         9.19746         9.09412 
       0.380519         8.94859         8.81381 
       0.386598         8.70444         8.55869 
       0.392688         8.47931         8.31884 
        0.39888         8.23047         8.08441 
       0.405048         8.00763         7.85452 
       0.411186         7.78779         7.62738 
       0.417313         7.53956          7.4027 
       0.423458         7.33686         7.18132 
       0.429607         7.10463         6.96739 
       0.435692         6.90273         6.76612 
       0.441815         6.71834         6.57499 
       0.447964         6.56495         6.39498 
       0.454126         6.36402         6.22545 
       0.460267         6.20288         6.06474 
       0.466387         6.03624         5.91042 
        0.47254         5.89773         5.75961 
       0.478662         5.75909         5.61279 
       0.484765         5.60322         5.46902 
       0.490885         5.46306         5.32822 
       0.497035         5.35813         5.19114 
       0.503198         5.21022         5.05903 
       0.509342         5.09068         4.93278 
       0.515458         4.95958         4.81264 
       0.521598         4.84829         4.69751 
       0.527764          4.7251         4.58666 
       0.533884         4.63763         4.48046 
           0.54         4.52849         4.37734 
       0.546137         4.43382         4.27651 
       0.552299         4.33293         4.17794 
       0.558452         4.22106         4.08221 
       0.564573         4.14095         3.98962 
       0.570708         4.05125         3.89961 
       0.576825         3.95469          3.8128 
       0.582926         3.88243         3.72927 
       0.589034          3.7769         3.64868 
       0.595184         3.70624         3.57032 
       0.601379         3.62888         3.49391 
       0.607522         3.56649         3.42031 
       0.613639         3.50732         3.34893 
       0.619772         3.41735         3.27923 
       0.625918           3.357         3.21127 
       0.632068         3.29906         3.14517 
       0.638161         3.22511         3.08155 
         0.6443         3.16051         3.01932 
       0.650464         3.09145         2.95866 
       0.656582         3.04366         2.90017 
       0.662703         2.98686         2.84329 
       0.668861         2.93882         2.78766 
       0.675024         2.87547          2.7335 
       0.681124         2.81556         2.68135 
       0.687237         2.77502         2.63047 
       0.693381         2.72588          2.5807 
       0.699536         2.65883         2.53214 
       0.705665         2.61605         2.48505 
       0.711789         2.57536         2.43921 
       0.717957         2.52479         2.39422 
        0.72409         2.48347         2.35062 
       0.730186         2.43852         2.30838 
       0.736317         2.40915         2.26696 
       0.742472         2.36532         2.22642 
       0.748622         2.32043         2.18691 
        0.75476          2.2745         2.14847 
       0.760888         2.23747         2.11102 
       0.767043         2.21281         2.07433 
       0.773185         2.16723         2.03859 
       0.779291         2.13454         2.00392 
       0.785407         2.10067         1.97001 
       0.791564         2.06752         1.93669 
       0.797719          2.0381         1.90416 
       0.803834         2.00689         1.87259 
       0.809972         1.97385         1.84164 
       0.816124         1.93949         1.81133 
       0.822261         1.90603         1.78179 
       0.828378         1.88193         1.75301 
       0.834502         1.85746         1.72485 
       0.840667         1.81974         1.69713 
       0.846816         1.79326         1.67011 
       0.852925         1.77431         1.64385 
       0.859047         1.74701         1.61811 
       0.865192          1.7186         1.59284 
       0.871341         1.69319          1.5681 
       0.877463         1.67492           1.544 
       0.883569         1.64487         1.52048 
       0.889708         1.61998         1.49733 
       0.895864         1.59837         1.47461 
       0.902008         1.57209         1.45241 
       0.908149         1.55113         1.43069 
       0.914301         1.52233         1.40938 
       0.920448         1.50481         1.38853 
       0.926574         1.48263         1.36819 
       0.932687         1.46272         1.34829 
       0.938823         1.44894         1.32873 
       0.944975         1.42663         1.30951 
       0.951105         1.40901         1.29074 
       0.957225         1.39367         1.27238 
       0.963368          1.3731         1.25432 
       0.969511         1.35191         1.23661 
       0.975621          1.3313         1.21934 
       0.981748         1.31985         1.20236 
       0.987916         1.30095         1.18561 
        0.99406          1.2817         1.16923 
        1.00019         1.26942          1.1532 
        1.00632         1.24822         1.13749 
        1.01246         1.23261         1.12205 
        1.01859         1.21957         1.10693 
        1.02471         1.20232         1.09211 
        1.03085         1.19147          1.0775 
        1.03698         1.17298          1.0632 
        1.04314         1.16018          1.0491 
        1.04929         1.14363         1.03529 
        1.05541         1.13219         1.02179 
        1.06154         1.11637         1.00849 
        1.06769         1.10173         0.99542 
        1.07382         1.09035        0.982623 
        1.07993         1.07385        0.970082 
        1.08607         1.06679        0.957711 
        1.09222         1.05067        0.945544 
        1.09836          1.0428        0.933606 
        1.10449         1.02958        0.921889 
        1.11063         1.01433        0.910363 
        1.11677         1.00103         0.89904 
         1.1229        0.991434         0.88793 
        1.12903        0.978445           0.877 
        1.13518         0.97017        0.866247 
        1.14131        0.956829        0.855682 
        1.14745        0.941085          0.8453 
        1.15359        0.935217         0.83509 
        1.15973        0.921087        0.825046 
        1.16584        0.916417        0.815213 
        1.17197        0.904258        0.805528 
        1.17811        0.895037        0.795973 
        1.18424        0.888166        0.786601 
        1.19038        0.875314        0.777355 
        1.19652        0.863437        0.768262 
        1.20267           0.858        0.759316 
        1.20881        0.846156        0.750516 
        1.21495        0.839837         0.74187 
        1.22108        0.830304        0.733363 
         1.2272         0.82282         0.72501 
        1.23334        0.812641        0.716769 
        1.23949        0.803908        0.708638 
        1.24562        0.795987        0.700657 
        1.25174        0.788175        0.692811 
        1.25789        0.780739        0.685063 
        1.26402        0.769882        0.677448 
        1.27014        0.762783        0.669967 
        1.27628        0.757265        0.662578 
        1.28244         0.74605        0.655287 
        1.28858        0.739849        0.648116 
        1.29471        0.734456         0.64107 
        1.30084        0.725094        0.634135 
        1.30697        0.717993        0.627293 
        1.31312        0.707965        0.620543 
        1.31925        0.703009        0.613915 
        1.32537         0.69729         0.60739 
        1.33151        0.691335        0.600938 
        1.33765        0.683982        0.594584 
        1.34378        0.675176        0.588335 
        1.34992        0.670708        0.582173 
        1.35606        0.663239        0.576086 
         1.3622        0.657248        0.570098 
        1.36833        0.650794        0.564209 
        1.37445        0.642724        0.558408 
        1.38059        0.637031        0.552671 
        1.38675        0.635458        0.547001 
        1.39288        0.626878        0.541435 
        1.39901        0.621376        0.535948 
        1.40515        0.616093        0.530526 
         1.4113        0.608893        0.525182 
        1.41742         0.60334        0.519931 
        1.42355        0.600373        0.514744 
         1.4297        0.592548        0.509611 
        1.43585        0.587786        0.504552 
        1.44198        0.584595         0.49958 
        1.44809        0.577008        0.494686 
        1.45423        0.572268        0.489839 
        1.46036        0.567039        0.485067 
        1.46649         0.56295        0.480356 
        1.47263        0.556896        0.475706 
        1.47877        0.551085        0.471119 
        1.48491         0.54707        0.466586 
        1.49104        0.541135        0.462122 
        1.49718        0.537318        0.457714 
        1.50333        0.533388        0.453357 
        1.50947        0.528528        0.449066 
         1.5156        0.523253        0.444837 
        1.52172        0.519234        0.440663 
        1.52787        0.514344        0.436535 
          1.534        0.510336        0.432465 
        1.54013          0.5049        0.428452 
        1.54627        0.501799        0.424482 
        1.55241        0.496723        0.420563 
        1.55855        0.491644        0.416698 
        1.56467        0.490303        0.412894 
         1.5708        0.484743        0.409126 
        1.57695        0.481143          0.4054 
        1.58308         0.47673        0.401729 
        1.58922        0.473283        0.398102 
        1.59535        0.468932         0.39452 
         1.6015        0.465054        0.390978 
        1.60764        0.461761        0.387481 
        1.61376        0.456511        0.384037 
        1.61989        0.454039        0.380633 
        1.62604        0.450464        0.377262 
        1.63218        0.447346        0.373934 
        1.63831        0.443503        0.370655 
        1.64444        0.439724        0.367413 
        1.65059        0.436426        0.364203 
        1.65673        0.432761        0.361035 
        1.66285        0.429844        0.357914 
        1.66898        0.426637        0.354829 
        1.67512        0.422349        0.351775 
        1.68127        0.418888        0.348754 
         1.6874         0.41687        0.345775 
        1.69353        0.412784        0.342833 
        1.69967        0.410477        0.339919 
        1.70581        0.406277         0.33704 
        1.71193        0.403571        0.334205 
        1.71806        0.399938        0.331398 
        1.72421         0.39793        0.328617 
        1.73035         0.39414        0.325871 
        1.73649        0.391939        0.323158 
        1.74262        0.388716        0.320477 
        1.74876        0.385578        0.317826 
        1.75489        0.383161         0.31521 
        1.76101        0.379451        0.312625 
        1.76715        0.376872        0.310065 
        1.77329        0.373832        0.307531 
        1.77943        0.371243        0.305024 
        1.78557        0.369129        0.302549 
        1.79171        0.366272        0.300101 
        1.79785        0.363439         0.29768 
        1.80399        0.360666        0.295286 
        1.81012        0.358501        0.292922 
        1.81625        0.355577        0.290584 
        1.82239        0.353472        0.288269 
        1.82853        0.350001        0.285981 
        1.83466        0.348198        0.283719 
        1.84078        0.345279        0.281485 
        1.84692        0.343058        0.279271 
        1.85306           0.341        0.277078 
         1.8592        0.338223        0.274913 
        1.86533        0.336366        0.272772 
        1.87147          0.3338        0.270651 
        1.87761        0.331959        0.268553 
        1.88375        0.328684        0.266479 
        1.88988        0.326806        0.264429 
        1.89601        0.324323          0.2624 
        1.90215        0.322419        0.260391 
        1.90829        0.319794        0.258403 
        1.91442        0.318271        0.256437 
        1.92056        0.315473        0.254493 
         1.9267        0.313127        0.252567 
        1.93284          0.3112         0.25066 
        1.93897        0.309205        0.248776 
        1.94509        0.307551        0.246916 
        1.95123        0.304926        0.245071 
        1.95737        0.303566        0.243243 
        1.96349        0.301198        0.241438 
        1.96964        0.298907        0.239647 
        1.97578        0.296933        0.237873 
        1.98192        0.295599         0.23612 
        1.98805        0.293802        0.234386 
        1.99419         0.29118        0.232668 
        2.00033        0.289318        0.230967 
        2.00647        0.288155        0.229284 
         2.0126        0.285619         0.22762 
        2.01874        0.284209        0.225971 
        2.02488         0.28229        0.224336 
        2.03101        0.280382         0.22272 
        2.03714        0.278493        0.221122 
        2.04328        0.276992        0.219538 
        2.04941        0.275004        0.217971 
        2.05554        0.273538         0.21642 
        2.06167        0.272093        0.214883 
        2.06781        0.269542         0.21336 
        2.07396        0.267892         0.21185 
        2.08009        0.266255        0.210357 
        2.08622        0.265037         0.20888 
        2.09237        0.263732        0.207415 
        2.09851        0.262046        0.205963 
        2.10464        0.260295        0.204528 
        2.11077        0.258327        0.203108 
        2.11691        0.256869        0.201699 
        2.12305        0.255274        0.200303 
        2.12918        0.253862        0.198924 
        2.13531        0.252212        0.197558 
        2.14145        0.250564        0.196201 
         2.1476        0.249221        0.194856 
        2.15372        0.248153         0.19353 
        2.15985         0.24622        0.192215 
        2.16599        0.244524        0.190909 
        2.17213        0.243479        0.189616 
        2.17827        0.241774        0.188336 
         2.1844         0.24065        0.187069 
        2.19054        0.239154        0.185813 
        2.19666         0.23715         0.18457 
         2.2028        0.236297        0.183338 
        2.20893        0.235243        0.182116 
        2.21508        0.233126        0.180904 
        2.22122         0.23199        0.179703 
        2.22736        0.230957        0.178515 
        2.23349        0.229431        0.177339 
        2.23962        0.228371        0.176172 
        2.24577        0.226608        0.175015 
         2.2519        0.225812         0.17387 
        2.25802        0.224156        0.172736 
        2.26417        0.223048         0.17161 
        2.27031         0.22158        0.170493 
        2.27644        0.220487         0.16939 
        2.28257        0.219172        0.168296 
        2.28872        0.218092        0.167209 
        2.29486        0.216872        0.166133 
        2.30099        0.215656        0.165068 
        2.30712        0.214502        0.164012 
        2.31326        0.212775        0.162964 
         2.3194        0.212722        0.161925 
        2.32553        0.211364        0.160898 
        2.33166        0.210157        0.159879 
         2.3378        0.208863        0.158868 
        2.34394        0.207592        0.157866 
        2.35007        0.206487        0.156874 
        2.35619        0.205127        0.155891 
        2.36233         0.20396        0.154915 
        2.36848        0.203181        0.153945 
        2.37462        0.201733        0.152985 
        2.38075        0.201145        0.152035 
        2.38689         0.19986        0.151092 
        2.39303        0.199247        0.150157 
        2.39916        0.197627        0.149231 
        2.40529        0.196792        0.148313 
        2.41143        0.195697        0.147402 
        2.41757        0.194504        0.146498 
         2.4237        0.193724        0.145604 
        2.42983        0.192533        0.144717 
        2.43598        0.192033        0.143835 
        2.44211         0.19073        0.142962 
        2.44823        0.190127        0.142098 
        2.45437        0.188503        0.141239 
        2.46052        0.187903        0.140387 
        2.46665        0.186826        0.139543 
        2.47279        0.185688        0.138706 
        2.47892        0.184602        0.137876 
        2.48507        0.183737        0.137052 
         2.4912        0.183033        0.136236 
