#        a       HoverH0(a)       dlogHdloga_of_a(a)
   1.0000000E-04   1.1580256E+06   -1.9104209E+00
   1.0046181E-04   1.1478780E+06   -1.9100816E+00
   1.0092575E-04   1.1378212E+06   -1.9097413E+00
   1.0139184E-04   1.1278542E+06   -1.9094000E+00
   1.0186008E-04   1.1179763E+06   -1.9090576E+00
   1.0233048E-04   1.1081866E+06   -1.9087143E+00
   1.0280305E-04   1.0984844E+06   -1.9083700E+00
   1.0327781E-04   1.0888689E+06   -1.9080247E+00
   1.0375475E-04   1.0793393E+06   -1.9076783E+00
   1.0423390E-04   1.0698948E+06   -1.9073310E+00
   1.0471527E-04   1.0605346E+06   -1.9069826E+00
   1.0519885E-04   1.0512580E+06   -1.9066332E+00
   1.0568467E-04   1.0420643E+06   -1.9062829E+00
   1.0617274E-04   1.0329526E+06   -1.9059315E+00
   1.0666305E-04   1.0239222E+06   -1.9055791E+00
   1.0715563E-04   1.0149725E+06   -1.9052257E+00
   1.0765049E-04   1.0061026E+06   -1.9048713E+00
   1.0814763E-04   9.9731181E+05   -1.9045158E+00
   1.0864707E-04   9.8859949E+05   -1.9041594E+00
   1.0914881E-04   9.7996488E+05   -1.9038019E+00
   1.0965287E-04   9.7140730E+05   -1.9034434E+00
   1.1015926E-04   9.6292604E+05   -1.9030839E+00
   1.1066799E-04   9.5452041E+05   -1.9027234E+00
   1.1117906E-04   9.4618973E+05   -1.9023619E+00
   1.1169250E-04   9.3793332E+05   -1.9019993E+00
   1.1220831E-04   9.2975052E+05   -1.9016358E+00
   1.1272650E-04   9.2164064E+05   -1.9012712E+00
   1.1324708E-04   9.1360305E+05   -1.9009056E+00
   1.1377007E-04   9.0563707E+05   -1.9005390E+00
   1.1429547E-04   8.9774208E+05   -1.9001714E+00
   1.1482330E-04   8.8991742E+05   -1.8998027E+00
   1.1535356E-04   8.8216246E+05   -1.8994330E+00
   1.1588628E-04   8.7447657E+05   -1.8990623E+00
   1.1642145E-04   8.6685912E+05   -1.8986906E+00
   1.1695910E-04   8.5930950E+05   -1.8983179E+00
   1.1749923E-04   8.5182710E+05   -1.8979442E+00
   1.1804185E-04   8.4441131E+05   -1.8975694E+00
   1.1858698E-04   8.3706152E+05   -1.8971936E+00
   1.1913463E-04   8.2977715E+05   -1.8968168E+00
   1.1968481E-04   8.2255759E+05   -1.8964389E+00
   1.2023752E-04   8.1540228E+05   -1.8960601E+00
   1.2079279E-04   8.0831062E+05   -1.8956802E+00
   1.2135063E-04   8.0128204E+05   -1.8952993E+00
   1.2191104E-04   7.9431597E+05   -1.8949174E+00
   1.2247403E-04   7.8741185E+05   -1.8945344E+00
   1.2303963E-04   7.8056912E+05   -1.8941505E+00
   1.2360784E-04   7.7378723E+05   -1.8937655E+00
   1.2417868E-04   7.6706562E+05   -1.8933795E+00
   1.2475215E-04   7.6040375E+05   -1.8929925E+00
   1.2532826E-04   7.5380109E+05   -1.8926044E+00
   1.2590704E-04   7.4725709E+05   -1.8922153E+00
   1.2648850E-04   7.4077124E+05   -1.8918252E+00
   1.2707263E-04   7.3434300E+05   -1.8914341E+00
   1.2765947E-04   7.2797186E+05   -1.8910420E+00
   1.2824901E-04   7.2165730E+05   -1.8906488E+00
   1.2884128E-04   7.1539881E+05   -1.8902547E+00
   1.2943628E-04   7.0919589E+05   -1.8898595E+00
   1.3003403E-04   7.0304803E+05   -1.8894632E+00
   1.3063454E-04   6.9695474E+05   -1.8890660E+00
   1.3123783E-04   6.9091553E+05   -1.8886677E+00
   1.3184390E-04   6.8492990E+05   -1.8882685E+00
   1.3245277E-04   6.7899739E+05   -1.8878682E+00
   1.3306445E-04   6.7311749E+05   -1.8874669E+00
   1.3367895E-04   6.6728976E+05   -1.8870645E+00
   1.3429630E-04   6.6151370E+05   -1.8866612E+00
   1.3491649E-04   6.5578886E+05   -1.8862568E+00
   1.3553955E-04   6.5011478E+05   -1.8858514E+00
   1.3616548E-04   6.4449100E+05   -1.8854450E+00
   1.3679431E-04   6.3891707E+05   -1.8850376E+00
   1.3742604E-04   6.3339253E+05   -1.8846292E+00
   1.3806069E-04   6.2791695E+05   -1.8842197E+00
   1.3869827E-04   6.2248987E+05   -1.8838093E+00
   1.3933879E-04   6.1711087E+05   -1.8833978E+00
   1.3998227E-04   6.1177952E+05   -1.8829853E+00
   1.4062872E-04   6.0649537E+05   -1.8825718E+00
   1.4127816E-04   6.0125801E+05   -1.8821573E+00
   1.4193060E-04   5.9606702E+05   -1.8817418E+00
   1.4258605E-04   5.9092198E+05   -1.8813252E+00
   1.4324453E-04   5.8582248E+05   -1.8809077E+00
   1.4390605E-04   5.8076810E+05   -1.8804891E+00
   1.4457062E-04   5.7575844E+05   -1.8800696E+00
   1.4523826E-04   5.7079310E+05   -1.8796490E+00
   1.4590899E-04   5.6587168E+05   -1.8792274E+00
   1.4658281E-04   5.6099378E+05   -1.8788049E+00
   1.4725974E-04   5.5615901E+05   -1.8783813E+00
   1.4793981E-04   5.5136699E+05   -1.8779567E+00
   1.4862301E-04   5.4661733E+05   -1.8775311E+00
   1.4930936E-04   5.4190965E+05   -1.8771045E+00
   1.4999889E-04   5.3724356E+05   -1.8766769E+00
   1.5069160E-04   5.3261871E+05   -1.8762483E+00
   1.5138751E-04   5.2803471E+05   -1.8758187E+00
   1.5208663E-04   5.2349120E+05   -1.8753882E+00
   1.5278899E-04   5.1898782E+05   -1.8749566E+00
   1.5349458E-04   5.1452421E+05   -1.8745240E+00
   1.5420343E-04   5.1010000E+05   -1.8740904E+00
   1.5491556E-04   5.0571485E+05   -1.8736558E+00
   1.5563098E-04   5.0136839E+05   -1.8732203E+00
   1.5634970E-04   4.9706030E+05   -1.8727837E+00
   1.5707174E-04   4.9279021E+05   -1.8723462E+00
   1.5779711E-04   4.8855779E+05   -1.8719077E+00
   1.5852584E-04   4.8436270E+05   -1.8714682E+00
   1.5925792E-04   4.8020461E+05   -1.8710277E+00
   1.5999339E-04   4.7608318E+05   -1.8705862E+00
   1.6073226E-04   4.7199809E+05   -1.8701437E+00
   1.6147454E-04   4.6794900E+05   -1.8697003E+00
   1.6222024E-04   4.6393560E+05   -1.8692558E+00
   1.6296939E-04   4.5995756E+05   -1.8688104E+00
   1.6372200E-04   4.5601457E+05   -1.8683641E+00
   1.6447809E-04   4.5210631E+05   -1.8679167E+00
   1.6523767E-04   4.4823247E+05   -1.8674684E+00
   1.6600075E-04   4.4439274E+05   -1.8670191E+00
   1.6676736E-04   4.4058682E+05   -1.8665688E+00
   1.6753751E-04   4.3681440E+05   -1.8661176E+00
   1.6831122E-04   4.3307518E+05   -1.8656654E+00
   1.6908849E-04   4.2936887E+05   -1.8652122E+00
   1.6986936E-04   4.2569517E+05   -1.8647581E+00
   1.7065384E-04   4.2205378E+05   -1.8643030E+00
   1.7144193E-04   4.1844441E+05   -1.8638469E+00
   1.7223367E-04   4.1486679E+05   -1.8633899E+00
   1.7302906E-04   4.1132063E+05   -1.8629319E+00
   1.7382813E-04   4.0780563E+05   -1.8624730E+00
   1.7463089E-04   4.0432153E+05   -1.8620131E+00
   1.7543735E-04   4.0086805E+05   -1.8615523E+00
   1.7624754E-04   3.9744491E+05   -1.8610905E+00
   1.7706147E-04   3.9405184E+05   -1.8606278E+00
   1.7787916E-04   3.9068857E+05   -1.8601641E+00
   1.7870062E-04   3.8735483E+05   -1.8596995E+00
   1.7952588E-04   3.8405037E+05   -1.8592339E+00
   1.8035495E-04   3.8077491E+05   -1.8587674E+00
   1.8118785E-04   3.7752820E+05   -1.8583000E+00
   1.8202459E-04   3.7430998E+05   -1.8578317E+00
   1.8286520E-04   3.7111999E+05   -1.8573624E+00
   1.8370969E-04   3.6795799E+05   -1.8568921E+00
   1.8455808E-04   3.6482372E+05   -1.8564210E+00
   1.8541039E-04   3.6171694E+05   -1.8559489E+00
   1.8626663E-04   3.5863739E+05   -1.8554759E+00
   1.8712683E-04   3.5558483E+05   -1.8550020E+00
   1.8799100E-04   3.5255903E+05   -1.8545271E+00
   1.8885917E-04   3.4955974E+05   -1.8540514E+00
   1.8973134E-04   3.4658673E+05   -1.8535747E+00
   1.9060754E-04   3.4363976E+05   -1.8530971E+00
   1.9148778E-04   3.4071859E+05   -1.8526187E+00
   1.9237209E-04   3.3782300E+05   -1.8521393E+00
   1.9326049E-04   3.3495277E+05   -1.8516590E+00
   1.9415299E-04   3.3210765E+05   -1.8511778E+00
   1.9504960E-04   3.2928743E+05   -1.8506957E+00
   1.9595036E-04   3.2649189E+05   -1.8502127E+00
   1.9685528E-04   3.2372080E+05   -1.8497288E+00
   1.9776438E-04   3.2097395E+05   -1.8492440E+00
   1.9867768E-04   3.1825111E+05   -1.8487583E+00
   1.9959519E-04   3.1555208E+05   -1.8482718E+00
   2.0051694E-04   3.1287664E+05   -1.8477844E+00
   2.0144295E-04   3.1022459E+05   -1.8472960E+00
   2.0237324E-04   3.0759570E+05   -1.8468069E+00
   2.0330782E-04   3.0498978E+05   -1.8463168E+00
   2.0424671E-04   3.0240663E+05   -1.8458259E+00
   2.0518995E-04   2.9984602E+05   -1.8453341E+00
   2.0613754E-04   2.9730778E+05   -1.8448414E+00
   2.0708950E-04   2.9479169E+05   -1.8443479E+00
   2.0804586E-04   2.9229756E+05   -1.8438535E+00
   2.0900664E-04   2.8982520E+05   -1.8433582E+00
   2.0997185E-04   2.8737440E+05   -1.8428621E+00
   2.1094152E-04   2.8494497E+05   -1.8423652E+00
   2.1191567E-04   2.8253674E+05   -1.8418674E+00
   2.1289432E-04   2.8014950E+05   -1.8413687E+00
   2.1387749E-04   2.7778307E+05   -1.8408693E+00
   2.1486520E-04   2.7543726E+05   -1.8403689E+00
   2.1585747E-04   2.7311189E+05   -1.8398678E+00
   2.1685432E-04   2.7080678E+05   -1.8393658E+00
   2.1785578E-04   2.6852175E+05   -1.8388630E+00
   2.1886186E-04   2.6625661E+05   -1.8383594E+00
   2.1987259E-04   2.6401120E+05   -1.8378549E+00
   2.2088798E-04   2.6178533E+05   -1.8373496E+00
   2.2190807E-04   2.5957883E+05   -1.8368435E+00
   2.2293286E-04   2.5739153E+05   -1.8363366E+00
   2.2396239E-04   2.5522326E+05   -1.8358289E+00
   2.2499667E-04   2.5307385E+05   -1.8353204E+00
   2.2603573E-04   2.5094313E+05   -1.8348111E+00
   2.2707958E-04   2.4883093E+05   -1.8343010E+00
   2.2812826E-04   2.4673708E+05   -1.8337901E+00
   2.2918178E-04   2.4466144E+05   -1.8332784E+00
   2.3024017E-04   2.4260383E+05   -1.8327659E+00
   2.3130344E-04   2.4056409E+05   -1.8322526E+00
   2.3237162E-04   2.3854206E+05   -1.8317386E+00
   2.3344474E-04   2.3653759E+05   -1.8312238E+00
   2.3452281E-04   2.3455053E+05   -1.8307082E+00
   2.3560586E-04   2.3258070E+05   -1.8301918E+00
   2.3669392E-04   2.3062797E+05   -1.8296747E+00
   2.3778699E-04   2.2869218E+05   -1.8291568E+00
   2.3888512E-04   2.2677318E+05   -1.8286382E+00
   2.3998831E-04   2.2487082E+05   -1.8281188E+00
   2.4109661E-04   2.2298496E+05   -1.8275986E+00
   2.4221001E-04   2.2111544E+05   -1.8270778E+00
   2.4332857E-04   2.1926211E+05   -1.8265561E+00
   2.4445228E-04   2.1742485E+05   -1.8260338E+00
   2.4558119E-04   2.1560350E+05   -1.8255107E+00
   2.4671531E-04   2.1379792E+05   -1.8249868E+00
   2.4785467E-04   2.1200798E+05   -1.8244623E+00
   2.4899928E-04   2.1023353E+05   -1.8239370E+00
   2.5014919E-04   2.0847444E+05   -1.8234110E+00
   2.5130440E-04   2.0673057E+05   -1.8228843E+00
   2.5246495E-04   2.0500178E+05   -1.8223569E+00
   2.5363086E-04   2.0328794E+05   -1.8218288E+00
   2.5480216E-04   2.0158893E+05   -1.8213000E+00
   2.5597886E-04   1.9990460E+05   -1.8207705E+00
   2.5716100E-04   1.9823482E+05   -1.8202403E+00
   2.5834859E-04   1.9657948E+05   -1.8197094E+00
   2.5954168E-04   1.9493843E+05   -1.8191778E+00
   2.6074027E-04   1.9331156E+05   -1.8186456E+00
   2.6194439E-04   1.9169873E+05   -1.8181126E+00
   2.6315408E-04   1.9009983E+05   -1.8175790E+00
   2.6436935E-04   1.8851473E+05   -1.8170448E+00
   2.6559024E-04   1.8694331E+05   -1.8165099E+00
   2.6681676E-04   1.8538544E+05   -1.8159743E+00
   2.6804895E-04   1.8384101E+05   -1.8154380E+00
   2.6928683E-04   1.8230989E+05   -1.8149012E+00
   2.7053042E-04   1.8079198E+05   -1.8143636E+00
   2.7177976E-04   1.7928715E+05   -1.8138255E+00
   2.7303487E-04   1.7779528E+05   -1.8132867E+00
   2.7429577E-04   1.7631626E+05   -1.8127473E+00
   2.7556250E-04   1.7484999E+05   -1.8122072E+00
   2.7683507E-04   1.7339634E+05   -1.8116665E+00
   2.7811353E-04   1.7195520E+05   -1.8111253E+00
   2.7939788E-04   1.7052647E+05   -1.8105834E+00
   2.8068817E-04   1.6911003E+05   -1.8100409E+00
   2.8198442E-04   1.6770577E+05   -1.8094978E+00
   2.8328665E-04   1.6631360E+05   -1.8089541E+00
   2.8459490E-04   1.6493339E+05   -1.8084098E+00
   2.8590919E-04   1.6356504E+05   -1.8078649E+00
   2.8722955E-04   1.6220846E+05   -1.8073194E+00
   2.8855600E-04   1.6086353E+05   -1.8067734E+00
   2.8988859E-04   1.5953016E+05   -1.8062268E+00
   2.9122732E-04   1.5820823E+05   -1.8056796E+00
   2.9257224E-04   1.5689766E+05   -1.8051319E+00
   2.9392337E-04   1.5559833E+05   -1.8045836E+00
   2.9528074E-04   1.5431016E+05   -1.8040347E+00
   2.9664438E-04   1.5303303E+05   -1.8034853E+00
   2.9801431E-04   1.5176687E+05   -1.8029354E+00
   2.9939057E-04   1.5051156E+05   -1.8023849E+00
   3.0077319E-04   1.4926701E+05   -1.8018339E+00
   3.0216219E-04   1.4803312E+05   -1.8012824E+00
   3.0355761E-04   1.4680981E+05   -1.8007303E+00
   3.0495947E-04   1.4559698E+05   -1.8001777E+00
   3.0636780E-04   1.4439454E+05   -1.7996246E+00
   3.0778264E-04   1.4320239E+05   -1.7990710E+00
   3.0920401E-04   1.4202045E+05   -1.7985169E+00
   3.1063195E-04   1.4084863E+05   -1.7979624E+00
   3.1206648E-04   1.3968682E+05   -1.7974073E+00
   3.1350764E-04   1.3853496E+05   -1.7968517E+00
   3.1495545E-04   1.3739295E+05   -1.7962956E+00
   3.1640994E-04   1.3626070E+05   -1.7957391E+00
   3.1787116E-04   1.3513813E+05   -1.7951821E+00
   3.1933912E-04   1.3402515E+05   -1.7946247E+00
   3.2081386E-04   1.3292168E+05   -1.7940667E+00
   3.2229541E-04   1.3182763E+05   -1.7935084E+00
   3.2378381E-04   1.3074292E+05   -1.7929495E+00
   3.2527908E-04   1.2966747E+05   -1.7923903E+00
   3.2678125E-04   1.2860120E+05   -1.7918306E+00
   3.2829036E-04   1.2754403E+05   -1.7912704E+00
   3.2980644E-04   1.2649588E+05   -1.7907099E+00
   3.3132952E-04   1.2545666E+05   -1.7901489E+00
   3.3285963E-04   1.2442630E+05   -1.7895875E+00
   3.3439681E-04   1.2340472E+05   -1.7890257E+00
   3.3594109E-04   1.2239185E+05   -1.7884635E+00
   3.3749250E-04   1.2138761E+05   -1.7879008E+00
   3.3905108E-04   1.2039192E+05   -1.7873378E+00
   3.4061685E-04   1.1940470E+05   -1.7867744E+00
   3.4218986E-04   1.1842589E+05   -1.7862106E+00
   3.4377013E-04   1.1745541E+05   -1.7856465E+00
   3.4535769E-04   1.1649318E+05   -1.7850820E+00
   3.4695259E-04   1.1553914E+05   -1.7845171E+00
   3.4855485E-04   1.1459320E+05   -1.7839518E+00
   3.5016452E-04   1.1365531E+05   -1.7833862E+00
   3.5178161E-04   1.1272539E+05   -1.7828202E+00
   3.5340618E-04   1.1180337E+05   -1.7822539E+00
   3.5503824E-04   1.1088918E+05   -1.7816873E+00
   3.5667785E-04   1.0998275E+05   -1.7811203E+00
   3.5832502E-04   1.0908402E+05   -1.7805530E+00
   3.5997981E-04   1.0819291E+05   -1.7799854E+00
   3.6164223E-04   1.0730936E+05   -1.7794175E+00
   3.6331233E-04   1.0643331E+05   -1.7788492E+00
   3.6499015E-04   1.0556469E+05   -1.7782807E+00
   3.6667571E-04   1.0470343E+05   -1.7777118E+00
   3.6836906E-04   1.0384946E+05   -1.7771427E+00
   3.7007022E-04   1.0300274E+05   -1.7765733E+00
   3.7177925E-04   1.0216318E+05   -1.7760036E+00
   3.7349616E-04   1.0133074E+05   -1.7754336E+00
   3.7522101E-04   1.0050534E+05   -1.7748633E+00
   3.7695382E-04   9.9686923E+04   -1.7742928E+00
   3.7869463E-04   9.8875434E+04   -1.7737221E+00
   3.8044348E-04   9.8070808E+04   -1.7731511E+00
   3.8220041E-04   9.7272987E+04   -1.7725798E+00
   3.8396545E-04   9.6481909E+04   -1.7720083E+00
   3.8573864E-04   9.5697517E+04   -1.7714366E+00
   3.8752002E-04   9.4919753E+04   -1.7708646E+00
   3.8930963E-04   9.4148557E+04   -1.7702924E+00
   3.9110750E-04   9.3383874E+04   -1.7697200E+00
   3.9291368E-04   9.2625646E+04   -1.7691474E+00
   3.9472820E-04   9.1873816E+04   -1.7685746E+00
   3.9655109E-04   9.1128330E+04   -1.7680016E+00
   3.9838241E-04   9.0389131E+04   -1.7674284E+00
   4.0022218E-04   8.9656165E+04   -1.7668551E+00
   4.0207045E-04   8.8929378E+04   -1.7662815E+00
   4.0392725E-04   8.8208716E+04   -1.7657078E+00
   4.0579263E-04   8.7494125E+04   -1.7651339E+00
   4.0766662E-04   8.6785553E+04   -1.7645598E+00
   4.0954927E-04   8.6082946E+04   -1.7639856E+00
   4.1144061E-04   8.5386254E+04   -1.7634112E+00
   4.1334068E-04   8.4695425E+04   -1.7628367E+00
   4.1524953E-04   8.4010407E+04   -1.7622621E+00
   4.1716720E-04   8.3331150E+04   -1.7616873E+00
   4.1909372E-04   8.2657604E+04   -1.7611124E+00
   4.2102914E-04   8.1989720E+04   -1.7605374E+00
   4.2297350E-04   8.1327447E+04   -1.7599623E+00
   4.2492683E-04   8.0670738E+04   -1.7593870E+00
   4.2688919E-04   8.0019544E+04   -1.7588117E+00
   4.2886061E-04   7.9373817E+04   -1.7582363E+00
   4.3084113E-04   7.8733509E+04   -1.7576607E+00
   4.3283080E-04   7.8098574E+04   -1.7570851E+00
   4.3482966E-04   7.7468965E+04   -1.7565094E+00
   4.3683775E-04   7.6844635E+04   -1.7559337E+00
   4.3885511E-04   7.6225539E+04   -1.7553579E+00
   4.4088179E-04   7.5611632E+04   -1.7547820E+00
   4.4291783E-04   7.5002867E+04   -1.7542061E+00
   4.4496327E-04   7.4399202E+04   -1.7536301E+00
   4.4701816E-04   7.3800590E+04   -1.7530541E+00
   4.4908253E-04   7.3206990E+04   -1.7524781E+00
   4.5115644E-04   7.2618357E+04   -1.7519020E+00
   4.5323993E-04   7.2034648E+04   -1.7513259E+00
   4.5533304E-04   7.1455820E+04   -1.7507498E+00
   4.5743582E-04   7.0881832E+04   -1.7501737E+00
   4.5954830E-04   7.0312642E+04   -1.7495975E+00
   4.6167054E-04   6.9748207E+04   -1.7490214E+00
   4.6380259E-04   6.9188486E+04   -1.7484453E+00
   4.6594448E-04   6.8633440E+04   -1.7478692E+00
   4.6809626E-04   6.8083027E+04   -1.7472931E+00
   4.7025797E-04   6.7537207E+04   -1.7467171E+00
   4.7242967E-04   6.6995941E+04   -1.7461411E+00
   4.7461140E-04   6.6459189E+04   -1.7455651E+00
   4.7680321E-04   6.5926912E+04   -1.7449892E+00
   4.7900514E-04   6.5399072E+04   -1.7444133E+00
   4.8121723E-04   6.4875631E+04   -1.7438375E+00
   4.8343954E-04   6.4356549E+04   -1.7432617E+00
   4.8567212E-04   6.3841790E+04   -1.7426861E+00
   4.8791500E-04   6.3331317E+04   -1.7421105E+00
   4.9016825E-04   6.2825092E+04   -1.7415349E+00
   4.9243189E-04   6.2323078E+04   -1.7409595E+00
   4.9470600E-04   6.1825240E+04   -1.7403841E+00
   4.9699060E-04   6.1331541E+04   -1.7398089E+00
   4.9928575E-04   6.0841945E+04   -1.7392338E+00
   5.0159151E-04   6.0356418E+04   -1.7386588E+00
   5.0390791E-04   5.9874924E+04   -1.7380838E+00
   5.0623501E-04   5.9397429E+04   -1.7375091E+00
   5.0857286E-04   5.8923897E+04   -1.7369344E+00
   5.1092150E-04   5.8454296E+04   -1.7363599E+00
   5.1328099E-04   5.7988590E+04   -1.7357855E+00
   5.1565137E-04   5.7526747E+04   -1.7352113E+00
   5.1803270E-04   5.7068733E+04   -1.7346373E+00
   5.2042503E-04   5.6614516E+04   -1.7340634E+00
   5.2282841E-04   5.6164062E+04   -1.7334896E+00
   5.2524289E-04   5.5717340E+04   -1.7329161E+00
   5.2766851E-04   5.5274316E+04   -1.7323427E+00
   5.3010534E-04   5.4834960E+04   -1.7317695E+00
   5.3255342E-04   5.4399240E+04   -1.7311965E+00
   5.3501281E-04   5.3967125E+04   -1.7306237E+00
   5.3748356E-04   5.3538583E+04   -1.7300511E+00
   5.3996571E-04   5.3113585E+04   -1.7294787E+00
   5.4245933E-04   5.2692099E+04   -1.7289065E+00
   5.4496446E-04   5.2274096E+04   -1.7283345E+00
   5.4748117E-04   5.1859545E+04   -1.7277628E+00
   5.5000949E-04   5.1448418E+04   -1.7271913E+00
   5.5254949E-04   5.1040684E+04   -1.7266200E+00
   5.5510123E-04   5.0636315E+04   -1.7260490E+00
   5.5766474E-04   5.0235281E+04   -1.7254782E+00
   5.6024010E-04   4.9837554E+04   -1.7249077E+00
   5.6282734E-04   4.9443107E+04   -1.7243375E+00
   5.6542654E-04   4.9051910E+04   -1.7237675E+00
   5.6803774E-04   4.8663936E+04   -1.7231978E+00
   5.7066099E-04   4.8279157E+04   -1.7226283E+00
   5.7329637E-04   4.7897547E+04   -1.7220592E+00
   5.7594391E-04   4.7519077E+04   -1.7214903E+00
   5.7860368E-04   4.7143722E+04   -1.7209218E+00
   5.8127573E-04   4.6771454E+04   -1.7203535E+00
   5.8396012E-04   4.6402247E+04   -1.7197856E+00
   5.8665691E-04   4.6036075E+04   -1.7192179E+00
   5.8936616E-04   4.5672912E+04   -1.7186506E+00
   5.9208791E-04   4.5312732E+04   -1.7180837E+00
   5.9482223E-04   4.4955510E+04   -1.7175170E+00
   5.9756919E-04   4.4601220E+04   -1.7169507E+00
   6.0032882E-04   4.4249838E+04   -1.7163847E+00
   6.0310120E-04   4.3901339E+04   -1.7158191E+00
   6.0588639E-04   4.3555698E+04   -1.7152538E+00
   6.0868443E-04   4.3212890E+04   -1.7146889E+00
   6.1149540E-04   4.2872893E+04   -1.7141244E+00
   6.1431935E-04   4.2535681E+04   -1.7135602E+00
   6.1715634E-04   4.2201231E+04   -1.7129964E+00
   6.2000644E-04   4.1869520E+04   -1.7124330E+00
   6.2286969E-04   4.1540523E+04   -1.7118700E+00
