#        a       HoverH0(a)       dlogHdloga_of_a(a)
   1.0000000E-04   1.1719601E+06   -1.8572245E+00
   1.0046181E-04   1.1619756E+06   -1.8567540E+00
   1.0092575E-04   1.1520786E+06   -1.8562826E+00
   1.0139184E-04   1.1422684E+06   -1.8558103E+00
   1.0186008E-04   1.1325442E+06   -1.8553370E+00
   1.0233048E-04   1.1229052E+06   -1.8548629E+00
   1.0280305E-04   1.1133507E+06   -1.8543878E+00
   1.0327781E-04   1.1038799E+06   -1.8539118E+00
   1.0375475E-04   1.0944921E+06   -1.8534349E+00
   1.0423390E-04   1.0851865E+06   -1.8529571E+00
   1.0471527E-04   1.0759624E+06   -1.8524784E+00
   1.0519885E-04   1.0668191E+06   -1.8519987E+00
   1.0568467E-04   1.0577558E+06   -1.8515182E+00
   1.0617274E-04   1.0487718E+06   -1.8510368E+00
   1.0666305E-04   1.0398664E+06   -1.8505545E+00
   1.0715563E-04   1.0310390E+06   -1.8500712E+00
   1.0765049E-04   1.0222887E+06   -1.8495871E+00
   1.0814763E-04   1.0136150E+06   -1.8491021E+00
   1.0864707E-04   1.0050171E+06   -1.8486162E+00
   1.0914881E-04   9.9649441E+05   -1.8481295E+00
   1.0965287E-04   9.8804619E+05   -1.8476418E+00
   1.1015926E-04   9.7967179E+05   -1.8471533E+00
   1.1066799E-04   9.7137056E+05   -1.8466639E+00
   1.1117906E-04   9.6314185E+05   -1.8461736E+00
   1.1169250E-04   9.5498500E+05   -1.8456824E+00
   1.1220831E-04   9.4689938E+05   -1.8451904E+00
   1.1272650E-04   9.3888434E+05   -1.8446975E+00
   1.1324708E-04   9.3093927E+05   -1.8442038E+00
   1.1377007E-04   9.2306353E+05   -1.8437092E+00
   1.1429547E-04   9.1525651E+05   -1.8432137E+00
   1.1482330E-04   9.0751759E+05   -1.8427174E+00
   1.1535356E-04   8.9984616E+05   -1.8422203E+00
   1.1588628E-04   8.9224163E+05   -1.8417223E+00
   1.1642145E-04   8.8470340E+05   -1.8412234E+00
   1.1695910E-04   8.7723087E+05   -1.8407237E+00
   1.1749923E-04   8.6982346E+05   -1.8402232E+00
   1.1804185E-04   8.6248059E+05   -1.8397218E+00
   1.1858698E-04   8.5520169E+05   -1.8392197E+00
   1.1913463E-04   8.4798618E+05   -1.8387166E+00
   1.1968481E-04   8.4083349E+05   -1.8382128E+00
   1.2023752E-04   8.3374308E+05   -1.8377082E+00
   1.2079279E-04   8.2671438E+05   -1.8372027E+00
   1.2135063E-04   8.1974685E+05   -1.8366964E+00
   1.2191104E-04   8.1283994E+05   -1.8361893E+00
   1.2247403E-04   8.0599311E+05   -1.8356814E+00
   1.2303963E-04   7.9920582E+05   -1.8351727E+00
   1.2360784E-04   7.9247755E+05   -1.8346632E+00
   1.2417868E-04   7.8580776E+05   -1.8341529E+00
   1.2475215E-04   7.7919595E+05   -1.8336418E+00
   1.2532826E-04   7.7264158E+05   -1.8331299E+00
   1.2590704E-04   7.6614416E+05   -1.8326173E+00
   1.2648850E-04   7.5970318E+05   -1.8321038E+00
   1.2707263E-04   7.5331812E+05   -1.8315896E+00
   1.2765947E-04   7.4698850E+05   -1.8310746E+00
   1.2824901E-04   7.4071383E+05   -1.8305588E+00
   1.2884128E-04   7.3449361E+05   -1.8300423E+00
   1.2943628E-04   7.2832736E+05   -1.8295250E+00
   1.3003403E-04   7.2221460E+05   -1.8290069E+00
   1.3063454E-04   7.1615485E+05   -1.8284881E+00
   1.3123783E-04   7.1014765E+05   -1.8279686E+00
   1.3184390E-04   7.0419252E+05   -1.8274483E+00
   1.3245277E-04   6.9828900E+05   -1.8269272E+00
   1.3306445E-04   6.9243664E+05   -1.8264054E+00
   1.3367895E-04   6.8663498E+05   -1.8258829E+00
   1.3429630E-04   6.8088357E+05   -1.8253596E+00
   1.3491649E-04   6.7518197E+05   -1.8248356E+00
   1.3553955E-04   6.6952972E+05   -1.8243109E+00
   1.3616548E-04   6.6392640E+05   -1.8237855E+00
   1.3679431E-04   6.5837158E+05   -1.8232594E+00
   1.3742604E-04   6.5286481E+05   -1.8227325E+00
   1.3806069E-04   6.4740567E+05   -1.8222050E+00
   1.3869827E-04   6.4199374E+05   -1.8216767E+00
   1.3933879E-04   6.3662860E+05   -1.8211477E+00
   1.3998227E-04   6.3130984E+05   -1.8206181E+00
   1.4062872E-04   6.2603704E+05   -1.8200877E+00
   1.4127816E-04   6.2080980E+05   -1.8195567E+00
   1.4193060E-04   6.1562771E+05   -1.8190250E+00
   1.4258605E-04   6.1049038E+05   -1.8184926E+00
   1.4324453E-04   6.0539740E+05   -1.8179595E+00
   1.4390605E-04   6.0034839E+05   -1.8174258E+00
   1.4457062E-04   5.9534295E+05   -1.8168914E+00
   1.4523826E-04   5.9038070E+05   -1.8163563E+00
   1.4590899E-04   5.8546125E+05   -1.8158206E+00
   1.4658281E-04   5.8058423E+05   -1.8152843E+00
   1.4725974E-04   5.7574926E+05   -1.8147473E+00
   1.4793981E-04   5.7095597E+05   -1.8142096E+00
   1.4862301E-04   5.6620398E+05   -1.8136713E+00
   1.4930936E-04   5.6149294E+05   -1.8131324E+00
   1.4999889E-04   5.5682248E+05   -1.8125929E+00
   1.5069160E-04   5.5219224E+05   -1.8120527E+00
   1.5138751E-04   5.4760187E+05   -1.8115119E+00
   1.5208663E-04   5.4305102E+05   -1.8109705E+00
   1.5278899E-04   5.3853932E+05   -1.8104285E+00
   1.5349458E-04   5.3406645E+05   -1.8098859E+00
   1.5420343E-04   5.2963205E+05   -1.8093427E+00
   1.5491556E-04   5.2523578E+05   -1.8087989E+00
   1.5563098E-04   5.2087731E+05   -1.8082545E+00
   1.5634970E-04   5.1655631E+05   -1.8077095E+00
   1.5707174E-04   5.1227244E+05   -1.8071639E+00
   1.5779711E-04   5.0802537E+05   -1.8066178E+00
   1.5852584E-04   5.0381478E+05   -1.8060711E+00
   1.5925792E-04   4.9964035E+05   -1.8055238E+00
   1.5999339E-04   4.9550175E+05   -1.8049760E+00
   1.6073226E-04   4.9139868E+05   -1.8044276E+00
   1.6147454E-04   4.8733081E+05   -1.8038787E+00
   1.6222024E-04   4.8329784E+05   -1.8033292E+00
   1.6296939E-04   4.7929947E+05   -1.8027791E+00
   1.6372200E-04   4.7533538E+05   -1.8022286E+00
   1.6447809E-04   4.7140526E+05   -1.8016775E+00
   1.6523767E-04   4.6750883E+05   -1.8011259E+00
   1.6600075E-04   4.6364579E+05   -1.8005737E+00
   1.6676736E-04   4.5981584E+05   -1.8000211E+00
   1.6753751E-04   4.5601868E+05   -1.7994679E+00
   1.6831122E-04   4.5225404E+05   -1.7989143E+00
   1.6908849E-04   4.4852162E+05   -1.7983601E+00
   1.6986936E-04   4.4482114E+05   -1.7978054E+00
   1.7065384E-04   4.4115231E+05   -1.7972503E+00
   1.7144193E-04   4.3751487E+05   -1.7966947E+00
   1.7223367E-04   4.3390853E+05   -1.7961385E+00
   1.7302906E-04   4.3033302E+05   -1.7955820E+00
   1.7382813E-04   4.2678806E+05   -1.7950249E+00
   1.7463089E-04   4.2327340E+05   -1.7944674E+00
   1.7543735E-04   4.1978876E+05   -1.7939094E+00
   1.7624754E-04   4.1633388E+05   -1.7933510E+00
   1.7706147E-04   4.1290849E+05   -1.7927921E+00
   1.7787916E-04   4.0951234E+05   -1.7922328E+00
   1.7870062E-04   4.0614518E+05   -1.7916731E+00
   1.7952588E-04   4.0280673E+05   -1.7911129E+00
   1.8035495E-04   3.9949676E+05   -1.7905523E+00
   1.8118785E-04   3.9621501E+05   -1.7899913E+00
   1.8202459E-04   3.9296124E+05   -1.7894298E+00
   1.8286520E-04   3.8973519E+05   -1.7888680E+00
   1.8370969E-04   3.8653664E+05   -1.7883057E+00
   1.8455808E-04   3.8336532E+05   -1.7877431E+00
   1.8541039E-04   3.8022101E+05   -1.7871800E+00
   1.8626663E-04   3.7710347E+05   -1.7866166E+00
   1.8712683E-04   3.7401246E+05   -1.7860528E+00
   1.8799100E-04   3.7094776E+05   -1.7854886E+00
   1.8885917E-04   3.6790912E+05   -1.7849241E+00
   1.8973134E-04   3.6489632E+05   -1.7843592E+00
   1.9060754E-04   3.6190913E+05   -1.7837939E+00
   1.9148778E-04   3.5894734E+05   -1.7832283E+00
   1.9237209E-04   3.5601071E+05   -1.7826623E+00
   1.9326049E-04   3.5309902E+05   -1.7820960E+00
   1.9415299E-04   3.5021207E+05   -1.7815294E+00
   1.9504960E-04   3.4734963E+05   -1.7809624E+00
   1.9595036E-04   3.4451148E+05   -1.7803951E+00
   1.9685528E-04   3.4169742E+05   -1.7798275E+00
   1.9776438E-04   3.3890722E+05   -1.7792595E+00
   1.9867768E-04   3.3614070E+05   -1.7786913E+00
   1.9959519E-04   3.3339763E+05   -1.7781228E+00
   2.0051694E-04   3.3067781E+05   -1.7775539E+00
   2.0144295E-04   3.2798103E+05   -1.7769848E+00
   2.0237324E-04   3.2530711E+05   -1.7764154E+00
   2.0330782E-04   3.2265583E+05   -1.7758457E+00
   2.0424671E-04   3.2002700E+05   -1.7752758E+00
   2.0518995E-04   3.1742042E+05   -1.7747055E+00
   2.0613754E-04   3.1483590E+05   -1.7741351E+00
   2.0708950E-04   3.1227324E+05   -1.7735643E+00
   2.0804586E-04   3.0973226E+05   -1.7729933E+00
   2.0900664E-04   3.0721276E+05   -1.7724221E+00
   2.0997185E-04   3.0471456E+05   -1.7718507E+00
   2.1094152E-04   3.0223747E+05   -1.7712790E+00
   2.1191567E-04   2.9978130E+05   -1.7707070E+00
   2.1289432E-04   2.9734588E+05   -1.7701349E+00
   2.1387749E-04   2.9493103E+05   -1.7695626E+00
   2.1486520E-04   2.9253655E+05   -1.7689900E+00
   2.1585747E-04   2.9016228E+05   -1.7684173E+00
   2.1685432E-04   2.8780805E+05   -1.7678443E+00
   2.1785578E-04   2.8547366E+05   -1.7672712E+00
   2.1886186E-04   2.8315896E+05   -1.7666978E+00
   2.1987259E-04   2.8086377E+05   -1.7661243E+00
   2.2088798E-04   2.7858792E+05   -1.7655507E+00
   2.2190807E-04   2.7633124E+05   -1.7649768E+00
   2.2293286E-04   2.7409357E+05   -1.7644028E+00
   2.2396239E-04   2.7187473E+05   -1.7638287E+00
   2.2499667E-04   2.6967457E+05   -1.7632544E+00
   2.2603573E-04   2.6749292E+05   -1.7626800E+00
   2.2707958E-04   2.6532963E+05   -1.7621054E+00
   2.2812826E-04   2.6318453E+05   -1.7615307E+00
   2.2918178E-04   2.6105746E+05   -1.7609559E+00
   2.3024017E-04   2.5894826E+05   -1.7603810E+00
   2.3130344E-04   2.5685679E+05   -1.7598059E+00
   2.3237162E-04   2.5478289E+05   -1.7592308E+00
   2.3344474E-04   2.5272640E+05   -1.7586555E+00
   2.3452281E-04   2.5068718E+05   -1.7580802E+00
   2.3560586E-04   2.4866506E+05   -1.7575048E+00
   2.3669392E-04   2.4665992E+05   -1.7569293E+00
   2.3778699E-04   2.4467159E+05   -1.7563537E+00
   2.3888512E-04   2.4269993E+05   -1.7557780E+00
   2.3998831E-04   2.4074480E+05   -1.7552023E+00
   2.4109661E-04   2.3880605E+05   -1.7546266E+00
   2.4221001E-04   2.3688355E+05   -1.7540507E+00
   2.4332857E-04   2.3497714E+05   -1.7534749E+00
   2.4445228E-04   2.3308670E+05   -1.7528990E+00
   2.4558119E-04   2.3121208E+05   -1.7523231E+00
   2.4671531E-04   2.2935314E+05   -1.7517471E+00
   2.4785467E-04   2.2750975E+05   -1.7511711E+00
   2.4899928E-04   2.2568178E+05   -1.7505952E+00
   2.5014919E-04   2.2386909E+05   -1.7500192E+00
   2.5130440E-04   2.2207155E+05   -1.7494432E+00
   2.5246495E-04   2.2028903E+05   -1.7488672E+00
   2.5363086E-04   2.1852139E+05   -1.7482912E+00
   2.5480216E-04   2.1676852E+05   -1.7477153E+00
   2.5597886E-04   2.1503027E+05   -1.7471393E+00
   2.5716100E-04   2.1330653E+05   -1.7465634E+00
   2.5834859E-04   2.1159717E+05   -1.7459876E+00
   2.5954168E-04   2.0990206E+05   -1.7454117E+00
   2.6074027E-04   2.0822109E+05   -1.7448360E+00
   2.6194439E-04   2.0655412E+05   -1.7442603E+00
   2.6315408E-04   2.0490105E+05   -1.7436846E+00
   2.6436935E-04   2.0326174E+05   -1.7431090E+00
   2.6559024E-04   2.0163609E+05   -1.7425335E+00
   2.6681676E-04   2.0002396E+05   -1.7419580E+00
   2.6804895E-04   1.9842525E+05   -1.7413827E+00
   2.6928683E-04   1.9683984E+05   -1.7408074E+00
   2.7053042E-04   1.9526762E+05   -1.7402322E+00
   2.7177976E-04   1.9370846E+05   -1.7396572E+00
   2.7303487E-04   1.9216227E+05   -1.7390822E+00
   2.7429577E-04   1.9062892E+05   -1.7385074E+00
   2.7556250E-04   1.8910831E+05   -1.7379327E+00
   2.7683507E-04   1.8760032E+05   -1.7373581E+00
   2.7811353E-04   1.8610485E+05   -1.7367836E+00
   2.7939788E-04   1.8462179E+05   -1.7362093E+00
   2.8068817E-04   1.8315104E+05   -1.7356351E+00
   2.8198442E-04   1.8169248E+05   -1.7350611E+00
   2.8328665E-04   1.8024602E+05   -1.7344872E+00
   2.8459490E-04   1.7881154E+05   -1.7339135E+00
   2.8590919E-04   1.7738894E+05   -1.7333400E+00
   2.8722955E-04   1.7597813E+05   -1.7327666E+00
   2.8855600E-04   1.7457901E+05   -1.7321935E+00
   2.8988859E-04   1.7319146E+05   -1.7316205E+00
   2.9122732E-04   1.7181539E+05   -1.7310477E+00
   2.9257224E-04   1.7045071E+05   -1.7304751E+00
   2.9392337E-04   1.6909731E+05   -1.7299027E+00
   2.9528074E-04   1.6775510E+05   -1.7293305E+00
   2.9664438E-04   1.6642399E+05   -1.7287586E+00
   2.9801431E-04   1.6510387E+05   -1.7281868E+00
   2.9939057E-04   1.6379465E+05   -1.7276153E+00
   3.0077319E-04   1.6249624E+05   -1.7270441E+00
   3.0216219E-04   1.6120855E+05   -1.7264730E+00
   3.0355761E-04   1.5993149E+05   -1.7259022E+00
   3.0495947E-04   1.5866496E+05   -1.7253317E+00
   3.0636780E-04   1.5740887E+05   -1.7247614E+00
   3.0778264E-04   1.5616314E+05   -1.7241914E+00
   3.0920401E-04   1.5492767E+05   -1.7236217E+00
   3.1063195E-04   1.5370238E+05   -1.7230522E+00
   3.1206648E-04   1.5248718E+05   -1.7224831E+00
   3.1350764E-04   1.5128198E+05   -1.7219142E+00
   3.1495545E-04   1.5008671E+05   -1.7213456E+00
   3.1640994E-04   1.4890126E+05   -1.7207773E+00
   3.1787116E-04   1.4772557E+05   -1.7202093E+00
   3.1933912E-04   1.4655954E+05   -1.7196416E+00
   3.2081386E-04   1.4540310E+05   -1.7190742E+00
   3.2229541E-04   1.4425616E+05   -1.7185072E+00
   3.2378381E-04   1.4311864E+05   -1.7179405E+00
   3.2527908E-04   1.4199046E+05   -1.7173741E+00
   3.2678125E-04   1.4087154E+05   -1.7168081E+00
   3.2829036E-04   1.3976180E+05   -1.7162424E+00
   3.2980644E-04   1.3866117E+05   -1.7156770E+00
   3.3132952E-04   1.3756956E+05   -1.7151121E+00
   3.3285963E-04   1.3648690E+05   -1.7145474E+00
   3.3439681E-04   1.3541312E+05   -1.7139832E+00
   3.3594109E-04   1.3434813E+05   -1.7134193E+00
   3.3749250E-04   1.3329186E+05   -1.7128558E+00
   3.3905108E-04   1.3224424E+05   -1.7122927E+00
   3.4061685E-04   1.3120520E+05   -1.7117300E+00
   3.4218986E-04   1.3017465E+05   -1.7111677E+00
   3.4377013E-04   1.2915254E+05   -1.7106057E+00
   3.4535769E-04   1.2813878E+05   -1.7100442E+00
   3.4695259E-04   1.2713331E+05   -1.7094831E+00
   3.4855485E-04   1.2613605E+05   -1.7089224E+00
   3.5016452E-04   1.2514694E+05   -1.7083622E+00
   3.5178161E-04   1.2416590E+05   -1.7078023E+00
   3.5340618E-04   1.2319288E+05   -1.7072429E+00
   3.5503824E-04   1.2222779E+05   -1.7066840E+00
   3.5667785E-04   1.2127058E+05   -1.7061254E+00
   3.5832502E-04   1.2032117E+05   -1.7055674E+00
   3.5997981E-04   1.1937950E+05   -1.7050098E+00
   3.6164223E-04   1.1844551E+05   -1.7044526E+00
   3.6331233E-04   1.1751913E+05   -1.7038960E+00
   3.6499015E-04   1.1660028E+05   -1.7033397E+00
   3.6667571E-04   1.1568892E+05   -1.7027840E+00
   3.6836906E-04   1.1478498E+05   -1.7022288E+00
   3.7007022E-04   1.1388839E+05   -1.7016740E+00
   3.7177925E-04   1.1299909E+05   -1.7011197E+00
   3.7349616E-04   1.1211703E+05   -1.7005660E+00
   3.7522101E-04   1.1124213E+05   -1.7000127E+00
   3.7695382E-04   1.1037434E+05   -1.6994600E+00
   3.7869463E-04   1.0951360E+05   -1.6989077E+00
   3.8044348E-04   1.0865985E+05   -1.6983560E+00
   3.8220041E-04   1.0781303E+05   -1.6978048E+00
   3.8396545E-04   1.0697307E+05   -1.6972541E+00
   3.8573864E-04   1.0613994E+05   -1.6967040E+00
   3.8752002E-04   1.0531355E+05   -1.6961544E+00
   3.8930963E-04   1.0449387E+05   -1.6956054E+00
   3.9110750E-04   1.0368083E+05   -1.6950569E+00
   3.9291368E-04   1.0287437E+05   -1.6945089E+00
   3.9472820E-04   1.0207444E+05   -1.6939615E+00
   3.9655109E-04   1.0128099E+05   -1.6934147E+00
   3.9838241E-04   1.0049396E+05   -1.6928685E+00
   4.0022218E-04   9.9713300E+04   -1.6923228E+00
   4.0207045E-04   9.8938950E+04   -1.6917777E+00
   4.0392725E-04   9.8170860E+04   -1.6912332E+00
   4.0579263E-04   9.7408977E+04   -1.6906892E+00
   4.0766662E-04   9.6653249E+04   -1.6901459E+00
   4.0954927E-04   9.5903624E+04   -1.6896032E+00
   4.1144061E-04   9.5160050E+04   -1.6890610E+00
   4.1334068E-04   9.4422478E+04   -1.6885195E+00
   4.1524953E-04   9.3690856E+04   -1.6879786E+00
   4.1716720E-04   9.2965134E+04   -1.6874383E+00
   4.1909372E-04   9.2245263E+04   -1.6868986E+00
   4.2102914E-04   9.1531194E+04   -1.6863596E+00
   4.2297350E-04   9.0822878E+04   -1.6858212E+00
   4.2492683E-04   9.0120267E+04   -1.6852834E+00
   4.2688919E-04   8.9423313E+04   -1.6847463E+00
   4.2886061E-04   8.8731968E+04   -1.6842098E+00
   4.3084113E-04   8.8046186E+04   -1.6836739E+00
   4.3283080E-04   8.7365919E+04   -1.6831387E+00
   4.3482966E-04   8.6691122E+04   -1.6826042E+00
   4.3683775E-04   8.6021749E+04   -1.6820703E+00
   4.3885511E-04   8.5357753E+04   -1.6815371E+00
   4.4088179E-04   8.4699092E+04   -1.6810046E+00
   4.4291783E-04   8.4045718E+04   -1.6804727E+00
   4.4496327E-04   8.3397590E+04   -1.6799416E+00
   4.4701816E-04   8.2754661E+04   -1.6794111E+00
   4.4908253E-04   8.2116890E+04   -1.6788813E+00
   4.5115644E-04   8.1484232E+04   -1.6783522E+00
   4.5323993E-04   8.0856646E+04   -1.6778238E+00
   4.5533304E-04   8.0234089E+04   -1.6772960E+00
   4.5743582E-04   7.9616519E+04   -1.6767690E+00
   4.5954830E-04   7.9003894E+04   -1.6762428E+00
   4.6167054E-04   7.8396172E+04   -1.6757172E+00
   4.6380259E-04   7.7793314E+04   -1.6751923E+00
   4.6594448E-04   7.7195278E+04   -1.6746682E+00
   4.6809626E-04   7.6602025E+04   -1.6741448E+00
   4.7025797E-04   7.6013514E+04   -1.6736221E+00
   4.7242967E-04   7.5429706E+04   -1.6731001E+00
   4.7461140E-04   7.4850561E+04   -1.6725789E+00
   4.7680321E-04   7.4276041E+04   -1.6720585E+00
   4.7900514E-04   7.3706108E+04   -1.6715387E+00
   4.8121723E-04   7.3140723E+04   -1.6710198E+00
   4.8343954E-04   7.2579848E+04   -1.6705016E+00
   4.8567212E-04   7.2023446E+04   -1.6699841E+00
   4.8791500E-04   7.1471480E+04   -1.6694674E+00
   4.9016825E-04   7.0923913E+04   -1.6689515E+00
   4.9243189E-04   7.0380708E+04   -1.6684363E+00
   4.9470600E-04   6.9841829E+04   -1.6679219E+00
   4.9699060E-04   6.9307240E+04   -1.6674083E+00
   4.9928575E-04   6.8776906E+04   -1.6668955E+00
   5.0159151E-04   6.8250791E+04   -1.6663834E+00
   5.0390791E-04   6.7728860E+04   -1.6658722E+00
   5.0623501E-04   6.7211079E+04   -1.6653617E+00
   5.0857286E-04   6.6697412E+04   -1.6648520E+00
   5.1092150E-04   6.6187827E+04   -1.6643431E+00
   5.1328099E-04   6.5682289E+04   -1.6638351E+00
   5.1565137E-04   6.5180765E+04   -1.6633278E+00
   5.1803270E-04   6.4683222E+04   -1.6628213E+00
   5.2042503E-04   6.4189626E+04   -1.6623157E+00
   5.2282841E-04   6.3699945E+04   -1.6618109E+00
   5.2524289E-04   6.3214146E+04   -1.6613068E+00
   5.2766851E-04   6.2732198E+04   -1.6608036E+00
   5.3010534E-04   6.2254068E+04   -1.6603013E+00
   5.3255342E-04   6.1779726E+04   -1.6597997E+00
   5.3501281E-04   6.1309139E+04   -1.6592990E+00
   5.3748356E-04   6.0842277E+04   -1.6587992E+00
   5.3996571E-04   6.0379109E+04   -1.6583001E+00
   5.4245933E-04   5.9919604E+04   -1.6578019E+00
   5.4496446E-04   5.9463733E+04   -1.6573046E+00
   5.4748117E-04   5.9011466E+04   -1.6568081E+00
   5.5000949E-04   5.8562772E+04   -1.6563125E+00
   5.5254949E-04   5.8117622E+04   -1.6558177E+00
   5.5510123E-04   5.7675988E+04   -1.6553237E+00
   5.5766474E-04   5.7237839E+04   -1.6548307E+00
   5.6024010E-04   5.6803148E+04   -1.6543384E+00
   5.6282734E-04   5.6371886E+04   -1.6538471E+00
   5.6542654E-04   5.5944025E+04   -1.6533566E+00
   5.6803774E-04   5.5519536E+04   -1.6528670E+00
   5.7066099E-04   5.5098393E+04   -1.6523783E+00
   5.7329637E-04   5.4680567E+04   -1.6518904E+00
   5.7594391E-04   5.4266032E+04   -1.6514035E+00
   5.7860368E-04   5.3854760E+04   -1.6509174E+00
   5.8127573E-04   5.3446724E+04   -1.6504322E+00
   5.8396012E-04   5.3041899E+04   -1.6499478E+00
   5.8665691E-04   5.2640257E+04   -1.6494644E+00
   5.8936616E-04   5.2241772E+04   -1.6489819E+00
   5.9208791E-04   5.1846420E+04   -1.6485003E+00
   5.9482223E-04   5.1454173E+04   -1.6480195E+00
   5.9756919E-04   5.1065007E+04   -1.6475397E+00
   6.0032882E-04   5.0678896E+04   -1.6470608E+00
   6.0310120E-04   5.0295816E+04   -1.6465827E+00
   6.0588639E-04   4.9915741E+04   -1.6461056E+00
   6.0868443E-04   4.9538647E+04   -1.6456294E+00
   6.1149540E-04   4.9164509E+04   -1.6451541E+00
   6.1431935E-04   4.8793304E+04   -1.6446798E+00
   6.1715634E-04   4.8425008E+04   -1.6442063E+00
   6.2000644E-04   4.8059596E+04   -1.6437338E+00
   6.2286969E-04   4.7697045E+04   -1.6432622E+00
