#        a       HoverH0(a)       dlogHdloga_of_a(a)
   1.0000000E-04   1.0703115E+06   -1.8705137E+00
   1.0046181E-04   1.0611279E+06   -1.8700711E+00
   1.0092575E-04   1.0520252E+06   -1.8696275E+00
   1.0139184E-04   1.0430028E+06   -1.8691830E+00
   1.0186008E-04   1.0340599E+06   -1.8687374E+00
   1.0233048E-04   1.0251957E+06   -1.8682909E+00
   1.0280305E-04   1.0164097E+06   -1.8678434E+00
   1.0327781E-04   1.0077010E+06   -1.8673949E+00
   1.0375475E-04   9.9906896E+05   -1.8669455E+00
   1.0423390E-04   9.9051295E+05   -1.8664951E+00
   1.0471527E-04   9.8203225E+05   -1.8660437E+00
   1.0519885E-04   9.7362619E+05   -1.8655914E+00
   1.0568467E-04   9.6529410E+05   -1.8651381E+00
   1.0617274E-04   9.5703532E+05   -1.8646838E+00
   1.0666305E-04   9.4884918E+05   -1.8642286E+00
   1.0715563E-04   9.4073504E+05   -1.8637724E+00
   1.0765049E-04   9.3269225E+05   -1.8633152E+00
   1.0814763E-04   9.2472018E+05   -1.8628571E+00
   1.0864707E-04   9.1681818E+05   -1.8623981E+00
   1.0914881E-04   9.0898563E+05   -1.8619381E+00
   1.0965287E-04   9.0122190E+05   -1.8614771E+00
   1.1015926E-04   8.9352639E+05   -1.8610152E+00
   1.1066799E-04   8.8589848E+05   -1.8605523E+00
   1.1117906E-04   8.7833755E+05   -1.8600885E+00
   1.1169250E-04   8.7084303E+05   -1.8596238E+00
   1.1220831E-04   8.6341430E+05   -1.8591581E+00
   1.1272650E-04   8.5605078E+05   -1.8586915E+00
   1.1324708E-04   8.4875188E+05   -1.8582239E+00
   1.1377007E-04   8.4151704E+05   -1.8577555E+00
   1.1429547E-04   8.3434566E+05   -1.8572860E+00
   1.1482330E-04   8.2723720E+05   -1.8568157E+00
   1.1535356E-04   8.2019107E+05   -1.8563444E+00
   1.1588628E-04   8.1320673E+05   -1.8558722E+00
   1.1642145E-04   8.0628362E+05   -1.8553991E+00
   1.1695910E-04   7.9942119E+05   -1.8549250E+00
   1.1749923E-04   7.9261890E+05   -1.8544501E+00
   1.1804185E-04   7.8587621E+05   -1.8539742E+00
   1.1858698E-04   7.7919260E+05   -1.8534974E+00
   1.1913463E-04   7.7256752E+05   -1.8530197E+00
   1.1968481E-04   7.6600046E+05   -1.8525411E+00
   1.2023752E-04   7.5949090E+05   -1.8520616E+00
   1.2079279E-04   7.5303832E+05   -1.8515812E+00
   1.2135063E-04   7.4664222E+05   -1.8510999E+00
   1.2191104E-04   7.4030209E+05   -1.8506177E+00
   1.2247403E-04   7.3401743E+05   -1.8501345E+00
   1.2303963E-04   7.2778774E+05   -1.8496505E+00
   1.2360784E-04   7.2161254E+05   -1.8491657E+00
   1.2417868E-04   7.1549133E+05   -1.8486799E+00
   1.2475215E-04   7.0942364E+05   -1.8481932E+00
   1.2532826E-04   7.0340897E+05   -1.8477057E+00
   1.2590704E-04   6.9744688E+05   -1.8472172E+00
   1.2648850E-04   6.9153687E+05   -1.8467279E+00
   1.2707263E-04   6.8567849E+05   -1.8462378E+00
   1.2765947E-04   6.7987128E+05   -1.8457467E+00
   1.2824901E-04   6.7411478E+05   -1.8452548E+00
   1.2884128E-04   6.6840853E+05   -1.8447620E+00
   1.2943628E-04   6.6275209E+05   -1.8442684E+00
   1.3003403E-04   6.5714502E+05   -1.8437739E+00
   1.3063454E-04   6.5158687E+05   -1.8432786E+00
   1.3123783E-04   6.4607721E+05   -1.8427824E+00
   1.3184390E-04   6.4061560E+05   -1.8422853E+00
   1.3245277E-04   6.3520161E+05   -1.8417874E+00
   1.3306445E-04   6.2983483E+05   -1.8412887E+00
   1.3367895E-04   6.2451483E+05   -1.8407891E+00
   1.3429630E-04   6.1924119E+05   -1.8402887E+00
   1.3491649E-04   6.1401350E+05   -1.8397874E+00
   1.3553955E-04   6.0883134E+05   -1.8392853E+00
   1.3616548E-04   6.0369433E+05   -1.8387824E+00
   1.3679431E-04   5.9860204E+05   -1.8382787E+00
   1.3742604E-04   5.9355409E+05   -1.8377741E+00
   1.3806069E-04   5.8855008E+05   -1.8372688E+00
   1.3869827E-04   5.8358961E+05   -1.8367626E+00
   1.3933879E-04   5.7867231E+05   -1.8362556E+00
   1.3998227E-04   5.7379777E+05   -1.8357478E+00
   1.4062872E-04   5.6896563E+05   -1.8352392E+00
   1.4127816E-04   5.6417551E+05   -1.8347298E+00
   1.4193060E-04   5.5942703E+05   -1.8342196E+00
   1.4258605E-04   5.5471982E+05   -1.8337086E+00
   1.4324453E-04   5.5005351E+05   -1.8331968E+00
   1.4390605E-04   5.4542774E+05   -1.8326842E+00
   1.4457062E-04   5.4084216E+05   -1.8321709E+00
   1.4523826E-04   5.3629639E+05   -1.8316568E+00
   1.4590899E-04   5.3179010E+05   -1.8311419E+00
   1.4658281E-04   5.2732292E+05   -1.8306262E+00
   1.4725974E-04   5.2289451E+05   -1.8301097E+00
   1.4793981E-04   5.1850452E+05   -1.8295925E+00
   1.4862301E-04   5.1415262E+05   -1.8290746E+00
   1.4930936E-04   5.0983845E+05   -1.8285559E+00
   1.4999889E-04   5.0556170E+05   -1.8280364E+00
   1.5069160E-04   5.0132203E+05   -1.8275162E+00
   1.5138751E-04   4.9711910E+05   -1.8269952E+00
   1.5208663E-04   4.9295259E+05   -1.8264735E+00
   1.5278899E-04   4.8882217E+05   -1.8259511E+00
   1.5349458E-04   4.8472754E+05   -1.8254279E+00
   1.5420343E-04   4.8066836E+05   -1.8249040E+00
   1.5491556E-04   4.7664432E+05   -1.8243794E+00
   1.5563098E-04   4.7265512E+05   -1.8238540E+00
   1.5634970E-04   4.6870044E+05   -1.8233280E+00
   1.5707174E-04   4.6477997E+05   -1.8228012E+00
   1.5779711E-04   4.6089342E+05   -1.8222737E+00
   1.5852584E-04   4.5704048E+05   -1.8217455E+00
   1.5925792E-04   4.5322085E+05   -1.8212167E+00
   1.5999339E-04   4.4943424E+05   -1.8206871E+00
   1.6073226E-04   4.4568035E+05   -1.8201568E+00
   1.6147454E-04   4.4195890E+05   -1.8196259E+00
   1.6222024E-04   4.3826960E+05   -1.8190942E+00
   1.6296939E-04   4.3461216E+05   -1.8185619E+00
   1.6372200E-04   4.3098629E+05   -1.8180290E+00
   1.6447809E-04   4.2739173E+05   -1.8174953E+00
   1.6523767E-04   4.2382819E+05   -1.8169610E+00
   1.6600075E-04   4.2029540E+05   -1.8164260E+00
   1.6676736E-04   4.1679309E+05   -1.8158904E+00
   1.6753751E-04   4.1332097E+05   -1.8153541E+00
   1.6831122E-04   4.0987880E+05   -1.8148172E+00
   1.6908849E-04   4.0646630E+05   -1.8142796E+00
   1.6986936E-04   4.0308321E+05   -1.8137414E+00
   1.7065384E-04   3.9972927E+05   -1.8132025E+00
   1.7144193E-04   3.9640422E+05   -1.8126631E+00
   1.7223367E-04   3.9310781E+05   -1.8121230E+00
   1.7302906E-04   3.8983978E+05   -1.8115823E+00
   1.7382813E-04   3.8659988E+05   -1.8110409E+00
   1.7463089E-04   3.8338787E+05   -1.8104990E+00
   1.7543735E-04   3.8020349E+05   -1.8099565E+00
   1.7624754E-04   3.7704651E+05   -1.8094133E+00
   1.7706147E-04   3.7391667E+05   -1.8088696E+00
   1.7787916E-04   3.7081374E+05   -1.8083252E+00
   1.7870062E-04   3.6773749E+05   -1.8077803E+00
   1.7952588E-04   3.6468767E+05   -1.8072348E+00
   1.8035495E-04   3.6166406E+05   -1.8066888E+00
   1.8118785E-04   3.5866642E+05   -1.8061421E+00
   1.8202459E-04   3.5569452E+05   -1.8055949E+00
   1.8286520E-04   3.5274813E+05   -1.8050471E+00
   1.8370969E-04   3.4982703E+05   -1.8044988E+00
   1.8455808E-04   3.4693101E+05   -1.8039499E+00
   1.8541039E-04   3.4405982E+05   -1.8034005E+00
   1.8626663E-04   3.4121327E+05   -1.8028506E+00
   1.8712683E-04   3.3839112E+05   -1.8023001E+00
   1.8799100E-04   3.3559316E+05   -1.8017490E+00
   1.8885917E-04   3.3281918E+05   -1.8011975E+00
   1.8973134E-04   3.3006898E+05   -1.8006454E+00
   1.9060754E-04   3.2734233E+05   -1.8000928E+00
   1.9148778E-04   3.2463903E+05   -1.7995397E+00
   1.9237209E-04   3.2195888E+05   -1.7989861E+00
   1.9326049E-04   3.1930167E+05   -1.7984320E+00
   1.9415299E-04   3.1666720E+05   -1.7978774E+00
   1.9504960E-04   3.1405527E+05   -1.7973223E+00
   1.9595036E-04   3.1146568E+05   -1.7967667E+00
   1.9685528E-04   3.0889823E+05   -1.7962106E+00
   1.9776438E-04   3.0635273E+05   -1.7956541E+00
   1.9867768E-04   3.0382899E+05   -1.7950971E+00
   1.9959519E-04   3.0132681E+05   -1.7945396E+00
   2.0051694E-04   2.9884601E+05   -1.7939817E+00
   2.0144295E-04   2.9638640E+05   -1.7934233E+00
   2.0237324E-04   2.9394778E+05   -1.7928645E+00
   2.0330782E-04   2.9152998E+05   -1.7923052E+00
   2.0424671E-04   2.8913281E+05   -1.7917455E+00
   2.0518995E-04   2.8675609E+05   -1.7911854E+00
   2.0613754E-04   2.8439964E+05   -1.7906248E+00
   2.0708950E-04   2.8206329E+05   -1.7900639E+00
   2.0804586E-04   2.7974685E+05   -1.7895025E+00
   2.0900664E-04   2.7745016E+05   -1.7889407E+00
   2.0997185E-04   2.7517303E+05   -1.7883785E+00
   2.1094152E-04   2.7291530E+05   -1.7878158E+00
   2.1191567E-04   2.7067680E+05   -1.7872529E+00
   2.1289432E-04   2.6845735E+05   -1.7866895E+00
   2.1387749E-04   2.6625679E+05   -1.7861257E+00
   2.1486520E-04   2.6407496E+05   -1.7855616E+00
   2.1585747E-04   2.6191169E+05   -1.7849970E+00
   2.1685432E-04   2.5976681E+05   -1.7844322E+00
   2.1785578E-04   2.5764017E+05   -1.7838669E+00
   2.1886186E-04   2.5553161E+05   -1.7833013E+00
   2.1987259E-04   2.5344096E+05   -1.7827354E+00
   2.2088798E-04   2.5136807E+05   -1.7821691E+00
   2.2190807E-04   2.4931279E+05   -1.7816025E+00
   2.2293286E-04   2.4727496E+05   -1.7810356E+00
   2.2396239E-04   2.4525443E+05   -1.7804683E+00
   2.2499667E-04   2.4325104E+05   -1.7799007E+00
   2.2603573E-04   2.4126465E+05   -1.7793328E+00
   2.2707958E-04   2.3929511E+05   -1.7787646E+00
   2.2812826E-04   2.3734226E+05   -1.7781961E+00
   2.2918178E-04   2.3540597E+05   -1.7776273E+00
   2.3024017E-04   2.3348609E+05   -1.7770582E+00
   2.3130344E-04   2.3158247E+05   -1.7764888E+00
   2.3237162E-04   2.2969498E+05   -1.7759191E+00
   2.3344474E-04   2.2782347E+05   -1.7753492E+00
   2.3452281E-04   2.2596780E+05   -1.7747790E+00
   2.3560586E-04   2.2412783E+05   -1.7742085E+00
   2.3669392E-04   2.2230343E+05   -1.7736378E+00
   2.3778699E-04   2.2049446E+05   -1.7730669E+00
   2.3888512E-04   2.1870079E+05   -1.7724957E+00
   2.3998831E-04   2.1692228E+05   -1.7719242E+00
   2.4109661E-04   2.1515880E+05   -1.7713525E+00
   2.4221001E-04   2.1341022E+05   -1.7707806E+00
   2.4332857E-04   2.1167640E+05   -1.7702085E+00
   2.4445228E-04   2.0995723E+05   -1.7696362E+00
   2.4558119E-04   2.0825257E+05   -1.7690636E+00
   2.4671531E-04   2.0656229E+05   -1.7684909E+00
   2.4785467E-04   2.0488627E+05   -1.7679180E+00
   2.4899928E-04   2.0322439E+05   -1.7673448E+00
   2.5014919E-04   2.0157652E+05   -1.7667715E+00
   2.5130440E-04   1.9994254E+05   -1.7661980E+00
   2.5246495E-04   1.9832233E+05   -1.7656244E+00
   2.5363086E-04   1.9671577E+05   -1.7650505E+00
   2.5480216E-04   1.9512274E+05   -1.7644766E+00
   2.5597886E-04   1.9354312E+05   -1.7639024E+00
   2.5716100E-04   1.9197680E+05   -1.7633281E+00
   2.5834859E-04   1.9042366E+05   -1.7627537E+00
   2.5954168E-04   1.8888358E+05   -1.7621791E+00
   2.6074027E-04   1.8735645E+05   -1.7616044E+00
   2.6194439E-04   1.8584217E+05   -1.7610296E+00
   2.6315408E-04   1.8434061E+05   -1.7604547E+00
   2.6436935E-04   1.8285166E+05   -1.7598796E+00
   2.6559024E-04   1.8137523E+05   -1.7593045E+00
   2.6681676E-04   1.7991119E+05   -1.7587292E+00
   2.6804895E-04   1.7845945E+05   -1.7581539E+00
   2.6928683E-04   1.7701988E+05   -1.7575785E+00
   2.7053042E-04   1.7559240E+05   -1.7570029E+00
   2.7177976E-04   1.7417689E+05   -1.7564274E+00
   2.7303487E-04   1.7277324E+05   -1.7558517E+00
   2.7429577E-04   1.7138137E+05   -1.7552760E+00
   2.7556250E-04   1.7000115E+05   -1.7547002E+00
   2.7683507E-04   1.6863250E+05   -1.7541244E+00
   2.7811353E-04   1.6727532E+05   -1.7535485E+00
   2.7939788E-04   1.6592949E+05   -1.7529726E+00
   2.8068817E-04   1.6459493E+05   -1.7523967E+00
   2.8198442E-04   1.6327154E+05   -1.7518207E+00
   2.8328665E-04   1.6195922E+05   -1.7512447E+00
   2.8459490E-04   1.6065787E+05   -1.7506687E+00
   2.8590919E-04   1.5936740E+05   -1.7500927E+00
   2.8722955E-04   1.5808772E+05   -1.7495167E+00
   2.8855600E-04   1.5681873E+05   -1.7489407E+00
   2.8988859E-04   1.5556034E+05   -1.7483647E+00
   2.9122732E-04   1.5431245E+05   -1.7477887E+00
   2.9257224E-04   1.5307498E+05   -1.7472128E+00
   2.9392337E-04   1.5184784E+05   -1.7466369E+00
   2.9528074E-04   1.5063094E+05   -1.7460610E+00
   2.9664438E-04   1.4942418E+05   -1.7454851E+00
   2.9801431E-04   1.4822749E+05   -1.7449093E+00
   2.9939057E-04   1.4704077E+05   -1.7443336E+00
   3.0077319E-04   1.4586393E+05   -1.7437579E+00
   3.0216219E-04   1.4469690E+05   -1.7431823E+00
   3.0355761E-04   1.4353959E+05   -1.7426067E+00
   3.0495947E-04   1.4239191E+05   -1.7420313E+00
   3.0636780E-04   1.4125378E+05   -1.7414559E+00
   3.0778264E-04   1.4012513E+05   -1.7408806E+00
   3.0920401E-04   1.3900585E+05   -1.7403054E+00
   3.1063195E-04   1.3789589E+05   -1.7397303E+00
   3.1206648E-04   1.3679515E+05   -1.7391553E+00
   3.1350764E-04   1.3570355E+05   -1.7385804E+00
   3.1495545E-04   1.3462102E+05   -1.7380057E+00
   3.1640994E-04   1.3354748E+05   -1.7374310E+00
   3.1787116E-04   1.3248286E+05   -1.7368565E+00
   3.1933912E-04   1.3142706E+05   -1.7362822E+00
   3.2081386E-04   1.3038003E+05   -1.7357080E+00
   3.2229541E-04   1.2934168E+05   -1.7351339E+00
   3.2378381E-04   1.2831194E+05   -1.7345600E+00
   3.2527908E-04   1.2729073E+05   -1.7339863E+00
   3.2678125E-04   1.2627799E+05   -1.7334127E+00
   3.2829036E-04   1.2527363E+05   -1.7328393E+00
   3.2980644E-04   1.2427759E+05   -1.7322661E+00
   3.3132952E-04   1.2328980E+05   -1.7316930E+00
   3.3285963E-04   1.2231018E+05   -1.7311202E+00
   3.3439681E-04   1.2133866E+05   -1.7305475E+00
   3.3594109E-04   1.2037518E+05   -1.7299751E+00
   3.3749250E-04   1.1941966E+05   -1.7294029E+00
   3.3905108E-04   1.1847204E+05   -1.7288309E+00
   3.4061685E-04   1.1753225E+05   -1.7282591E+00
   3.4218986E-04   1.1660022E+05   -1.7276875E+00
   3.4377013E-04   1.1567589E+05   -1.7271162E+00
   3.4535769E-04   1.1475919E+05   -1.7265451E+00
   3.4695259E-04   1.1385005E+05   -1.7259743E+00
   3.4855485E-04   1.1294841E+05   -1.7254037E+00
   3.5016452E-04   1.1205420E+05   -1.7248334E+00
   3.5178161E-04   1.1116737E+05   -1.7242633E+00
   3.5340618E-04   1.1028784E+05   -1.7236935E+00
   3.5503824E-04   1.0941556E+05   -1.7231240E+00
   3.5667785E-04   1.0855047E+05   -1.7225548E+00
   3.5832502E-04   1.0769249E+05   -1.7219858E+00
   3.5997981E-04   1.0684158E+05   -1.7214172E+00
   3.6164223E-04   1.0599767E+05   -1.7208488E+00
   3.6331233E-04   1.0516070E+05   -1.7202807E+00
   3.6499015E-04   1.0433061E+05   -1.7197130E+00
   3.6667571E-04   1.0350735E+05   -1.7191456E+00
   3.6836906E-04   1.0269085E+05   -1.7185785E+00
   3.7007022E-04   1.0188105E+05   -1.7180117E+00
   3.7177925E-04   1.0107791E+05   -1.7174452E+00
   3.7349616E-04   1.0028136E+05   -1.7168791E+00
   3.7522101E-04   9.9491343E+04   -1.7163134E+00
   3.7695382E-04   9.8707809E+04   -1.7157480E+00
   3.7869463E-04   9.7930702E+04   -1.7151829E+00
   3.8044348E-04   9.7159965E+04   -1.7146182E+00
   3.8220041E-04   9.6395545E+04   -1.7140539E+00
   3.8396545E-04   9.5637388E+04   -1.7134899E+00
   3.8573864E-04   9.4885440E+04   -1.7129264E+00
   3.8752002E-04   9.4139649E+04   -1.7123632E+00
   3.8930963E-04   9.3399961E+04   -1.7118004E+00
   3.9110750E-04   9.2666326E+04   -1.7112380E+00
   3.9291368E-04   9.1938692E+04   -1.7106760E+00
   3.9472820E-04   9.1217007E+04   -1.7101144E+00
   3.9655109E-04   9.0501221E+04   -1.7095532E+00
   3.9838241E-04   8.9791284E+04   -1.7089924E+00
   4.0022218E-04   8.9087147E+04   -1.7084321E+00
   4.0207045E-04   8.8388759E+04   -1.7078722E+00
   4.0392725E-04   8.7696073E+04   -1.7073127E+00
   4.0579263E-04   8.7009039E+04   -1.7067536E+00
   4.0766662E-04   8.6327609E+04   -1.7061950E+00
   4.0954927E-04   8.5651737E+04   -1.7056369E+00
   4.1144061E-04   8.4981375E+04   -1.7050792E+00
   4.1334068E-04   8.4316476E+04   -1.7045220E+00
   4.1524953E-04   8.3656994E+04   -1.7039652E+00
   4.1716720E-04   8.3002883E+04   -1.7034089E+00
   4.1909372E-04   8.2354097E+04   -1.7028531E+00
   4.2102914E-04   8.1710592E+04   -1.7022978E+00
   4.2297350E-04   8.1072322E+04   -1.7017429E+00
   4.2492683E-04   8.0439244E+04   -1.7011885E+00
   4.2688919E-04   7.9811313E+04   -1.7006347E+00
   4.2886061E-04   7.9188486E+04   -1.7000813E+00
   4.3084113E-04   7.8570719E+04   -1.6995285E+00
   4.3283080E-04   7.7957970E+04   -1.6989761E+00
   4.3482966E-04   7.7350197E+04   -1.6984243E+00
   4.3683775E-04   7.6747357E+04   -1.6978730E+00
   4.3885511E-04   7.6149408E+04   -1.6973223E+00
   4.4088179E-04   7.5556310E+04   -1.6967720E+00
   4.4291783E-04   7.4968022E+04   -1.6962223E+00
   4.4496327E-04   7.4384502E+04   -1.6956732E+00
   4.4701816E-04   7.3805710E+04   -1.6951246E+00
   4.4908253E-04   7.3231607E+04   -1.6945766E+00
   4.5115644E-04   7.2662153E+04   -1.6940291E+00
   4.5323993E-04   7.2097310E+04   -1.6934821E+00
   4.5533304E-04   7.1537037E+04   -1.6929358E+00
   4.5743582E-04   7.0981297E+04   -1.6923900E+00
   4.5954830E-04   7.0430051E+04   -1.6918448E+00
   4.6167054E-04   6.9883261E+04   -1.6913002E+00
   4.6380259E-04   6.9340891E+04   -1.6907561E+00
   4.6594448E-04   6.8802902E+04   -1.6902127E+00
   4.6809626E-04   6.8269258E+04   -1.6896699E+00
   4.7025797E-04   6.7739923E+04   -1.6891276E+00
   4.7242967E-04   6.7214859E+04   -1.6885860E+00
   4.7461140E-04   6.6694032E+04   -1.6880450E+00
   4.7680321E-04   6.6177405E+04   -1.6875046E+00
   4.7900514E-04   6.5664944E+04   -1.6869648E+00
   4.8121723E-04   6.5156613E+04   -1.6864256E+00
   4.8343954E-04   6.4652377E+04   -1.6858871E+00
   4.8567212E-04   6.4152203E+04   -1.6853492E+00
   4.8791500E-04   6.3656057E+04   -1.6848119E+00
   4.9016825E-04   6.3163903E+04   -1.6842753E+00
   4.9243189E-04   6.2675710E+04   -1.6837394E+00
   4.9470600E-04   6.2191443E+04   -1.6832041E+00
   4.9699060E-04   6.1711070E+04   -1.6826694E+00
   4.9928575E-04   6.1234558E+04   -1.6821354E+00
   5.0159151E-04   6.0761875E+04   -1.6816021E+00
   5.0390791E-04   6.0292989E+04   -1.6810694E+00
   5.0623501E-04   5.9827868E+04   -1.6805375E+00
   5.0857286E-04   5.9366480E+04   -1.6800062E+00
   5.1092150E-04   5.8908795E+04   -1.6794756E+00
   5.1328099E-04   5.8454781E+04   -1.6789456E+00
   5.1565137E-04   5.8004408E+04   -1.6784164E+00
   5.1803270E-04   5.7557644E+04   -1.6778879E+00
   5.2042503E-04   5.7114461E+04   -1.6773600E+00
   5.2282841E-04   5.6674829E+04   -1.6768329E+00
   5.2524289E-04   5.6238716E+04   -1.6763065E+00
   5.2766851E-04   5.5806095E+04   -1.6757808E+00
   5.3010534E-04   5.5376936E+04   -1.6752558E+00
   5.3255342E-04   5.4951210E+04   -1.6747315E+00
   5.3501281E-04   5.4528888E+04   -1.6742080E+00
   5.3748356E-04   5.4109943E+04   -1.6736852E+00
   5.3996571E-04   5.3694345E+04   -1.6731631E+00
   5.4245933E-04   5.3282068E+04   -1.6726418E+00
   5.4496446E-04   5.2873084E+04   -1.6721212E+00
   5.4748117E-04   5.2467364E+04   -1.6716013E+00
   5.5000949E-04   5.2064882E+04   -1.6710822E+00
   5.5254949E-04   5.1665611E+04   -1.6705638E+00
   5.5510123E-04   5.1269525E+04   -1.6700463E+00
   5.5766474E-04   5.0876596E+04   -1.6695294E+00
   5.6024010E-04   5.0486799E+04   -1.6690134E+00
   5.6282734E-04   5.0100107E+04   -1.6684981E+00
   5.6542654E-04   4.9716495E+04   -1.6679835E+00
   5.6803774E-04   4.9335937E+04   -1.6674698E+00
   5.7066099E-04   4.8958408E+04   -1.6669568E+00
   5.7329637E-04   4.8583882E+04   -1.6664446E+00
   5.7594391E-04   4.8212335E+04   -1.6659332E+00
   5.7860368E-04   4.7843743E+04   -1.6654226E+00
   5.8127573E-04   4.7478080E+04   -1.6649128E+00
   5.8396012E-04   4.7115322E+04   -1.6644038E+00
   5.8665691E-04   4.6755446E+04   -1.6638956E+00
   5.8936616E-04   4.6398427E+04   -1.6633881E+00
   5.9208791E-04   4.6044241E+04   -1.6628815E+00
   5.9482223E-04   4.5692866E+04   -1.6623757E+00
   5.9756919E-04   4.5344278E+04   -1.6618708E+00
   6.0032882E-04   4.4998454E+04   -1.6613666E+00
   6.0310120E-04   4.4655371E+04   -1.6608633E+00
   6.0588639E-04   4.4315006E+04   -1.6603608E+00
   6.0868443E-04   4.3977337E+04   -1.6598591E+00
   6.1149540E-04   4.3642343E+04   -1.6593582E+00
   6.1431935E-04   4.3309999E+04   -1.6588582E+00
   6.1715634E-04   4.2980286E+04   -1.6583590E+00
   6.2000644E-04   4.2653181E+04   -1.6578607E+00
   6.2286969E-04   4.2328662E+04   -1.6573632E+00
