#        a       HoverH0(a)       dlogHdloga_of_a(a)
   1.0000000E-04   1.1110441E+06   -1.8469442E+00
   1.0046181E-04   1.1016308E+06   -1.8464545E+00
   1.0092575E-04   1.0922997E+06   -1.8459638E+00
   1.0139184E-04   1.0830500E+06   -1.8454723E+00
   1.0186008E-04   1.0738812E+06   -1.8449799E+00
   1.0233048E-04   1.0647923E+06   -1.8444866E+00
   1.0280305E-04   1.0557828E+06   -1.8439925E+00
   1.0327781E-04   1.0468519E+06   -1.8434976E+00
   1.0375475E-04   1.0379989E+06   -1.8430018E+00
   1.0423390E-04   1.0292232E+06   -1.8425051E+00
   1.0471527E-04   1.0205240E+06   -1.8420076E+00
   1.0519885E-04   1.0119006E+06   -1.8415092E+00
   1.0568467E-04   1.0033524E+06   -1.8410100E+00
   1.0617274E-04   9.9487866E+05   -1.8405100E+00
   1.0666305E-04   9.8647880E+05   -1.8400091E+00
   1.0715563E-04   9.7815212E+05   -1.8395074E+00
   1.0765049E-04   9.6989797E+05   -1.8390048E+00
   1.0814763E-04   9.6171569E+05   -1.8385015E+00
   1.0864707E-04   9.5360466E+05   -1.8379973E+00
   1.0914881E-04   9.4556423E+05   -1.8374923E+00
   1.0965287E-04   9.3759379E+05   -1.8369865E+00
   1.1015926E-04   9.2969269E+05   -1.8364799E+00
   1.1066799E-04   9.2186033E+05   -1.8359724E+00
   1.1117906E-04   9.1409609E+05   -1.8354642E+00
   1.1169250E-04   9.0639937E+05   -1.8349551E+00
   1.1220831E-04   8.9876957E+05   -1.8344453E+00
   1.1272650E-04   8.9120609E+05   -1.8339347E+00
   1.1324708E-04   8.8370833E+05   -1.8334232E+00
   1.1377007E-04   8.7627573E+05   -1.8329110E+00
   1.1429547E-04   8.6890769E+05   -1.8323980E+00
   1.1482330E-04   8.6160364E+05   -1.8318843E+00
   1.1535356E-04   8.5436302E+05   -1.8313697E+00
   1.1588628E-04   8.4718525E+05   -1.8308544E+00
   1.1642145E-04   8.4006978E+05   -1.8303383E+00
   1.1695910E-04   8.3301605E+05   -1.8298214E+00
   1.1749923E-04   8.2602352E+05   -1.8293038E+00
   1.1804185E-04   8.1909164E+05   -1.8287854E+00
   1.1858698E-04   8.1221988E+05   -1.8282663E+00
   1.1913463E-04   8.0540769E+05   -1.8277464E+00
   1.1968481E-04   7.9865455E+05   -1.8272258E+00
   1.2023752E-04   7.9195993E+05   -1.8267044E+00
   1.2079279E-04   7.8532332E+05   -1.8261823E+00
   1.2135063E-04   7.7874421E+05   -1.8256595E+00
   1.2191104E-04   7.7222207E+05   -1.8251359E+00
   1.2247403E-04   7.6575640E+05   -1.8246117E+00
   1.2303963E-04   7.5934670E+05   -1.8240866E+00
   1.2360784E-04   7.5299248E+05   -1.8235609E+00
   1.2417868E-04   7.4669324E+05   -1.8230345E+00
   1.2475215E-04   7.4044849E+05   -1.8225073E+00
   1.2532826E-04   7.3425776E+05   -1.8219795E+00
   1.2590704E-04   7.2812055E+05   -1.8214509E+00
   1.2648850E-04   7.2203640E+05   -1.8209216E+00
   1.2707263E-04   7.1600484E+05   -1.8203917E+00
   1.2765947E-04   7.1002540E+05   -1.8198611E+00
   1.2824901E-04   7.0409762E+05   -1.8193297E+00
   1.2884128E-04   6.9822103E+05   -1.8187977E+00
   1.2943628E-04   6.9239519E+05   -1.8182651E+00
   1.3003403E-04   6.8661965E+05   -1.8177317E+00
   1.3063454E-04   6.8089396E+05   -1.8171977E+00
   1.3123783E-04   6.7521768E+05   -1.8166630E+00
   1.3184390E-04   6.6959036E+05   -1.8161277E+00
   1.3245277E-04   6.6401159E+05   -1.8155917E+00
   1.3306445E-04   6.5848092E+05   -1.8150551E+00
   1.3367895E-04   6.5299793E+05   -1.8145178E+00
   1.3429630E-04   6.4756221E+05   -1.8139799E+00
   1.3491649E-04   6.4217332E+05   -1.8134413E+00
   1.3553955E-04   6.3683086E+05   -1.8129022E+00
   1.3616548E-04   6.3153441E+05   -1.8123623E+00
   1.3679431E-04   6.2628358E+05   -1.8118219E+00
   1.3742604E-04   6.2107795E+05   -1.8112809E+00
   1.3806069E-04   6.1591712E+05   -1.8107392E+00
   1.3869827E-04   6.1080071E+05   -1.8101970E+00
   1.3933879E-04   6.0572831E+05   -1.8096541E+00
   1.3998227E-04   6.0069953E+05   -1.8091106E+00
   1.4062872E-04   5.9571400E+05   -1.8085666E+00
   1.4127816E-04   5.9077133E+05   -1.8080219E+00
   1.4193060E-04   5.8587113E+05   -1.8074767E+00
   1.4258605E-04   5.8101305E+05   -1.8069309E+00
   1.4324453E-04   5.7619669E+05   -1.8063845E+00
   1.4390605E-04   5.7142170E+05   -1.8058376E+00
   1.4457062E-04   5.6668771E+05   -1.8052901E+00
   1.4523826E-04   5.6199436E+05   -1.8047420E+00
   1.4590899E-04   5.5734129E+05   -1.8041934E+00
   1.4658281E-04   5.5272814E+05   -1.8036442E+00
   1.4725974E-04   5.4815457E+05   -1.8030945E+00
   1.4793981E-04   5.4362021E+05   -1.8025443E+00
   1.4862301E-04   5.3912473E+05   -1.8019935E+00
   1.4930936E-04   5.3466778E+05   -1.8014422E+00
   1.4999889E-04   5.3024903E+05   -1.8008903E+00
   1.5069160E-04   5.2586813E+05   -1.8003380E+00
   1.5138751E-04   5.2152475E+05   -1.7997851E+00
   1.5208663E-04   5.1721857E+05   -1.7992318E+00
   1.5278899E-04   5.1294925E+05   -1.7986779E+00
   1.5349458E-04   5.0871647E+05   -1.7981235E+00
   1.5420343E-04   5.0451990E+05   -1.7975686E+00
   1.5491556E-04   5.0035924E+05   -1.7970133E+00
   1.5563098E-04   4.9623416E+05   -1.7964575E+00
   1.5634970E-04   4.9214435E+05   -1.7959012E+00
   1.5707174E-04   4.8808949E+05   -1.7953444E+00
   1.5779711E-04   4.8406929E+05   -1.7947871E+00
   1.5852584E-04   4.8008343E+05   -1.7942294E+00
   1.5925792E-04   4.7613162E+05   -1.7936713E+00
   1.5999339E-04   4.7221355E+05   -1.7931127E+00
   1.6073226E-04   4.6832893E+05   -1.7925536E+00
   1.6147454E-04   4.6447746E+05   -1.7919941E+00
   1.6222024E-04   4.6065885E+05   -1.7914342E+00
   1.6296939E-04   4.5687282E+05   -1.7908738E+00
   1.6372200E-04   4.5311908E+05   -1.7903130E+00
   1.6447809E-04   4.4939733E+05   -1.7897519E+00
   1.6523767E-04   4.4570731E+05   -1.7891902E+00
   1.6600075E-04   4.4204873E+05   -1.7886282E+00
   1.6676736E-04   4.3842132E+05   -1.7880658E+00
   1.6753751E-04   4.3482480E+05   -1.7875030E+00
   1.6831122E-04   4.3125891E+05   -1.7869398E+00
   1.6908849E-04   4.2772336E+05   -1.7863762E+00
   1.6986936E-04   4.2421791E+05   -1.7858123E+00
   1.7065384E-04   4.2074228E+05   -1.7852480E+00
   1.7144193E-04   4.1729620E+05   -1.7846833E+00
   1.7223367E-04   4.1387943E+05   -1.7841182E+00
   1.7302906E-04   4.1049171E+05   -1.7835528E+00
   1.7382813E-04   4.0713278E+05   -1.7829870E+00
   1.7463089E-04   4.0380238E+05   -1.7824209E+00
   1.7543735E-04   4.0050028E+05   -1.7818545E+00
   1.7624754E-04   3.9722621E+05   -1.7812877E+00
   1.7706147E-04   3.9397994E+05   -1.7807206E+00
   1.7787916E-04   3.9076121E+05   -1.7801531E+00
   1.7870062E-04   3.8756980E+05   -1.7795854E+00
   1.7952588E-04   3.8440546E+05   -1.7790173E+00
   1.8035495E-04   3.8126795E+05   -1.7784490E+00
   1.8118785E-04   3.7815704E+05   -1.7778803E+00
   1.8202459E-04   3.7507250E+05   -1.7773114E+00
   1.8286520E-04   3.7201409E+05   -1.7767421E+00
   1.8370969E-04   3.6898159E+05   -1.7761726E+00
   1.8455808E-04   3.6597477E+05   -1.7756028E+00
   1.8541039E-04   3.6299340E+05   -1.7750328E+00
   1.8626663E-04   3.6003727E+05   -1.7744624E+00
   1.8712683E-04   3.5710615E+05   -1.7738919E+00
   1.8799100E-04   3.5419983E+05   -1.7733210E+00
   1.8885917E-04   3.5131808E+05   -1.7727500E+00
   1.8973134E-04   3.4846070E+05   -1.7721786E+00
   1.9060754E-04   3.4562746E+05   -1.7716071E+00
   1.9148778E-04   3.4281817E+05   -1.7710353E+00
   1.9237209E-04   3.4003260E+05   -1.7704633E+00
   1.9326049E-04   3.3727056E+05   -1.7698911E+00
   1.9415299E-04   3.3453183E+05   -1.7693186E+00
   1.9504960E-04   3.3181622E+05   -1.7687460E+00
   1.9595036E-04   3.2912353E+05   -1.7681732E+00
   1.9685528E-04   3.2645354E+05   -1.7676002E+00
   1.9776438E-04   3.2380607E+05   -1.7670270E+00
   1.9867768E-04   3.2118092E+05   -1.7664536E+00
   1.9959519E-04   3.1857790E+05   -1.7658800E+00
   2.0051694E-04   3.1599680E+05   -1.7653063E+00
   2.0144295E-04   3.1343745E+05   -1.7647324E+00
   2.0237324E-04   3.1089965E+05   -1.7641583E+00
   2.0330782E-04   3.0838321E+05   -1.7635841E+00
   2.0424671E-04   3.0588795E+05   -1.7630098E+00
   2.0518995E-04   3.0341368E+05   -1.7624353E+00
   2.0613754E-04   3.0096022E+05   -1.7618607E+00
   2.0708950E-04   2.9852739E+05   -1.7612859E+00
   2.0804586E-04   2.9611501E+05   -1.7607111E+00
   2.0900664E-04   2.9372291E+05   -1.7601361E+00
   2.0997185E-04   2.9135090E+05   -1.7595610E+00
   2.1094152E-04   2.8899881E+05   -1.7589858E+00
   2.1191567E-04   2.8666647E+05   -1.7584106E+00
   2.1289432E-04   2.8435371E+05   -1.7578352E+00
   2.1387749E-04   2.8206035E+05   -1.7572598E+00
   2.1486520E-04   2.7978623E+05   -1.7566842E+00
   2.1585747E-04   2.7753118E+05   -1.7561086E+00
   2.1685432E-04   2.7529504E+05   -1.7555330E+00
   2.1785578E-04   2.7307764E+05   -1.7549572E+00
   2.1886186E-04   2.7087882E+05   -1.7543815E+00
   2.1987259E-04   2.6869842E+05   -1.7538056E+00
   2.2088798E-04   2.6653627E+05   -1.7532298E+00
   2.2190807E-04   2.6439223E+05   -1.7526539E+00
   2.2293286E-04   2.6226612E+05   -1.7520779E+00
   2.2396239E-04   2.6015781E+05   -1.7515020E+00
   2.2499667E-04   2.5806713E+05   -1.7509260E+00
   2.2603573E-04   2.5599392E+05   -1.7503501E+00
   2.2707958E-04   2.5393805E+05   -1.7497741E+00
   2.2812826E-04   2.5189936E+05   -1.7491981E+00
   2.2918178E-04   2.4987769E+05   -1.7486221E+00
   2.3024017E-04   2.4787291E+05   -1.7480462E+00
   2.3130344E-04   2.4588487E+05   -1.7474702E+00
   2.3237162E-04   2.4391342E+05   -1.7468943E+00
   2.3344474E-04   2.4195842E+05   -1.7463184E+00
   2.3452281E-04   2.4001972E+05   -1.7457426E+00
   2.3560586E-04   2.3809719E+05   -1.7451668E+00
   2.3669392E-04   2.3619069E+05   -1.7445911E+00
   2.3778699E-04   2.3430007E+05   -1.7440154E+00
   2.3888512E-04   2.3242520E+05   -1.7434398E+00
   2.3998831E-04   2.3056595E+05   -1.7428642E+00
   2.4109661E-04   2.2872217E+05   -1.7422887E+00
   2.4221001E-04   2.2689375E+05   -1.7417134E+00
   2.4332857E-04   2.2508053E+05   -1.7411380E+00
   2.4445228E-04   2.2328240E+05   -1.7405628E+00
   2.4558119E-04   2.2149922E+05   -1.7399877E+00
   2.4671531E-04   2.1973086E+05   -1.7394127E+00
   2.4785467E-04   2.1797720E+05   -1.7388378E+00
   2.4899928E-04   2.1623810E+05   -1.7382630E+00
   2.5014919E-04   2.1451345E+05   -1.7376884E+00
   2.5130440E-04   2.1280312E+05   -1.7371139E+00
   2.5246495E-04   2.1110699E+05   -1.7365395E+00
   2.5363086E-04   2.0942492E+05   -1.7359652E+00
   2.5480216E-04   2.0775681E+05   -1.7353911E+00
   2.5597886E-04   2.0610253E+05   -1.7348172E+00
   2.5716100E-04   2.0446197E+05   -1.7342434E+00
   2.5834859E-04   2.0283499E+05   -1.7336698E+00
   2.5954168E-04   2.0122150E+05   -1.7330963E+00
   2.6074027E-04   1.9962137E+05   -1.7325231E+00
   2.6194439E-04   1.9803448E+05   -1.7319500E+00
   2.6315408E-04   1.9646073E+05   -1.7313771E+00
   2.6436935E-04   1.9490000E+05   -1.7308044E+00
   2.6559024E-04   1.9335218E+05   -1.7302319E+00
   2.6681676E-04   1.9181716E+05   -1.7296596E+00
   2.6804895E-04   1.9029483E+05   -1.7290875E+00
   2.6928683E-04   1.8878507E+05   -1.7285157E+00
   2.7053042E-04   1.8728779E+05   -1.7279441E+00
   2.7177976E-04   1.8580287E+05   -1.7273727E+00
   2.7303487E-04   1.8433021E+05   -1.7268015E+00
   2.7429577E-04   1.8286970E+05   -1.7262306E+00
   2.7556250E-04   1.8142124E+05   -1.7256599E+00
   2.7683507E-04   1.7998473E+05   -1.7250895E+00
   2.7811353E-04   1.7856006E+05   -1.7245194E+00
   2.7939788E-04   1.7714714E+05   -1.7239495E+00
   2.8068817E-04   1.7574585E+05   -1.7233799E+00
   2.8198442E-04   1.7435611E+05   -1.7228106E+00
   2.8328665E-04   1.7297781E+05   -1.7222415E+00
   2.8459490E-04   1.7161085E+05   -1.7216728E+00
   2.8590919E-04   1.7025515E+05   -1.7211043E+00
   2.8722955E-04   1.6891060E+05   -1.7205362E+00
   2.8855600E-04   1.6757710E+05   -1.7199683E+00
   2.8988859E-04   1.6625456E+05   -1.7194008E+00
   2.9122732E-04   1.6494290E+05   -1.7188336E+00
   2.9257224E-04   1.6364201E+05   -1.7182667E+00
   2.9392337E-04   1.6235180E+05   -1.7177001E+00
   2.9528074E-04   1.6107219E+05   -1.7171339E+00
   2.9664438E-04   1.5980308E+05   -1.7165680E+00
   2.9801431E-04   1.5854438E+05   -1.7160025E+00
   2.9939057E-04   1.5729601E+05   -1.7154373E+00
   3.0077319E-04   1.5605787E+05   -1.7148725E+00
   3.0216219E-04   1.5482988E+05   -1.7143081E+00
   3.0355761E-04   1.5361195E+05   -1.7137440E+00
   3.0495947E-04   1.5240400E+05   -1.7131803E+00
   3.0636780E-04   1.5120594E+05   -1.7126170E+00
   3.0778264E-04   1.5001769E+05   -1.7120540E+00
   3.0920401E-04   1.4883916E+05   -1.7114915E+00
   3.1063195E-04   1.4767028E+05   -1.7109293E+00
   3.1206648E-04   1.4651095E+05   -1.7103676E+00
   3.1350764E-04   1.4536110E+05   -1.7098063E+00
   3.1495545E-04   1.4422065E+05   -1.7092454E+00
   3.1640994E-04   1.4308951E+05   -1.7086849E+00
   3.1787116E-04   1.4196761E+05   -1.7081248E+00
   3.1933912E-04   1.4085487E+05   -1.7075652E+00
   3.2081386E-04   1.3975122E+05   -1.7070060E+00
   3.2229541E-04   1.3865657E+05   -1.7064472E+00
   3.2378381E-04   1.3757084E+05   -1.7058889E+00
   3.2527908E-04   1.3649397E+05   -1.7053311E+00
   3.2678125E-04   1.3542588E+05   -1.7047737E+00
   3.2829036E-04   1.3436649E+05   -1.7042167E+00
   3.2980644E-04   1.3331573E+05   -1.7036603E+00
   3.3132952E-04   1.3227352E+05   -1.7031043E+00
   3.3285963E-04   1.3123980E+05   -1.7025488E+00
   3.3439681E-04   1.3021449E+05   -1.7019938E+00
   3.3594109E-04   1.2919752E+05   -1.7014392E+00
   3.3749250E-04   1.2818882E+05   -1.7008852E+00
   3.3905108E-04   1.2718832E+05   -1.7003317E+00
   3.4061685E-04   1.2619595E+05   -1.6997786E+00
   3.4218986E-04   1.2521164E+05   -1.6992261E+00
   3.4377013E-04   1.2423533E+05   -1.6986741E+00
   3.4535769E-04   1.2326694E+05   -1.6981226E+00
   3.4695259E-04   1.2230641E+05   -1.6975717E+00
   3.4855485E-04   1.2135368E+05   -1.6970212E+00
   3.5016452E-04   1.2040867E+05   -1.6964714E+00
   3.5178161E-04   1.1947132E+05   -1.6959220E+00
   3.5340618E-04   1.1854157E+05   -1.6953732E+00
   3.5503824E-04   1.1761935E+05   -1.6948250E+00
   3.5667785E-04   1.1670460E+05   -1.6942773E+00
   3.5832502E-04   1.1579726E+05   -1.6937301E+00
   3.5997981E-04   1.1489726E+05   -1.6931836E+00
   3.6164223E-04   1.1400454E+05   -1.6926376E+00
   3.6331233E-04   1.1311904E+05   -1.6920922E+00
   3.6499015E-04   1.1224071E+05   -1.6915473E+00
   3.6667571E-04   1.1136947E+05   -1.6910031E+00
   3.6836906E-04   1.1050527E+05   -1.6904594E+00
   3.7007022E-04   1.0964805E+05   -1.6899164E+00
   3.7177925E-04   1.0879776E+05   -1.6893739E+00
   3.7349616E-04   1.0795433E+05   -1.6888321E+00
   3.7522101E-04   1.0711770E+05   -1.6882908E+00
   3.7695382E-04   1.0628782E+05   -1.6877502E+00
   3.7869463E-04   1.0546464E+05   -1.6872102E+00
   3.8044348E-04   1.0464809E+05   -1.6866708E+00
   3.8220041E-04   1.0383812E+05   -1.6861320E+00
   3.8396545E-04   1.0303467E+05   -1.6855939E+00
   3.8573864E-04   1.0223770E+05   -1.6850564E+00
   3.8752002E-04   1.0144714E+05   -1.6845196E+00
   3.8930963E-04   1.0066294E+05   -1.6839834E+00
   3.9110750E-04   9.9885050E+04   -1.6834478E+00
   3.9291368E-04   9.9113416E+04   -1.6829129E+00
   3.9472820E-04   9.8347986E+04   -1.6823787E+00
   3.9655109E-04   9.7588707E+04   -1.6818451E+00
   3.9838241E-04   9.6835528E+04   -1.6813122E+00
   4.0022218E-04   9.6088397E+04   -1.6807800E+00
   4.0207045E-04   9.5347265E+04   -1.6802485E+00
   4.0392725E-04   9.4612081E+04   -1.6797176E+00
   4.0579263E-04   9.3882795E+04   -1.6791874E+00
   4.0766662E-04   9.3159357E+04   -1.6786580E+00
   4.0954927E-04   9.2441720E+04   -1.6781292E+00
   4.1144061E-04   9.1729834E+04   -1.6776011E+00
   4.1334068E-04   9.1023652E+04   -1.6770737E+00
   4.1524953E-04   9.0323126E+04   -1.6765470E+00
   4.1716720E-04   8.9628208E+04   -1.6760210E+00
   4.1909372E-04   8.8938852E+04   -1.6754958E+00
   4.2102914E-04   8.8255012E+04   -1.6749712E+00
   4.2297350E-04   8.7576641E+04   -1.6744474E+00
   4.2492683E-04   8.6903693E+04   -1.6739244E+00
   4.2688919E-04   8.6236125E+04   -1.6734020E+00
   4.2886061E-04   8.5573891E+04   -1.6728804E+00
   4.3084113E-04   8.4916946E+04   -1.6723595E+00
   4.3283080E-04   8.4265246E+04   -1.6718394E+00
   4.3482966E-04   8.3618748E+04   -1.6713200E+00
   4.3683775E-04   8.2977409E+04   -1.6708014E+00
   4.3885511E-04   8.2341185E+04   -1.6702835E+00
   4.4088179E-04   8.1710034E+04   -1.6697664E+00
   4.4291783E-04   8.1083914E+04   -1.6692501E+00
   4.4496327E-04   8.0462783E+04   -1.6687345E+00
   4.4701816E-04   7.9846600E+04   -1.6682197E+00
   4.4908253E-04   7.9235323E+04   -1.6677056E+00
   4.5115644E-04   7.8628912E+04   -1.6671924E+00
   4.5323993E-04   7.8027327E+04   -1.6666799E+00
   4.5533304E-04   7.7430527E+04   -1.6661682E+00
   4.5743582E-04   7.6838472E+04   -1.6656573E+00
   4.5954830E-04   7.6251124E+04   -1.6651472E+00
   4.6167054E-04   7.5668444E+04   -1.6646379E+00
   4.6380259E-04   7.5090392E+04   -1.6641294E+00
   4.6594448E-04   7.4516930E+04   -1.6636217E+00
   4.6809626E-04   7.3948021E+04   -1.6631148E+00
   4.7025797E-04   7.3383626E+04   -1.6626087E+00
   4.7242967E-04   7.2823708E+04   -1.6621034E+00
   4.7461140E-04   7.2268231E+04   -1.6615989E+00
   4.7680321E-04   7.1717158E+04   -1.6610953E+00
   4.7900514E-04   7.1170451E+04   -1.6605925E+00
   4.8121723E-04   7.0628076E+04   -1.6600905E+00
   4.8343954E-04   7.0089996E+04   -1.6595893E+00
   4.8567212E-04   6.9556176E+04   -1.6590890E+00
   4.8791500E-04   6.9026581E+04   -1.6585895E+00
   4.9016825E-04   6.8501175E+04   -1.6580908E+00
   4.9243189E-04   6.7979925E+04   -1.6575930E+00
   4.9470600E-04   6.7462795E+04   -1.6570961E+00
   4.9699060E-04   6.6949753E+04   -1.6566000E+00
   4.9928575E-04   6.6440764E+04   -1.6561047E+00
   5.0159151E-04   6.5935795E+04   -1.6556103E+00
   5.0390791E-04   6.5434812E+04   -1.6551168E+00
   5.0623501E-04   6.4937784E+04   -1.6546241E+00
   5.0857286E-04   6.4444677E+04   -1.6541323E+00
   5.1092150E-04   6.3955460E+04   -1.6536413E+00
   5.1328099E-04   6.3470099E+04   -1.6531512E+00
   5.1565137E-04   6.2988565E+04   -1.6526620E+00
   5.1803270E-04   6.2510824E+04   -1.6521737E+00
   5.2042503E-04   6.2036846E+04   -1.6516862E+00
   5.2282841E-04   6.1566600E+04   -1.6511997E+00
   5.2524289E-04   6.1100056E+04   -1.6507140E+00
   5.2766851E-04   6.0637183E+04   -1.6502292E+00
   5.3010534E-04   6.0177950E+04   -1.6497453E+00
   5.3255342E-04   5.9722328E+04   -1.6492623E+00
   5.3501281E-04   5.9270288E+04   -1.6487801E+00
   5.3748356E-04   5.8821800E+04   -1.6482989E+00
   5.3996571E-04   5.8376835E+04   -1.6478186E+00
   5.4245933E-04   5.7935364E+04   -1.6473392E+00
   5.4496446E-04   5.7497358E+04   -1.6468606E+00
   5.4748117E-04   5.7062790E+04   -1.6463830E+00
   5.5000949E-04   5.6631630E+04   -1.6459063E+00
   5.5254949E-04   5.6203852E+04   -1.6454305E+00
   5.5510123E-04   5.5779427E+04   -1.6449557E+00
   5.5766474E-04   5.5358328E+04   -1.6444817E+00
   5.6024010E-04   5.4940528E+04   -1.6440087E+00
   5.6282734E-04   5.4526000E+04   -1.6435366E+00
   5.6542654E-04   5.4114717E+04   -1.6430654E+00
   5.6803774E-04   5.3706653E+04   -1.6425951E+00
   5.7066099E-04   5.3301782E+04   -1.6421258E+00
   5.7329637E-04   5.2900077E+04   -1.6416574E+00
   5.7594391E-04   5.2501512E+04   -1.6411899E+00
   5.7860368E-04   5.2106062E+04   -1.6407234E+00
   5.8127573E-04   5.1713703E+04   -1.6402578E+00
   5.8396012E-04   5.1324407E+04   -1.6397932E+00
   5.8665691E-04   5.0938151E+04   -1.6393294E+00
   5.8936616E-04   5.0554910E+04   -1.6388667E+00
   5.9208791E-04   5.0174660E+04   -1.6384049E+00
   5.9482223E-04   4.9797375E+04   -1.6379440E+00
   5.9756919E-04   4.9423031E+04   -1.6374841E+00
   6.0032882E-04   4.9051606E+04   -1.6370251E+00
   6.0310120E-04   4.8683075E+04   -1.6365671E+00
   6.0588639E-04   4.8317415E+04   -1.6361100E+00
   6.0868443E-04   4.7954602E+04   -1.6356539E+00
   6.1149540E-04   4.7594613E+04   -1.6351987E+00
   6.1431935E-04   4.7237426E+04   -1.6347446E+00
   6.1715634E-04   4.6883017E+04   -1.6342913E+00
   6.2000644E-04   4.6531364E+04   -1.6338391E+00
   6.2286969E-04   4.6182445E+04   -1.6333878E+00
