#        a       HoverH0(a)       dlogHdloga_of_a(a)
   1.0000000E-04   1.0839878E+06   -1.8578259E+00
   1.0046181E-04   1.0747498E+06   -1.8573566E+00
   1.0092575E-04   1.0655928E+06   -1.8568864E+00
   1.0139184E-04   1.0565161E+06   -1.8564152E+00
   1.0186008E-04   1.0475189E+06   -1.8559432E+00
   1.0233048E-04   1.0386007E+06   -1.8554702E+00
   1.0280305E-04   1.0297606E+06   -1.8549963E+00
   1.0327781E-04   1.0209981E+06   -1.8545215E+00
   1.0375475E-04   1.0123123E+06   -1.8540457E+00
   1.0423390E-04   1.0037025E+06   -1.8535691E+00
   1.0471527E-04   9.9516825E+05   -1.8530915E+00
   1.0519885E-04   9.8670869E+05   -1.8526131E+00
   1.0568467E-04   9.7832320E+05   -1.8521337E+00
   1.0617274E-04   9.7001111E+05   -1.8516534E+00
   1.0666305E-04   9.6177178E+05   -1.8511723E+00
   1.0715563E-04   9.5360456E+05   -1.8506902E+00
   1.0765049E-04   9.4550879E+05   -1.8502072E+00
   1.0814763E-04   9.3748384E+05   -1.8497233E+00
   1.0864707E-04   9.2952907E+05   -1.8492386E+00
   1.0914881E-04   9.2164386E+05   -1.8487529E+00
   1.0965287E-04   9.1382759E+05   -1.8482664E+00
   1.1015926E-04   9.0607964E+05   -1.8477790E+00
   1.1066799E-04   8.9839940E+05   -1.8472907E+00
   1.1117906E-04   8.9078627E+05   -1.8468016E+00
   1.1169250E-04   8.8323964E+05   -1.8463115E+00
   1.1220831E-04   8.7575893E+05   -1.8458206E+00
   1.1272650E-04   8.6834354E+05   -1.8453288E+00
   1.1324708E-04   8.6099289E+05   -1.8448362E+00
   1.1377007E-04   8.5370641E+05   -1.8443427E+00
   1.1429547E-04   8.4648351E+05   -1.8438483E+00
   1.1482330E-04   8.3932365E+05   -1.8433531E+00
   1.1535356E-04   8.3222624E+05   -1.8428571E+00
   1.1588628E-04   8.2519074E+05   -1.8423601E+00
   1.1642145E-04   8.1821659E+05   -1.8418624E+00
   1.1695910E-04   8.1130324E+05   -1.8413638E+00
   1.1749923E-04   8.0445016E+05   -1.8408643E+00
   1.1804185E-04   7.9765680E+05   -1.8403640E+00
   1.1858698E-04   7.9092263E+05   -1.8398629E+00
   1.1913463E-04   7.8424713E+05   -1.8393609E+00
   1.1968481E-04   7.7762977E+05   -1.8388582E+00
   1.2023752E-04   7.7107003E+05   -1.8383546E+00
   1.2079279E-04   7.6456741E+05   -1.8378501E+00
   1.2135063E-04   7.5812139E+05   -1.8373449E+00
   1.2191104E-04   7.5173146E+05   -1.8368388E+00
   1.2247403E-04   7.4539713E+05   -1.8363320E+00
   1.2303963E-04   7.3911791E+05   -1.8358243E+00
   1.2360784E-04   7.3289330E+05   -1.8353158E+00
   1.2417868E-04   7.2672281E+05   -1.8348065E+00
   1.2475215E-04   7.2060596E+05   -1.8342965E+00
   1.2532826E-04   7.1454229E+05   -1.8337856E+00
   1.2590704E-04   7.0853130E+05   -1.8332739E+00
   1.2648850E-04   7.0257254E+05   -1.8327615E+00
   1.2707263E-04   6.9666554E+05   -1.8322483E+00
   1.2765947E-04   6.9080983E+05   -1.8317343E+00
   1.2824901E-04   6.8500497E+05   -1.8312195E+00
   1.2884128E-04   6.7925050E+05   -1.8307039E+00
   1.2943628E-04   6.7354598E+05   -1.8301876E+00
   1.3003403E-04   6.6789095E+05   -1.8296705E+00
   1.3063454E-04   6.6228498E+05   -1.8291527E+00
   1.3123783E-04   6.5672763E+05   -1.8286341E+00
   1.3184390E-04   6.5121847E+05   -1.8281147E+00
   1.3245277E-04   6.4575707E+05   -1.8275946E+00
   1.3306445E-04   6.4034301E+05   -1.8270738E+00
   1.3367895E-04   6.3497587E+05   -1.8265522E+00
   1.3429630E-04   6.2965522E+05   -1.8260299E+00
   1.3491649E-04   6.2438067E+05   -1.8255068E+00
   1.3553955E-04   6.1915179E+05   -1.8249830E+00
   1.3616548E-04   6.1396818E+05   -1.8244585E+00
   1.3679431E-04   6.0882944E+05   -1.8239333E+00
   1.3742604E-04   6.0373518E+05   -1.8234074E+00
   1.3806069E-04   5.9868499E+05   -1.8228807E+00
   1.3869827E-04   5.9367849E+05   -1.8223534E+00
   1.3933879E-04   5.8871529E+05   -1.8218253E+00
   1.3998227E-04   5.8379500E+05   -1.8212965E+00
   1.4062872E-04   5.7891724E+05   -1.8207671E+00
   1.4127816E-04   5.7408164E+05   -1.8202369E+00
   1.4193060E-04   5.6928782E+05   -1.8197061E+00
   1.4258605E-04   5.6453541E+05   -1.8191745E+00
   1.4324453E-04   5.5982405E+05   -1.8186423E+00
   1.4390605E-04   5.5515337E+05   -1.8181095E+00
   1.4457062E-04   5.5052301E+05   -1.8175759E+00
   1.4523826E-04   5.4593262E+05   -1.8170417E+00
   1.4590899E-04   5.4138183E+05   -1.8165068E+00
   1.4658281E-04   5.3687030E+05   -1.8159713E+00
   1.4725974E-04   5.3239769E+05   -1.8154351E+00
   1.4793981E-04   5.2796363E+05   -1.8148983E+00
   1.4862301E-04   5.2356781E+05   -1.8143608E+00
   1.4930936E-04   5.1920987E+05   -1.8138227E+00
   1.4999889E-04   5.1488948E+05   -1.8132840E+00
   1.5069160E-04   5.1060630E+05   -1.8127446E+00
   1.5138751E-04   5.0636002E+05   -1.8122046E+00
   1.5208663E-04   5.0215030E+05   -1.8116640E+00
   1.5278899E-04   4.9797682E+05   -1.8111228E+00
   1.5349458E-04   4.9383926E+05   -1.8105809E+00
   1.5420343E-04   4.8973730E+05   -1.8100385E+00
   1.5491556E-04   4.8567063E+05   -1.8094955E+00
   1.5563098E-04   4.8163893E+05   -1.8089518E+00
   1.5634970E-04   4.7764189E+05   -1.8084076E+00
   1.5707174E-04   4.7367922E+05   -1.8078628E+00
   1.5779711E-04   4.6975060E+05   -1.8073174E+00
   1.5852584E-04   4.6585574E+05   -1.8067714E+00
   1.5925792E-04   4.6199433E+05   -1.8062249E+00
   1.5999339E-04   4.5816608E+05   -1.8056777E+00
   1.6073226E-04   4.5437070E+05   -1.8051301E+00
   1.6147454E-04   4.5060790E+05   -1.8045818E+00
   1.6222024E-04   4.4687739E+05   -1.8040330E+00
   1.6296939E-04   4.4317888E+05   -1.8034837E+00
   1.6372200E-04   4.3951210E+05   -1.8029338E+00
   1.6447809E-04   4.3587676E+05   -1.8023834E+00
   1.6523767E-04   4.3227259E+05   -1.8018325E+00
   1.6600075E-04   4.2869931E+05   -1.8012810E+00
   1.6676736E-04   4.2515664E+05   -1.8007290E+00
   1.6753751E-04   4.2164433E+05   -1.8001765E+00
   1.6831122E-04   4.1816210E+05   -1.7996235E+00
   1.6908849E-04   4.1470968E+05   -1.7990700E+00
   1.6986936E-04   4.1128681E+05   -1.7985159E+00
   1.7065384E-04   4.0789324E+05   -1.7979614E+00
   1.7144193E-04   4.0452870E+05   -1.7974064E+00
   1.7223367E-04   4.0119294E+05   -1.7968509E+00
   1.7302906E-04   3.9788571E+05   -1.7962949E+00
   1.7382813E-04   3.9460675E+05   -1.7957385E+00
   1.7463089E-04   3.9135582E+05   -1.7951816E+00
   1.7543735E-04   3.8813266E+05   -1.7946242E+00
   1.7624754E-04   3.8493705E+05   -1.7940663E+00
   1.7706147E-04   3.8176872E+05   -1.7935080E+00
   1.7787916E-04   3.7862744E+05   -1.7929493E+00
   1.7870062E-04   3.7551298E+05   -1.7923901E+00
   1.7952588E-04   3.7242510E+05   -1.7918305E+00
   1.8035495E-04   3.6936356E+05   -1.7912704E+00
   1.8118785E-04   3.6632813E+05   -1.7907099E+00
   1.8202459E-04   3.6331859E+05   -1.7901490E+00
   1.8286520E-04   3.6033471E+05   -1.7895877E+00
   1.8370969E-04   3.5737625E+05   -1.7890260E+00
   1.8455808E-04   3.5444301E+05   -1.7884638E+00
   1.8541039E-04   3.5153475E+05   -1.7879013E+00
   1.8626663E-04   3.4865125E+05   -1.7873384E+00
   1.8712683E-04   3.4579231E+05   -1.7867750E+00
   1.8799100E-04   3.4295770E+05   -1.7862113E+00
   1.8885917E-04   3.4014721E+05   -1.7856473E+00
   1.8973134E-04   3.3736063E+05   -1.7850828E+00
   1.9060754E-04   3.3459774E+05   -1.7845180E+00
   1.9148778E-04   3.3185835E+05   -1.7839528E+00
   1.9237209E-04   3.2914225E+05   -1.7833873E+00
   1.9326049E-04   3.2644922E+05   -1.7828214E+00
   1.9415299E-04   3.2377907E+05   -1.7822552E+00
   1.9504960E-04   3.2113160E+05   -1.7816887E+00
   1.9595036E-04   3.1850661E+05   -1.7811218E+00
   1.9685528E-04   3.1590391E+05   -1.7805546E+00
   1.9776438E-04   3.1332329E+05   -1.7799871E+00
   1.9867768E-04   3.1076456E+05   -1.7794192E+00
   1.9959519E-04   3.0822754E+05   -1.7788511E+00
   2.0051694E-04   3.0571203E+05   -1.7782826E+00
   2.0144295E-04   3.0321784E+05   -1.7777139E+00
   2.0237324E-04   3.0074479E+05   -1.7771448E+00
   2.0330782E-04   2.9829269E+05   -1.7765755E+00
   2.0424671E-04   2.9586136E+05   -1.7760059E+00
   2.0518995E-04   2.9345062E+05   -1.7754360E+00
   2.0613754E-04   2.9106029E+05   -1.7748659E+00
   2.0708950E-04   2.8869019E+05   -1.7742954E+00
   2.0804586E-04   2.8634014E+05   -1.7737248E+00
   2.0900664E-04   2.8400996E+05   -1.7731539E+00
   2.0997185E-04   2.8169949E+05   -1.7725827E+00
   2.1094152E-04   2.7940855E+05   -1.7720113E+00
   2.1191567E-04   2.7713698E+05   -1.7714397E+00
   2.1289432E-04   2.7488459E+05   -1.7708678E+00
   2.1387749E-04   2.7265123E+05   -1.7702958E+00
   2.1486520E-04   2.7043673E+05   -1.7697235E+00
   2.1585747E-04   2.6824092E+05   -1.7691510E+00
   2.1685432E-04   2.6606364E+05   -1.7685783E+00
   2.1785578E-04   2.6390473E+05   -1.7680054E+00
   2.1886186E-04   2.6176403E+05   -1.7674323E+00
   2.1987259E-04   2.5964138E+05   -1.7668590E+00
   2.2088798E-04   2.5753662E+05   -1.7662856E+00
   2.2190807E-04   2.5544960E+05   -1.7657119E+00
   2.2293286E-04   2.5338016E+05   -1.7651382E+00
   2.2396239E-04   2.5132816E+05   -1.7645642E+00
   2.2499667E-04   2.4929343E+05   -1.7639901E+00
   2.2603573E-04   2.4727582E+05   -1.7634158E+00
   2.2707958E-04   2.4527520E+05   -1.7628415E+00
   2.2812826E-04   2.4329140E+05   -1.7622669E+00
   2.2918178E-04   2.4132429E+05   -1.7616923E+00
   2.3024017E-04   2.3937372E+05   -1.7611175E+00
   2.3130344E-04   2.3743954E+05   -1.7605426E+00
   2.3237162E-04   2.3552162E+05   -1.7599676E+00
   2.3344474E-04   2.3361980E+05   -1.7593924E+00
   2.3452281E-04   2.3173396E+05   -1.7588172E+00
   2.3560586E-04   2.2986395E+05   -1.7582419E+00
   2.3669392E-04   2.2800964E+05   -1.7576665E+00
   2.3778699E-04   2.2617088E+05   -1.7570910E+00
   2.3888512E-04   2.2434754E+05   -1.7565155E+00
   2.3998831E-04   2.2253950E+05   -1.7559398E+00
   2.4109661E-04   2.2074661E+05   -1.7553641E+00
   2.4221001E-04   2.1896875E+05   -1.7547884E+00
   2.4332857E-04   2.1720578E+05   -1.7542126E+00
   2.4445228E-04   2.1545758E+05   -1.7536367E+00
   2.4558119E-04   2.1372402E+05   -1.7530609E+00
   2.4671531E-04   2.1200496E+05   -1.7524849E+00
   2.4785467E-04   2.1030029E+05   -1.7519090E+00
   2.4899928E-04   2.0860989E+05   -1.7513330E+00
   2.5014919E-04   2.0693361E+05   -1.7507570E+00
   2.5130440E-04   2.0527136E+05   -1.7501811E+00
   2.5246495E-04   2.0362299E+05   -1.7496051E+00
   2.5363086E-04   2.0198840E+05   -1.7490291E+00
   2.5480216E-04   2.0036746E+05   -1.7484531E+00
   2.5597886E-04   1.9876006E+05   -1.7478771E+00
   2.5716100E-04   1.9716608E+05   -1.7473012E+00
   2.5834859E-04   1.9558540E+05   -1.7467253E+00
   2.5954168E-04   1.9401790E+05   -1.7461494E+00
   2.6074027E-04   1.9246348E+05   -1.7455736E+00
   2.6194439E-04   1.9092202E+05   -1.7449978E+00
   2.6315408E-04   1.8939340E+05   -1.7444221E+00
   2.6436935E-04   1.8787753E+05   -1.7438464E+00
   2.6559024E-04   1.8637428E+05   -1.7432708E+00
   2.6681676E-04   1.8488355E+05   -1.7426952E+00
   2.6804895E-04   1.8340523E+05   -1.7421198E+00
   2.6928683E-04   1.8193921E+05   -1.7415444E+00
   2.7053042E-04   1.8048539E+05   -1.7409691E+00
   2.7177976E-04   1.7904366E+05   -1.7403939E+00
   2.7303487E-04   1.7761391E+05   -1.7398188E+00
   2.7429577E-04   1.7619606E+05   -1.7392438E+00
   2.7556250E-04   1.7478998E+05   -1.7386689E+00
   2.7683507E-04   1.7339558E+05   -1.7380942E+00
   2.7811353E-04   1.7201276E+05   -1.7375195E+00
   2.7939788E-04   1.7064143E+05   -1.7369450E+00
   2.8068817E-04   1.6928147E+05   -1.7363707E+00
   2.8198442E-04   1.6793279E+05   -1.7357965E+00
   2.8328665E-04   1.6659531E+05   -1.7352224E+00
   2.8459490E-04   1.6526891E+05   -1.7346485E+00
   2.8590919E-04   1.6395350E+05   -1.7340747E+00
   2.8722955E-04   1.6264900E+05   -1.7335012E+00
   2.8855600E-04   1.6135530E+05   -1.7329277E+00
   2.8988859E-04   1.6007231E+05   -1.7323545E+00
   2.9122732E-04   1.5879994E+05   -1.7317815E+00
   2.9257224E-04   1.5753810E+05   -1.7312086E+00
   2.9392337E-04   1.5628671E+05   -1.7306360E+00
   2.9528074E-04   1.5504566E+05   -1.7300635E+00
   2.9664438E-04   1.5381487E+05   -1.7294913E+00
   2.9801431E-04   1.5259425E+05   -1.7289193E+00
   2.9939057E-04   1.5138372E+05   -1.7283475E+00
   3.0077319E-04   1.5018319E+05   -1.7277759E+00
   3.0216219E-04   1.4899257E+05   -1.7272046E+00
   3.0355761E-04   1.4781178E+05   -1.7266335E+00
   3.0495947E-04   1.4664074E+05   -1.7260626E+00
   3.0636780E-04   1.4547935E+05   -1.7254920E+00
   3.0778264E-04   1.4432754E+05   -1.7249217E+00
   3.0920401E-04   1.4318523E+05   -1.7243516E+00
   3.1063195E-04   1.4205233E+05   -1.7237818E+00
   3.1206648E-04   1.4092876E+05   -1.7232122E+00
   3.1350764E-04   1.3981445E+05   -1.7226430E+00
   3.1495545E-04   1.3870931E+05   -1.7220740E+00
   3.1640994E-04   1.3761327E+05   -1.7215053E+00
   3.1787116E-04   1.3652625E+05   -1.7209369E+00
   3.1933912E-04   1.3544817E+05   -1.7203689E+00
   3.2081386E-04   1.3437895E+05   -1.7198011E+00
   3.2229541E-04   1.3331852E+05   -1.7192336E+00
   3.2378381E-04   1.3226680E+05   -1.7186665E+00
   3.2527908E-04   1.3122373E+05   -1.7180997E+00
   3.2678125E-04   1.3018922E+05   -1.7175332E+00
   3.2829036E-04   1.2916320E+05   -1.7169671E+00
   3.2980644E-04   1.2814561E+05   -1.7164013E+00
   3.3132952E-04   1.2713636E+05   -1.7158359E+00
   3.3285963E-04   1.2613539E+05   -1.7152708E+00
   3.3439681E-04   1.2514262E+05   -1.7147061E+00
   3.3594109E-04   1.2415799E+05   -1.7141417E+00
   3.3749250E-04   1.2318143E+05   -1.7135777E+00
   3.3905108E-04   1.2221287E+05   -1.7130141E+00
   3.4061685E-04   1.2125224E+05   -1.7124509E+00
   3.4218986E-04   1.2029947E+05   -1.7118880E+00
   3.4377013E-04   1.1935450E+05   -1.7113256E+00
   3.4535769E-04   1.1841726E+05   -1.7107636E+00
   3.4695259E-04   1.1748768E+05   -1.7102019E+00
   3.4855485E-04   1.1656570E+05   -1.7096407E+00
   3.5016452E-04   1.1565125E+05   -1.7090799E+00
   3.5178161E-04   1.1474427E+05   -1.7085195E+00
   3.5340618E-04   1.1384470E+05   -1.7079596E+00
   3.5503824E-04   1.1295248E+05   -1.7074000E+00
   3.5667785E-04   1.1206753E+05   -1.7068410E+00
   3.5832502E-04   1.1118981E+05   -1.7062823E+00
   3.5997981E-04   1.1031924E+05   -1.7057241E+00
   3.6164223E-04   1.0945577E+05   -1.7051664E+00
   3.6331233E-04   1.0859934E+05   -1.7046091E+00
   3.6499015E-04   1.0774989E+05   -1.7040523E+00
   3.6667571E-04   1.0690735E+05   -1.7034960E+00
   3.6836906E-04   1.0607168E+05   -1.7029401E+00
   3.7007022E-04   1.0524280E+05   -1.7023847E+00
   3.7177925E-04   1.0442067E+05   -1.7018298E+00
   3.7349616E-04   1.0360523E+05   -1.7012754E+00
   3.7522101E-04   1.0279642E+05   -1.7007215E+00
   3.7695382E-04   1.0199418E+05   -1.7001681E+00
   3.7869463E-04   1.0119846E+05   -1.6996152E+00
   3.8044348E-04   1.0040921E+05   -1.6990628E+00
   3.8220041E-04   9.9626359E+04   -1.6985109E+00
   3.8396545E-04   9.8849867E+04   -1.6979596E+00
   3.8573864E-04   9.8079676E+04   -1.6974088E+00
   3.8752002E-04   9.7315733E+04   -1.6968585E+00
   3.8930963E-04   9.6557985E+04   -1.6963087E+00
   3.9110750E-04   9.5806380E+04   -1.6957595E+00
   3.9291368E-04   9.5060865E+04   -1.6952109E+00
   3.9472820E-04   9.4321390E+04   -1.6946628E+00
   3.9655109E-04   9.3587904E+04   -1.6941152E+00
   3.9838241E-04   9.2860355E+04   -1.6935682E+00
   4.0022218E-04   9.2138695E+04   -1.6930218E+00
   4.0207045E-04   9.1422873E+04   -1.6924760E+00
   4.0392725E-04   9.0712840E+04   -1.6919307E+00
   4.0579263E-04   9.0008548E+04   -1.6913860E+00
   4.0766662E-04   8.9309948E+04   -1.6908420E+00
   4.0954927E-04   8.8616992E+04   -1.6902985E+00
   4.1144061E-04   8.7929633E+04   -1.6897555E+00
   4.1334068E-04   8.7247824E+04   -1.6892132E+00
   4.1524953E-04   8.6571517E+04   -1.6886715E+00
   4.1716720E-04   8.5900667E+04   -1.6881305E+00
   4.1909372E-04   8.5235228E+04   -1.6875900E+00
   4.2102914E-04   8.4575154E+04   -1.6870501E+00
   4.2297350E-04   8.3920401E+04   -1.6865109E+00
   4.2492683E-04   8.3270923E+04   -1.6859723E+00
   4.2688919E-04   8.2626677E+04   -1.6854344E+00
   4.2886061E-04   8.1987618E+04   -1.6848971E+00
   4.3084113E-04   8.1353703E+04   -1.6843604E+00
   4.3283080E-04   8.0724889E+04   -1.6838243E+00
   4.3482966E-04   8.0101133E+04   -1.6832890E+00
   4.3683775E-04   7.9482393E+04   -1.6827542E+00
   4.3885511E-04   7.8868626E+04   -1.6822202E+00
   4.4088179E-04   7.8259792E+04   -1.6816868E+00
   4.4291783E-04   7.7655848E+04   -1.6811541E+00
   4.4496327E-04   7.7056753E+04   -1.6806220E+00
   4.4701816E-04   7.6462468E+04   -1.6800907E+00
   4.4908253E-04   7.5872952E+04   -1.6795600E+00
   4.5115644E-04   7.5288165E+04   -1.6790300E+00
   4.5323993E-04   7.4708067E+04   -1.6785007E+00
   4.5533304E-04   7.4132620E+04   -1.6779721E+00
   4.5743582E-04   7.3561784E+04   -1.6774442E+00
   4.5954830E-04   7.2995522E+04   -1.6769170E+00
   4.6167054E-04   7.2433794E+04   -1.6763905E+00
   4.6380259E-04   7.1876563E+04   -1.6758647E+00
   4.6594448E-04   7.1323791E+04   -1.6753396E+00
   4.6809626E-04   7.0775442E+04   -1.6748153E+00
   4.7025797E-04   7.0231478E+04   -1.6742917E+00
   4.7242967E-04   6.9691862E+04   -1.6737688E+00
   4.7461140E-04   6.9156560E+04   -1.6732466E+00
   4.7680321E-04   6.8625534E+04   -1.6727252E+00
   4.7900514E-04   6.8098749E+04   -1.6722045E+00
   4.8121723E-04   6.7576169E+04   -1.6716846E+00
   4.8343954E-04   6.7057761E+04   -1.6711654E+00
   4.8567212E-04   6.6543488E+04   -1.6706470E+00
   4.8791500E-04   6.6033318E+04   -1.6701293E+00
   4.9016825E-04   6.5527214E+04   -1.6696124E+00
   4.9243189E-04   6.5025145E+04   -1.6690962E+00
   4.9470600E-04   6.4527075E+04   -1.6685809E+00
   4.9699060E-04   6.4032973E+04   -1.6680663E+00
   4.9928575E-04   6.3542804E+04   -1.6675524E+00
   5.0159151E-04   6.3056537E+04   -1.6670394E+00
   5.0390791E-04   6.2574139E+04   -1.6665271E+00
   5.0623501E-04   6.2095578E+04   -1.6660156E+00
   5.0857286E-04   6.1620822E+04   -1.6655049E+00
   5.1092150E-04   6.1149839E+04   -1.6649950E+00
   5.1328099E-04   6.0682599E+04   -1.6644859E+00
   5.1565137E-04   6.0219070E+04   -1.6639776E+00
   5.1803270E-04   5.9759222E+04   -1.6634701E+00
   5.2042503E-04   5.9303024E+04   -1.6629634E+00
   5.2282841E-04   5.8850445E+04   -1.6624575E+00
   5.2524289E-04   5.8401457E+04   -1.6619525E+00
   5.2766851E-04   5.7956028E+04   -1.6614482E+00
   5.3010534E-04   5.7514131E+04   -1.6609448E+00
   5.3255342E-04   5.7075735E+04   -1.6604422E+00
   5.3501281E-04   5.6640812E+04   -1.6599404E+00
   5.3748356E-04   5.6209333E+04   -1.6594395E+00
   5.3996571E-04   5.5781269E+04   -1.6589394E+00
   5.4245933E-04   5.5356593E+04   -1.6584401E+00
   5.4496446E-04   5.4935276E+04   -1.6579417E+00
   5.4748117E-04   5.4517291E+04   -1.6574441E+00
   5.5000949E-04   5.4102610E+04   -1.6569474E+00
   5.5254949E-04   5.3691206E+04   -1.6564515E+00
   5.5510123E-04   5.3283053E+04   -1.6559565E+00
   5.5766474E-04   5.2878122E+04   -1.6554623E+00
   5.6024010E-04   5.2476388E+04   -1.6549690E+00
   5.6282734E-04   5.2077825E+04   -1.6544765E+00
   5.6542654E-04   5.1682405E+04   -1.6539849E+00
   5.6803774E-04   5.1290105E+04   -1.6534942E+00
   5.7066099E-04   5.0900896E+04   -1.6530043E+00
   5.7329637E-04   5.0514756E+04   -1.6525154E+00
   5.7594391E-04   5.0131657E+04   -1.6520272E+00
   5.7860368E-04   4.9751576E+04   -1.6515400E+00
   5.8127573E-04   4.9374487E+04   -1.6510537E+00
   5.8396012E-04   4.9000366E+04   -1.6505682E+00
   5.8665691E-04   4.8629188E+04   -1.6500837E+00
   5.8936616E-04   4.8260930E+04   -1.6496000E+00
   5.9208791E-04   4.7895567E+04   -1.6491172E+00
   5.9482223E-04   4.7533076E+04   -1.6486353E+00
   5.9756919E-04   4.7173433E+04   -1.6481543E+00
   6.0032882E-04   4.6816614E+04   -1.6476742E+00
   6.0310120E-04   4.6462597E+04   -1.6471951E+00
   6.0588639E-04   4.6111359E+04   -1.6467168E+00
   6.0868443E-04   4.5762877E+04   -1.6462394E+00
   6.1149540E-04   4.5417128E+04   -1.6457629E+00
   6.1431935E-04   4.5074091E+04   -1.6452874E+00
   6.1715634E-04   4.4733742E+04   -1.6448128E+00
   6.2000644E-04   4.4396060E+04   -1.6443390E+00
   6.2286969E-04   4.4061024E+04   -1.6438663E+00
