#        a       HoverH0(a)       dlogHdloga_of_a(a)
   1.0000000E-04   1.0630658E+06   -1.8507131E+00
   1.0046181E-04   1.0540407E+06   -1.8502302E+00
   1.0092575E-04   1.0450944E+06   -1.8497464E+00
   1.0139184E-04   1.0362265E+06   -1.8492617E+00
   1.0186008E-04   1.0274360E+06   -1.8487761E+00
   1.0233048E-04   1.0187225E+06   -1.8482896E+00
   1.0280305E-04   1.0100850E+06   -1.8478022E+00
   1.0327781E-04   1.0015231E+06   -1.8473140E+00
   1.0375475E-04   9.9303599E+05   -1.8468249E+00
   1.0423390E-04   9.8462301E+05   -1.8463349E+00
   1.0471527E-04   9.7628351E+05   -1.8458440E+00
   1.0519885E-04   9.6801683E+05   -1.8453523E+00
   1.0568467E-04   9.5982233E+05   -1.8448597E+00
   1.0617274E-04   9.5169936E+05   -1.8443662E+00
   1.0666305E-04   9.4364728E+05   -1.8438719E+00
   1.0715563E-04   9.3566547E+05   -1.8433767E+00
   1.0765049E-04   9.2775329E+05   -1.8428807E+00
   1.0814763E-04   9.1991011E+05   -1.8423838E+00
   1.0864707E-04   9.1213534E+05   -1.8418861E+00
   1.0914881E-04   9.0442835E+05   -1.8413876E+00
   1.0965287E-04   8.9678853E+05   -1.8408881E+00
   1.1015926E-04   8.8921531E+05   -1.8403879E+00
   1.1066799E-04   8.8170807E+05   -1.8398868E+00
   1.1117906E-04   8.7426622E+05   -1.8393849E+00
   1.1169250E-04   8.6688920E+05   -1.8388822E+00
   1.1220831E-04   8.5957642E+05   -1.8383786E+00
   1.1272650E-04   8.5232730E+05   -1.8378742E+00
   1.1324708E-04   8.4514128E+05   -1.8373690E+00
   1.1377007E-04   8.3801781E+05   -1.8368630E+00
   1.1429547E-04   8.3095631E+05   -1.8363562E+00
   1.1482330E-04   8.2395625E+05   -1.8358485E+00
   1.1535356E-04   8.1701706E+05   -1.8353401E+00
   1.1588628E-04   8.1013822E+05   -1.8348309E+00
   1.1642145E-04   8.0331917E+05   -1.8343208E+00
   1.1695910E-04   7.9655940E+05   -1.8338100E+00
   1.1749923E-04   7.8985837E+05   -1.8332984E+00
   1.1804185E-04   7.8321555E+05   -1.8327860E+00
   1.1858698E-04   7.7663044E+05   -1.8322728E+00
   1.1913463E-04   7.7010252E+05   -1.8317588E+00
   1.1968481E-04   7.6363128E+05   -1.8312441E+00
   1.2023752E-04   7.5721621E+05   -1.8307286E+00
   1.2079279E-04   7.5085683E+05   -1.8302123E+00
   1.2135063E-04   7.4455262E+05   -1.8296953E+00
   1.2191104E-04   7.3830310E+05   -1.8291774E+00
   1.2247403E-04   7.3210779E+05   -1.8286589E+00
   1.2303963E-04   7.2596620E+05   -1.8281396E+00
   1.2360784E-04   7.1987785E+05   -1.8276195E+00
   1.2417868E-04   7.1384228E+05   -1.8270987E+00
   1.2475215E-04   7.0785900E+05   -1.8265772E+00
   1.2532826E-04   7.0192757E+05   -1.8260549E+00
   1.2590704E-04   6.9604752E+05   -1.8255319E+00
   1.2648850E-04   6.9021838E+05   -1.8250081E+00
   1.2707263E-04   6.8443972E+05   -1.8244836E+00
   1.2765947E-04   6.7871107E+05   -1.8239585E+00
   1.2824901E-04   6.7303201E+05   -1.8234326E+00
   1.2884128E-04   6.6740208E+05   -1.8229059E+00
   1.2943628E-04   6.6182086E+05   -1.8223786E+00
   1.3003403E-04   6.5628790E+05   -1.8218506E+00
   1.3063454E-04   6.5080279E+05   -1.8213218E+00
   1.3123783E-04   6.4536509E+05   -1.8207924E+00
   1.3184390E-04   6.3997438E+05   -1.8202623E+00
   1.3245277E-04   6.3463026E+05   -1.8197315E+00
   1.3306445E-04   6.2933230E+05   -1.8192000E+00
   1.3367895E-04   6.2408010E+05   -1.8186678E+00
   1.3429630E-04   6.1887325E+05   -1.8181350E+00
   1.3491649E-04   6.1371135E+05   -1.8176015E+00
   1.3553955E-04   6.0859400E+05   -1.8170673E+00
   1.3616548E-04   6.0352081E+05   -1.8165325E+00
   1.3679431E-04   5.9849139E+05   -1.8159970E+00
   1.3742604E-04   5.9350534E+05   -1.8154608E+00
   1.3806069E-04   5.8856229E+05   -1.8149241E+00
   1.3869827E-04   5.8366185E+05   -1.8143866E+00
   1.3933879E-04   5.7880364E+05   -1.8138485E+00
   1.3998227E-04   5.7398730E+05   -1.8133098E+00
   1.4062872E-04   5.6921245E+05   -1.8127705E+00
   1.4127816E-04   5.6447872E+05   -1.8122305E+00
   1.4193060E-04   5.5978575E+05   -1.8116900E+00
   1.4258605E-04   5.5513318E+05   -1.8111488E+00
   1.4324453E-04   5.5052066E+05   -1.8106070E+00
   1.4390605E-04   5.4594782E+05   -1.8100646E+00
   1.4457062E-04   5.4141432E+05   -1.8095215E+00
   1.4523826E-04   5.3691981E+05   -1.8089779E+00
   1.4590899E-04   5.3246395E+05   -1.8084337E+00
   1.4658281E-04   5.2804639E+05   -1.8078890E+00
   1.4725974E-04   5.2366680E+05   -1.8073436E+00
   1.4793981E-04   5.1932483E+05   -1.8067976E+00
   1.4862301E-04   5.1502016E+05   -1.8062511E+00
   1.4930936E-04   5.1075246E+05   -1.8057040E+00
   1.4999889E-04   5.0652141E+05   -1.8051564E+00
   1.5069160E-04   5.0232667E+05   -1.8046082E+00
   1.5138751E-04   4.9816792E+05   -1.8040594E+00
   1.5208663E-04   4.9404486E+05   -1.8035101E+00
   1.5278899E-04   4.8995716E+05   -1.8029603E+00
   1.5349458E-04   4.8590452E+05   -1.8024099E+00
   1.5420343E-04   4.8188662E+05   -1.8018590E+00
   1.5491556E-04   4.7790315E+05   -1.8013076E+00
   1.5563098E-04   4.7395382E+05   -1.8007556E+00
   1.5634970E-04   4.7003833E+05   -1.8002031E+00
   1.5707174E-04   4.6615636E+05   -1.7996501E+00
   1.5779711E-04   4.6230764E+05   -1.7990966E+00
   1.5852584E-04   4.5849186E+05   -1.7985426E+00
   1.5925792E-04   4.5470874E+05   -1.7979881E+00
   1.5999339E-04   4.5095799E+05   -1.7974331E+00
   1.6073226E-04   4.4723931E+05   -1.7968777E+00
   1.6147454E-04   4.4355244E+05   -1.7963217E+00
   1.6222024E-04   4.3989709E+05   -1.7957653E+00
   1.6296939E-04   4.3627298E+05   -1.7952084E+00
   1.6372200E-04   4.3267985E+05   -1.7946510E+00
   1.6447809E-04   4.2911740E+05   -1.7940932E+00
   1.6523767E-04   4.2558538E+05   -1.7935349E+00
   1.6600075E-04   4.2208352E+05   -1.7929762E+00
   1.6676736E-04   4.1861156E+05   -1.7924171E+00
   1.6753751E-04   4.1516922E+05   -1.7918575E+00
   1.6831122E-04   4.1175625E+05   -1.7912974E+00
   1.6908849E-04   4.0837239E+05   -1.7907370E+00
   1.6986936E-04   4.0501739E+05   -1.7901761E+00
   1.7065384E-04   4.0169098E+05   -1.7896148E+00
   1.7144193E-04   3.9839293E+05   -1.7890531E+00
   1.7223367E-04   3.9512298E+05   -1.7884910E+00
   1.7302906E-04   3.9188089E+05   -1.7879285E+00
   1.7382813E-04   3.8866640E+05   -1.7873656E+00
   1.7463089E-04   3.8547929E+05   -1.7868023E+00
   1.7543735E-04   3.8231930E+05   -1.7862386E+00
   1.7624754E-04   3.7918620E+05   -1.7856745E+00
   1.7706147E-04   3.7607975E+05   -1.7851101E+00
   1.7787916E-04   3.7299972E+05   -1.7845453E+00
   1.7870062E-04   3.6994588E+05   -1.7839802E+00
   1.7952588E-04   3.6691800E+05   -1.7834147E+00
   1.8035495E-04   3.6391585E+05   -1.7828488E+00
   1.8118785E-04   3.6093920E+05   -1.7822826E+00
   1.8202459E-04   3.5798784E+05   -1.7817161E+00
   1.8286520E-04   3.5506153E+05   -1.7811492E+00
   1.8370969E-04   3.5216007E+05   -1.7805820E+00
   1.8455808E-04   3.4928323E+05   -1.7800145E+00
   1.8541039E-04   3.4643080E+05   -1.7794467E+00
   1.8626663E-04   3.4360256E+05   -1.7788786E+00
   1.8712683E-04   3.4079830E+05   -1.7783101E+00
   1.8799100E-04   3.3801781E+05   -1.7777414E+00
   1.8885917E-04   3.3526089E+05   -1.7771724E+00
   1.8973134E-04   3.3252733E+05   -1.7766031E+00
   1.9060754E-04   3.2981692E+05   -1.7760335E+00
   1.9148778E-04   3.2712946E+05   -1.7754636E+00
   1.9237209E-04   3.2446475E+05   -1.7748935E+00
   1.9326049E-04   3.2182259E+05   -1.7743231E+00
   1.9415299E-04   3.1920279E+05   -1.7737525E+00
   1.9504960E-04   3.1660515E+05   -1.7731816E+00
   1.9595036E-04   3.1402947E+05   -1.7726104E+00
   1.9685528E-04   3.1147556E+05   -1.7720390E+00
   1.9776438E-04   3.0894324E+05   -1.7714674E+00
   1.9867768E-04   3.0643232E+05   -1.7708956E+00
   1.9959519E-04   3.0394260E+05   -1.7703235E+00
   2.0051694E-04   3.0147391E+05   -1.7697513E+00
   2.0144295E-04   2.9902606E+05   -1.7691788E+00
   2.0237324E-04   2.9659886E+05   -1.7686061E+00
   2.0330782E-04   2.9419214E+05   -1.7680332E+00
   2.0424671E-04   2.9180572E+05   -1.7674601E+00
   2.0518995E-04   2.8943943E+05   -1.7668869E+00
   2.0613754E-04   2.8709308E+05   -1.7663135E+00
   2.0708950E-04   2.8476650E+05   -1.7657399E+00
   2.0804586E-04   2.8245953E+05   -1.7651661E+00
   2.0900664E-04   2.8017198E+05   -1.7645921E+00
   2.0997185E-04   2.7790370E+05   -1.7640181E+00
   2.1094152E-04   2.7565451E+05   -1.7634438E+00
   2.1191567E-04   2.7342425E+05   -1.7628694E+00
   2.1289432E-04   2.7121275E+05   -1.7622949E+00
   2.1387749E-04   2.6901985E+05   -1.7617203E+00
   2.1486520E-04   2.6684538E+05   -1.7611455E+00
   2.1585747E-04   2.6468920E+05   -1.7605706E+00
   2.1685432E-04   2.6255113E+05   -1.7599956E+00
   2.1785578E-04   2.6043102E+05   -1.7594205E+00
   2.1886186E-04   2.5832872E+05   -1.7588453E+00
   2.1987259E-04   2.5624406E+05   -1.7582700E+00
   2.2088798E-04   2.5417691E+05   -1.7576946E+00
   2.2190807E-04   2.5212709E+05   -1.7571191E+00
   2.2293286E-04   2.5009447E+05   -1.7565436E+00
   2.2396239E-04   2.4807890E+05   -1.7559679E+00
   2.2499667E-04   2.4608022E+05   -1.7553923E+00
   2.2603573E-04   2.4409830E+05   -1.7548165E+00
   2.2707958E-04   2.4213297E+05   -1.7542407E+00
   2.2812826E-04   2.4018411E+05   -1.7536649E+00
   2.2918178E-04   2.3825157E+05   -1.7530890E+00
   2.3024017E-04   2.3633520E+05   -1.7525131E+00
   2.3130344E-04   2.3443487E+05   -1.7519372E+00
   2.3237162E-04   2.3255043E+05   -1.7513612E+00
   2.3344474E-04   2.3068176E+05   -1.7507852E+00
   2.3452281E-04   2.2882871E+05   -1.7502093E+00
   2.3560586E-04   2.2699115E+05   -1.7496333E+00
   2.3669392E-04   2.2516894E+05   -1.7490573E+00
   2.3778699E-04   2.2336195E+05   -1.7484813E+00
   2.3888512E-04   2.2157005E+05   -1.7479054E+00
   2.3998831E-04   2.1979311E+05   -1.7473294E+00
   2.4109661E-04   2.1803100E+05   -1.7467535E+00
   2.4221001E-04   2.1628359E+05   -1.7461777E+00
   2.4332857E-04   2.1455075E+05   -1.7456018E+00
   2.4445228E-04   2.1283236E+05   -1.7450260E+00
   2.4558119E-04   2.1112829E+05   -1.7444503E+00
   2.4671531E-04   2.0943843E+05   -1.7438746E+00
   2.4785467E-04   2.0776264E+05   -1.7432990E+00
   2.4899928E-04   2.0610080E+05   -1.7427235E+00
   2.5014919E-04   2.0445280E+05   -1.7421480E+00
   2.5130440E-04   2.0281852E+05   -1.7415727E+00
   2.5246495E-04   2.0119783E+05   -1.7409974E+00
   2.5363086E-04   1.9959062E+05   -1.7404222E+00
   2.5480216E-04   1.9799678E+05   -1.7398471E+00
   2.5597886E-04   1.9641618E+05   -1.7392721E+00
   2.5716100E-04   1.9484872E+05   -1.7386972E+00
   2.5834859E-04   1.9329428E+05   -1.7381225E+00
   2.5954168E-04   1.9175274E+05   -1.7375478E+00
   2.6074027E-04   1.9022401E+05   -1.7369733E+00
   2.6194439E-04   1.8870796E+05   -1.7363990E+00
   2.6315408E-04   1.8720449E+05   -1.7358248E+00
   2.6436935E-04   1.8571349E+05   -1.7352507E+00
   2.6559024E-04   1.8423485E+05   -1.7346768E+00
   2.6681676E-04   1.8276847E+05   -1.7341030E+00
   2.6804895E-04   1.8131423E+05   -1.7335295E+00
   2.6928683E-04   1.7987205E+05   -1.7329561E+00
   2.7053042E-04   1.7844181E+05   -1.7323828E+00
   2.7177976E-04   1.7702340E+05   -1.7318098E+00
   2.7303487E-04   1.7561674E+05   -1.7312369E+00
   2.7429577E-04   1.7422171E+05   -1.7306643E+00
   2.7556250E-04   1.7283822E+05   -1.7300918E+00
   2.7683507E-04   1.7146617E+05   -1.7295196E+00
   2.7811353E-04   1.7010546E+05   -1.7289476E+00
   2.7939788E-04   1.6875599E+05   -1.7283758E+00
   2.8068817E-04   1.6741767E+05   -1.7278042E+00
   2.8198442E-04   1.6609039E+05   -1.7272329E+00
   2.8328665E-04   1.6477408E+05   -1.7266618E+00
   2.8459490E-04   1.6346863E+05   -1.7260909E+00
   2.8590919E-04   1.6217394E+05   -1.7255203E+00
   2.8722955E-04   1.6088994E+05   -1.7249499E+00
   2.8855600E-04   1.5961652E+05   -1.7243799E+00
   2.8988859E-04   1.5835359E+05   -1.7238100E+00
   2.9122732E-04   1.5710107E+05   -1.7232405E+00
   2.9257224E-04   1.5585886E+05   -1.7226712E+00
   2.9392337E-04   1.5462688E+05   -1.7221023E+00
   2.9528074E-04   1.5340505E+05   -1.7215336E+00
   2.9664438E-04   1.5219326E+05   -1.7209652E+00
   2.9801431E-04   1.5099144E+05   -1.7203971E+00
   2.9939057E-04   1.4979951E+05   -1.7198293E+00
   3.0077319E-04   1.4861737E+05   -1.7192619E+00
   3.0216219E-04   1.4744495E+05   -1.7186947E+00
   3.0355761E-04   1.4628216E+05   -1.7181279E+00
   3.0495947E-04   1.4512892E+05   -1.7175614E+00
   3.0636780E-04   1.4398514E+05   -1.7169953E+00
   3.0778264E-04   1.4285075E+05   -1.7164295E+00
   3.0920401E-04   1.4172567E+05   -1.7158641E+00
   3.1063195E-04   1.4060982E+05   -1.7152990E+00
   3.1206648E-04   1.3950311E+05   -1.7147342E+00
   3.1350764E-04   1.3840548E+05   -1.7141699E+00
   3.1495545E-04   1.3731684E+05   -1.7136059E+00
   3.1640994E-04   1.3623711E+05   -1.7130423E+00
   3.1787116E-04   1.3516623E+05   -1.7124790E+00
   3.1933912E-04   1.3410411E+05   -1.7119162E+00
   3.2081386E-04   1.3305068E+05   -1.7113537E+00
   3.2229541E-04   1.3200587E+05   -1.7107917E+00
   3.2378381E-04   1.3096960E+05   -1.7102301E+00
   3.2527908E-04   1.2994181E+05   -1.7096688E+00
   3.2678125E-04   1.2892241E+05   -1.7091080E+00
   3.2829036E-04   1.2791134E+05   -1.7085476E+00
   3.2980644E-04   1.2690853E+05   -1.7079876E+00
   3.3132952E-04   1.2591390E+05   -1.7074281E+00
   3.3285963E-04   1.2492739E+05   -1.7068690E+00
   3.3439681E-04   1.2394893E+05   -1.7063104E+00
   3.3594109E-04   1.2297845E+05   -1.7057522E+00
   3.3749250E-04   1.2201588E+05   -1.7051944E+00
   3.3905108E-04   1.2106116E+05   -1.7046371E+00
   3.4061685E-04   1.2011422E+05   -1.7040803E+00
   3.4218986E-04   1.1917498E+05   -1.7035240E+00
   3.4377013E-04   1.1824340E+05   -1.7029681E+00
   3.4535769E-04   1.1731940E+05   -1.7024127E+00
   3.4695259E-04   1.1640291E+05   -1.7018578E+00
   3.4855485E-04   1.1549388E+05   -1.7013034E+00
   3.5016452E-04   1.1459225E+05   -1.7007494E+00
   3.5178161E-04   1.1369794E+05   -1.7001960E+00
   3.5340618E-04   1.1281089E+05   -1.6996431E+00
   3.5503824E-04   1.1193106E+05   -1.6990907E+00
   3.5667785E-04   1.1105837E+05   -1.6985388E+00
   3.5832502E-04   1.1019276E+05   -1.6979875E+00
   3.5997981E-04   1.0933417E+05   -1.6974366E+00
   3.6164223E-04   1.0848256E+05   -1.6968863E+00
   3.6331233E-04   1.0763784E+05   -1.6963366E+00
   3.6499015E-04   1.0679998E+05   -1.6957874E+00
   3.6667571E-04   1.0596891E+05   -1.6952387E+00
   3.6836906E-04   1.0514456E+05   -1.6946906E+00
   3.7007022E-04   1.0432690E+05   -1.6941430E+00
   3.7177925E-04   1.0351585E+05   -1.6935960E+00
   3.7349616E-04   1.0271137E+05   -1.6930496E+00
   3.7522101E-04   1.0191340E+05   -1.6925037E+00
   3.7695382E-04   1.0112188E+05   -1.6919585E+00
   3.7869463E-04   1.0033676E+05   -1.6914138E+00
   3.8044348E-04   9.9557981E+04   -1.6908696E+00
   3.8220041E-04   9.8785498E+04   -1.6903261E+00
   3.8396545E-04   9.8019254E+04   -1.6897832E+00
   3.8573864E-04   9.7259197E+04   -1.6892409E+00
   3.8752002E-04   9.6505274E+04   -1.6886992E+00
   3.8930963E-04   9.5757435E+04   -1.6881581E+00
   3.9110750E-04   9.5015627E+04   -1.6876176E+00
   3.9291368E-04   9.4279800E+04   -1.6870777E+00
   3.9472820E-04   9.3549905E+04   -1.6865385E+00
   3.9655109E-04   9.2825891E+04   -1.6859999E+00
   3.9838241E-04   9.2107708E+04   -1.6854619E+00
   4.0022218E-04   9.1395309E+04   -1.6849246E+00
   4.0207045E-04   9.0688643E+04   -1.6843879E+00
   4.0392725E-04   8.9987665E+04   -1.6838518E+00
   4.0579263E-04   8.9292325E+04   -1.6833164E+00
   4.0766662E-04   8.8602576E+04   -1.6827817E+00
   4.0954927E-04   8.7918372E+04   -1.6822476E+00
   4.1144061E-04   8.7239666E+04   -1.6817142E+00
   4.1334068E-04   8.6566411E+04   -1.6811815E+00
   4.1524953E-04   8.5898564E+04   -1.6806494E+00
   4.1716720E-04   8.5236077E+04   -1.6801180E+00
   4.1909372E-04   8.4578907E+04   -1.6795873E+00
   4.2102914E-04   8.3927008E+04   -1.6790573E+00
   4.2297350E-04   8.3280338E+04   -1.6785280E+00
   4.2492683E-04   8.2638851E+04   -1.6779993E+00
   4.2688919E-04   8.2002505E+04   -1.6774714E+00
   4.2886061E-04   8.1371258E+04   -1.6769442E+00
   4.3084113E-04   8.0745065E+04   -1.6764177E+00
   4.3283080E-04   8.0123886E+04   -1.6758919E+00
   4.3482966E-04   7.9507678E+04   -1.6753668E+00
   4.3683775E-04   7.8896399E+04   -1.6748424E+00
   4.3885511E-04   7.8290010E+04   -1.6743188E+00
   4.4088179E-04   7.7688468E+04   -1.6737959E+00
   4.4291783E-04   7.7091734E+04   -1.6732737E+00
   4.4496327E-04   7.6499767E+04   -1.6727523E+00
   4.4701816E-04   7.5912528E+04   -1.6722316E+00
   4.4908253E-04   7.5329978E+04   -1.6717116E+00
   4.5115644E-04   7.4752077E+04   -1.6711924E+00
   4.5323993E-04   7.4178787E+04   -1.6706740E+00
   4.5533304E-04   7.3610069E+04   -1.6701563E+00
   4.5743582E-04   7.3045886E+04   -1.6696393E+00
   4.5954830E-04   7.2486199E+04   -1.6691232E+00
   4.6167054E-04   7.1930972E+04   -1.6686078E+00
   4.6380259E-04   7.1380167E+04   -1.6680931E+00
   4.6594448E-04   7.0833747E+04   -1.6675793E+00
   4.6809626E-04   7.0291677E+04   -1.6670662E+00
   4.7025797E-04   6.9753919E+04   -1.6665539E+00
   4.7242967E-04   6.9220439E+04   -1.6660424E+00
   4.7461140E-04   6.8691201E+04   -1.6655317E+00
   4.7680321E-04   6.8166170E+04   -1.6650218E+00
   4.7900514E-04   6.7645310E+04   -1.6645126E+00
   4.8121723E-04   6.7128587E+04   -1.6640043E+00
   4.8343954E-04   6.6615968E+04   -1.6634968E+00
   4.8567212E-04   6.6107418E+04   -1.6629901E+00
   4.8791500E-04   6.5602903E+04   -1.6624842E+00
   4.9016825E-04   6.5102390E+04   -1.6619791E+00
   4.9243189E-04   6.4605845E+04   -1.6614748E+00
   4.9470600E-04   6.4113237E+04   -1.6609714E+00
   4.9699060E-04   6.3624533E+04   -1.6604688E+00
   4.9928575E-04   6.3139699E+04   -1.6599670E+00
   5.0159151E-04   6.2658705E+04   -1.6594660E+00
   5.0390791E-04   6.2181518E+04   -1.6589659E+00
   5.0623501E-04   6.1708108E+04   -1.6584666E+00
   5.0857286E-04   6.1238442E+04   -1.6579681E+00
   5.1092150E-04   6.0772491E+04   -1.6574705E+00
   5.1328099E-04   6.0310223E+04   -1.6569738E+00
   5.1565137E-04   5.9851609E+04   -1.6564778E+00
   5.1803270E-04   5.9396617E+04   -1.6559828E+00
   5.2042503E-04   5.8945219E+04   -1.6554886E+00
   5.2282841E-04   5.8497384E+04   -1.6549952E+00
   5.2524289E-04   5.8053083E+04   -1.6545028E+00
   5.2766851E-04   5.7612288E+04   -1.6540111E+00
   5.3010534E-04   5.7174969E+04   -1.6535204E+00
   5.3255342E-04   5.6741097E+04   -1.6530305E+00
   5.3501281E-04   5.6310645E+04   -1.6525415E+00
   5.3748356E-04   5.5883585E+04   -1.6520534E+00
   5.3996571E-04   5.5459888E+04   -1.6515661E+00
   5.4245933E-04   5.5039526E+04   -1.6510798E+00
   5.4496446E-04   5.4622473E+04   -1.6505943E+00
   5.4748117E-04   5.4208702E+04   -1.6501097E+00
   5.5000949E-04   5.3798185E+04   -1.6496260E+00
   5.5254949E-04   5.3390895E+04   -1.6491432E+00
   5.5510123E-04   5.2986807E+04   -1.6486613E+00
   5.5766474E-04   5.2585894E+04   -1.6481803E+00
   5.6024010E-04   5.2188129E+04   -1.6477002E+00
   5.6282734E-04   5.1793488E+04   -1.6472209E+00
   5.6542654E-04   5.1401944E+04   -1.6467426E+00
   5.6803774E-04   5.1013473E+04   -1.6462652E+00
   5.7066099E-04   5.0628049E+04   -1.6457888E+00
   5.7329637E-04   5.0245647E+04   -1.6453132E+00
   5.7594391E-04   4.9866243E+04   -1.6448385E+00
   5.7860368E-04   4.9489811E+04   -1.6443648E+00
   5.8127573E-04   4.9116329E+04   -1.6438920E+00
   5.8396012E-04   4.8745771E+04   -1.6434201E+00
   5.8665691E-04   4.8378113E+04   -1.6429491E+00
   5.8936616E-04   4.8013333E+04   -1.6424791E+00
   5.9208791E-04   4.7651407E+04   -1.6420100E+00
   5.9482223E-04   4.7292310E+04   -1.6415418E+00
   5.9756919E-04   4.6936021E+04   -1.6410745E+00
   6.0032882E-04   4.6582517E+04   -1.6406082E+00
   6.0310120E-04   4.6231774E+04   -1.6401428E+00
   6.0588639E-04   4.5883770E+04   -1.6396784E+00
   6.0868443E-04   4.5538483E+04   -1.6392149E+00
   6.1149540E-04   4.5195891E+04   -1.6387524E+00
   6.1431935E-04   4.4855972E+04   -1.6382908E+00
   6.1715634E-04   4.4518704E+04   -1.6378301E+00
   6.2000644E-04   4.4184065E+04   -1.6373704E+00
   6.2286969E-04   4.3852035E+04   -1.6369117E+00
