#        a       HoverH0(a)       dlogHdloga_of_a(a)
   1.0000000E-04   1.0967221E+06   -1.8388259E+00
   1.0046181E-04   1.0874708E+06   -1.8383223E+00
   1.0092575E-04   1.0783000E+06   -1.8378178E+00
   1.0139184E-04   1.0692091E+06   -1.8373125E+00
   1.0186008E-04   1.0601973E+06   -1.8368064E+00
   1.0233048E-04   1.0512639E+06   -1.8362995E+00
   1.0280305E-04   1.0424082E+06   -1.8357918E+00
   1.0327781E-04   1.0336295E+06   -1.8352833E+00
   1.0375475E-04   1.0249272E+06   -1.8347739E+00
   1.0423390E-04   1.0163005E+06   -1.8342638E+00
   1.0471527E-04   1.0077488E+06   -1.8337529E+00
   1.0519885E-04   9.9927139E+05   -1.8332412E+00
   1.0568467E-04   9.9086765E+05   -1.8327287E+00
   1.0617274E-04   9.8253690E+05   -1.8322154E+00
   1.0666305E-04   9.7427851E+05   -1.8317014E+00
   1.0715563E-04   9.6609181E+05   -1.8311866E+00
   1.0765049E-04   9.5797618E+05   -1.8306710E+00
   1.0814763E-04   9.4993099E+05   -1.8301546E+00
   1.0864707E-04   9.4195560E+05   -1.8296375E+00
   1.0914881E-04   9.3404940E+05   -1.8291196E+00
   1.0965287E-04   9.2621177E+05   -1.8286009E+00
   1.1015926E-04   9.1844210E+05   -1.8280816E+00
   1.1066799E-04   9.1073979E+05   -1.8275614E+00
   1.1117906E-04   9.0310424E+05   -1.8270405E+00
   1.1169250E-04   8.9553486E+05   -1.8265189E+00
   1.1220831E-04   8.8803105E+05   -1.8259965E+00
   1.1272650E-04   8.8059224E+05   -1.8254734E+00
   1.1324708E-04   8.7321785E+05   -1.8249496E+00
   1.1377007E-04   8.6590731E+05   -1.8244251E+00
   1.1429547E-04   8.5866005E+05   -1.8238998E+00
   1.1482330E-04   8.5147550E+05   -1.8233738E+00
   1.1535356E-04   8.4435312E+05   -1.8228471E+00
   1.1588628E-04   8.3729235E+05   -1.8223197E+00
   1.1642145E-04   8.3029264E+05   -1.8217916E+00
   1.1695910E-04   8.2335345E+05   -1.8212628E+00
   1.1749923E-04   8.1647425E+05   -1.8207333E+00
   1.1804185E-04   8.0965450E+05   -1.8202031E+00
   1.1858698E-04   8.0289368E+05   -1.8196723E+00
   1.1913463E-04   7.9619126E+05   -1.8191407E+00
   1.1968481E-04   7.8954672E+05   -1.8186085E+00
   1.2023752E-04   7.8295956E+05   -1.8180756E+00
   1.2079279E-04   7.7642926E+05   -1.8175420E+00
   1.2135063E-04   7.6995533E+05   -1.8170077E+00
   1.2191104E-04   7.6353725E+05   -1.8164728E+00
   1.2247403E-04   7.5717454E+05   -1.8159373E+00
   1.2303963E-04   7.5086671E+05   -1.8154010E+00
   1.2360784E-04   7.4461326E+05   -1.8148642E+00
   1.2417868E-04   7.3841373E+05   -1.8143267E+00
   1.2475215E-04   7.3226762E+05   -1.8137885E+00
   1.2532826E-04   7.2617447E+05   -1.8132498E+00
   1.2590704E-04   7.2013381E+05   -1.8127104E+00
   1.2648850E-04   7.1414518E+05   -1.8121704E+00
   1.2707263E-04   7.0820811E+05   -1.8116297E+00
   1.2765947E-04   7.0232215E+05   -1.8110884E+00
   1.2824901E-04   6.9648684E+05   -1.8105466E+00
   1.2884128E-04   6.9070175E+05   -1.8100041E+00
   1.2943628E-04   6.8496642E+05   -1.8094610E+00
   1.3003403E-04   6.7928041E+05   -1.8089174E+00
   1.3063454E-04   6.7364330E+05   -1.8083731E+00
   1.3123783E-04   6.6805464E+05   -1.8078283E+00
   1.3184390E-04   6.6251401E+05   -1.8072828E+00
   1.3245277E-04   6.5702098E+05   -1.8067368E+00
   1.3306445E-04   6.5157513E+05   -1.8061903E+00
   1.3367895E-04   6.4617605E+05   -1.8056431E+00
   1.3429630E-04   6.4082333E+05   -1.8050954E+00
   1.3491649E-04   6.3551655E+05   -1.8045471E+00
   1.3553955E-04   6.3025531E+05   -1.8039983E+00
   1.3616548E-04   6.2503921E+05   -1.8034490E+00
   1.3679431E-04   6.1986785E+05   -1.8028991E+00
   1.3742604E-04   6.1474083E+05   -1.8023486E+00
   1.3806069E-04   6.0965777E+05   -1.8017977E+00
   1.3869827E-04   6.0461827E+05   -1.8012462E+00
   1.3933879E-04   5.9962195E+05   -1.8006942E+00
   1.3998227E-04   5.9466844E+05   -1.8001416E+00
   1.4062872E-04   5.8975734E+05   -1.7995886E+00
   1.4127816E-04   5.8488830E+05   -1.7990350E+00
   1.4193060E-04   5.8006093E+05   -1.7984810E+00
   1.4258605E-04   5.7527488E+05   -1.7979265E+00
   1.4324453E-04   5.7052977E+05   -1.7973714E+00
   1.4390605E-04   5.6582525E+05   -1.7968159E+00
   1.4457062E-04   5.6116096E+05   -1.7962599E+00
   1.4523826E-04   5.5653655E+05   -1.7957034E+00
   1.4590899E-04   5.5195166E+05   -1.7951465E+00
   1.4658281E-04   5.4740595E+05   -1.7945891E+00
   1.4725974E-04   5.4289907E+05   -1.7940312E+00
   1.4793981E-04   5.3843069E+05   -1.7934729E+00
   1.4862301E-04   5.3400045E+05   -1.7929141E+00
   1.4930936E-04   5.2960803E+05   -1.7923549E+00
   1.4999889E-04   5.2525309E+05   -1.7917953E+00
   1.5069160E-04   5.2093531E+05   -1.7912352E+00
   1.5138751E-04   5.1665435E+05   -1.7906747E+00
   1.5208663E-04   5.1240990E+05   -1.7901138E+00
   1.5278899E-04   5.0820163E+05   -1.7895524E+00
   1.5349458E-04   5.0402923E+05   -1.7889907E+00
   1.5420343E-04   4.9989237E+05   -1.7884285E+00
   1.5491556E-04   4.9579076E+05   -1.7878660E+00
   1.5563098E-04   4.9172407E+05   -1.7873031E+00
   1.5634970E-04   4.8769201E+05   -1.7867397E+00
   1.5707174E-04   4.8369426E+05   -1.7861760E+00
   1.5779711E-04   4.7973054E+05   -1.7856119E+00
   1.5852584E-04   4.7580052E+05   -1.7850475E+00
   1.5925792E-04   4.7190394E+05   -1.7844827E+00
   1.5999339E-04   4.6804048E+05   -1.7839175E+00
   1.6073226E-04   4.6420986E+05   -1.7833519E+00
   1.6147454E-04   4.6041179E+05   -1.7827861E+00
   1.6222024E-04   4.5664599E+05   -1.7822198E+00
   1.6296939E-04   4.5291217E+05   -1.7816533E+00
   1.6372200E-04   4.4921006E+05   -1.7810864E+00
   1.6447809E-04   4.4553937E+05   -1.7805192E+00
   1.6523767E-04   4.4189983E+05   -1.7799516E+00
   1.6600075E-04   4.3829117E+05   -1.7793838E+00
   1.6676736E-04   4.3471311E+05   -1.7788156E+00
   1.6753751E-04   4.3116539E+05   -1.7782471E+00
   1.6831122E-04   4.2764775E+05   -1.7776784E+00
   1.6908849E-04   4.2415992E+05   -1.7771093E+00
   1.6986936E-04   4.2070163E+05   -1.7765400E+00
   1.7065384E-04   4.1727264E+05   -1.7759704E+00
   1.7144193E-04   4.1387268E+05   -1.7754005E+00
   1.7223367E-04   4.1050151E+05   -1.7748304E+00
   1.7302906E-04   4.0715886E+05   -1.7742600E+00
   1.7382813E-04   4.0384449E+05   -1.7736893E+00
   1.7463089E-04   4.0055816E+05   -1.7731184E+00
   1.7543735E-04   3.9729962E+05   -1.7725472E+00
   1.7624754E-04   3.9406862E+05   -1.7719758E+00
   1.7706147E-04   3.9086492E+05   -1.7714042E+00
   1.7787916E-04   3.8768830E+05   -1.7708323E+00
   1.7870062E-04   3.8453850E+05   -1.7702603E+00
   1.7952588E-04   3.8141530E+05   -1.7696880E+00
   1.8035495E-04   3.7831846E+05   -1.7691155E+00
   1.8118785E-04   3.7524776E+05   -1.7685428E+00
   1.8202459E-04   3.7220296E+05   -1.7679699E+00
   1.8286520E-04   3.6918384E+05   -1.7673968E+00
   1.8370969E-04   3.6619018E+05   -1.7668235E+00
   1.8455808E-04   3.6322176E+05   -1.7662501E+00
   1.8541039E-04   3.6027835E+05   -1.7656765E+00
   1.8626663E-04   3.5735974E+05   -1.7651027E+00
   1.8712683E-04   3.5446570E+05   -1.7645287E+00
   1.8799100E-04   3.5159604E+05   -1.7639546E+00
   1.8885917E-04   3.4875053E+05   -1.7633804E+00
   1.8973134E-04   3.4592896E+05   -1.7628060E+00
   1.9060754E-04   3.4313113E+05   -1.7622315E+00
   1.9148778E-04   3.4035683E+05   -1.7616568E+00
   1.9237209E-04   3.3760586E+05   -1.7610820E+00
   1.9326049E-04   3.3487800E+05   -1.7605071E+00
   1.9415299E-04   3.3217307E+05   -1.7599321E+00
   1.9504960E-04   3.2949086E+05   -1.7593570E+00
   1.9595036E-04   3.2683117E+05   -1.7587818E+00
   1.9685528E-04   3.2419381E+05   -1.7582065E+00
   1.9776438E-04   3.2157859E+05   -1.7576311E+00
   1.9867768E-04   3.1898531E+05   -1.7570556E+00
   1.9959519E-04   3.1641378E+05   -1.7564801E+00
   2.0051694E-04   3.1386381E+05   -1.7559045E+00
   2.0144295E-04   3.1133522E+05   -1.7553288E+00
   2.0237324E-04   3.0882782E+05   -1.7547531E+00
   2.0330782E-04   3.0634143E+05   -1.7541773E+00
   2.0424671E-04   3.0387586E+05   -1.7536014E+00
   2.0518995E-04   3.0143093E+05   -1.7530256E+00
   2.0613754E-04   2.9900647E+05   -1.7524497E+00
   2.0708950E-04   2.9660230E+05   -1.7518737E+00
   2.0804586E-04   2.9421824E+05   -1.7512978E+00
   2.0900664E-04   2.9185411E+05   -1.7507218E+00
   2.0997185E-04   2.8950975E+05   -1.7501458E+00
   2.1094152E-04   2.8718499E+05   -1.7495699E+00
   2.1191567E-04   2.8487965E+05   -1.7489939E+00
   2.1289432E-04   2.8259356E+05   -1.7484179E+00
   2.1387749E-04   2.8032656E+05   -1.7478420E+00
   2.1486520E-04   2.7807849E+05   -1.7472661E+00
   2.1585747E-04   2.7584917E+05   -1.7466902E+00
   2.1685432E-04   2.7363846E+05   -1.7461143E+00
   2.1785578E-04   2.7144618E+05   -1.7455385E+00
   2.1886186E-04   2.6927218E+05   -1.7449628E+00
   2.1987259E-04   2.6711630E+05   -1.7443870E+00
   2.2088798E-04   2.6497839E+05   -1.7438114E+00
   2.2190807E-04   2.6285828E+05   -1.7432358E+00
   2.2293286E-04   2.6075583E+05   -1.7426603E+00
   2.2396239E-04   2.5867088E+05   -1.7420848E+00
   2.2499667E-04   2.5660328E+05   -1.7415095E+00
   2.2603573E-04   2.5455288E+05   -1.7409342E+00
   2.2707958E-04   2.5251953E+05   -1.7403590E+00
   2.2812826E-04   2.5050309E+05   -1.7397840E+00
   2.2918178E-04   2.4850341E+05   -1.7392090E+00
   2.3024017E-04   2.4652035E+05   -1.7386342E+00
   2.3130344E-04   2.4455376E+05   -1.7380594E+00
   2.3237162E-04   2.4260350E+05   -1.7374848E+00
   2.3344474E-04   2.4066943E+05   -1.7369104E+00
   2.3452281E-04   2.3875141E+05   -1.7363360E+00
   2.3560586E-04   2.3684930E+05   -1.7357618E+00
   2.3669392E-04   2.3496297E+05   -1.7351878E+00
   2.3778699E-04   2.3309228E+05   -1.7346139E+00
   2.3888512E-04   2.3123709E+05   -1.7340402E+00
   2.3998831E-04   2.2939728E+05   -1.7334666E+00
   2.4109661E-04   2.2757270E+05   -1.7328933E+00
   2.4221001E-04   2.2576323E+05   -1.7323201E+00
   2.4332857E-04   2.2396874E+05   -1.7317471E+00
   2.4445228E-04   2.2218911E+05   -1.7311743E+00
   2.4558119E-04   2.2042419E+05   -1.7306016E+00
   2.4671531E-04   2.1867387E+05   -1.7300292E+00
   2.4785467E-04   2.1693802E+05   -1.7294570E+00
   2.4899928E-04   2.1521652E+05   -1.7288850E+00
   2.5014919E-04   2.1350924E+05   -1.7283133E+00
   2.5130440E-04   2.1181606E+05   -1.7277417E+00
   2.5246495E-04   2.1013687E+05   -1.7271704E+00
   2.5363086E-04   2.0847153E+05   -1.7265994E+00
   2.5480216E-04   2.0681994E+05   -1.7260286E+00
   2.5597886E-04   2.0518197E+05   -1.7254580E+00
   2.5716100E-04   2.0355750E+05   -1.7248877E+00
   2.5834859E-04   2.0194643E+05   -1.7243176E+00
   2.5954168E-04   2.0034864E+05   -1.7237479E+00
   2.6074027E-04   1.9876401E+05   -1.7231784E+00
   2.6194439E-04   1.9719243E+05   -1.7226091E+00
   2.6315408E-04   1.9563378E+05   -1.7220402E+00
   2.6436935E-04   1.9408797E+05   -1.7214716E+00
   2.6559024E-04   1.9255488E+05   -1.7209032E+00
   2.6681676E-04   1.9103439E+05   -1.7203352E+00
   2.6804895E-04   1.8952641E+05   -1.7197675E+00
   2.6928683E-04   1.8803083E+05   -1.7192001E+00
   2.7053042E-04   1.8654753E+05   -1.7186330E+00
   2.7177976E-04   1.8507642E+05   -1.7180662E+00
   2.7303487E-04   1.8361739E+05   -1.7174998E+00
   2.7429577E-04   1.8217033E+05   -1.7169337E+00
   2.7556250E-04   1.8073515E+05   -1.7163680E+00
   2.7683507E-04   1.7931175E+05   -1.7158026E+00
   2.7811353E-04   1.7790002E+05   -1.7152375E+00
   2.7939788E-04   1.7649986E+05   -1.7146728E+00
   2.8068817E-04   1.7511118E+05   -1.7141085E+00
   2.8198442E-04   1.7373387E+05   -1.7135446E+00
   2.8328665E-04   1.7236785E+05   -1.7129810E+00
   2.8459490E-04   1.7101301E+05   -1.7124179E+00
   2.8590919E-04   1.6966926E+05   -1.7118551E+00
   2.8722955E-04   1.6833650E+05   -1.7112927E+00
   2.8855600E-04   1.6701465E+05   -1.7107307E+00
   2.8988859E-04   1.6570360E+05   -1.7101691E+00
   2.9122732E-04   1.6440327E+05   -1.7096079E+00
   2.9257224E-04   1.6311357E+05   -1.7090472E+00
   2.9392337E-04   1.6183440E+05   -1.7084869E+00
   2.9528074E-04   1.6056568E+05   -1.7079270E+00
   2.9664438E-04   1.5930732E+05   -1.7073675E+00
   2.9801431E-04   1.5805922E+05   -1.7068085E+00
   2.9939057E-04   1.5682131E+05   -1.7062499E+00
   3.0077319E-04   1.5559349E+05   -1.7056917E+00
   3.0216219E-04   1.5437569E+05   -1.7051341E+00
   3.0355761E-04   1.5316780E+05   -1.7045768E+00
   3.0495947E-04   1.5196976E+05   -1.7040201E+00
   3.0636780E-04   1.5078148E+05   -1.7034638E+00
   3.0778264E-04   1.4960287E+05   -1.7029080E+00
   3.0920401E-04   1.4843385E+05   -1.7023527E+00
   3.1063195E-04   1.4727435E+05   -1.7017978E+00
   3.1206648E-04   1.4612427E+05   -1.7012435E+00
   3.1350764E-04   1.4498355E+05   -1.7006896E+00
   3.1495545E-04   1.4385210E+05   -1.7001363E+00
   3.1640994E-04   1.4272984E+05   -1.6995834E+00
   3.1787116E-04   1.4161670E+05   -1.6990311E+00
   3.1933912E-04   1.4051259E+05   -1.6984793E+00
   3.2081386E-04   1.3941745E+05   -1.6979280E+00
   3.2229541E-04   1.3833120E+05   -1.6973773E+00
   3.2378381E-04   1.3725376E+05   -1.6968270E+00
   3.2527908E-04   1.3618505E+05   -1.6962774E+00
   3.2678125E-04   1.3512501E+05   -1.6957282E+00
   3.2829036E-04   1.3407356E+05   -1.6951796E+00
   3.2980644E-04   1.3303062E+05   -1.6946316E+00
   3.3132952E-04   1.3199613E+05   -1.6940841E+00
   3.3285963E-04   1.3097002E+05   -1.6935372E+00
   3.3439681E-04   1.2995221E+05   -1.6929908E+00
   3.3594109E-04   1.2894264E+05   -1.6924451E+00
   3.3749250E-04   1.2794123E+05   -1.6918999E+00
   3.3905108E-04   1.2694791E+05   -1.6913553E+00
   3.4061685E-04   1.2596263E+05   -1.6908112E+00
   3.4218986E-04   1.2498530E+05   -1.6902678E+00
   3.4377013E-04   1.2401587E+05   -1.6897250E+00
   3.4535769E-04   1.2305426E+05   -1.6891827E+00
   3.4695259E-04   1.2210041E+05   -1.6886411E+00
   3.4855485E-04   1.2115427E+05   -1.6881001E+00
   3.5016452E-04   1.2021575E+05   -1.6875597E+00
   3.5178161E-04   1.1928480E+05   -1.6870199E+00
   3.5340618E-04   1.1836135E+05   -1.6864808E+00
   3.5503824E-04   1.1744534E+05   -1.6859422E+00
   3.5667785E-04   1.1653671E+05   -1.6854043E+00
   3.5832502E-04   1.1563540E+05   -1.6848671E+00
   3.5997981E-04   1.1474134E+05   -1.6843305E+00
   3.6164223E-04   1.1385448E+05   -1.6837945E+00
   3.6331233E-04   1.1297475E+05   -1.6832592E+00
   3.6499015E-04   1.1210209E+05   -1.6827246E+00
   3.6667571E-04   1.1123645E+05   -1.6821906E+00
   3.6836906E-04   1.1037776E+05   -1.6816573E+00
   3.7007022E-04   1.0952597E+05   -1.6811246E+00
   3.7177925E-04   1.0868102E+05   -1.6805927E+00
   3.7349616E-04   1.0784286E+05   -1.6800614E+00
   3.7522101E-04   1.0701141E+05   -1.6795308E+00
   3.7695382E-04   1.0618664E+05   -1.6790009E+00
   3.7869463E-04   1.0536849E+05   -1.6784716E+00
   3.8044348E-04   1.0455689E+05   -1.6779431E+00
   3.8220041E-04   1.0375179E+05   -1.6774153E+00
   3.8396545E-04   1.0295315E+05   -1.6768881E+00
   3.8573864E-04   1.0216090E+05   -1.6763617E+00
   3.8752002E-04   1.0137499E+05   -1.6758360E+00
   3.8930963E-04   1.0059537E+05   -1.6753110E+00
   3.9110750E-04   9.9821992E+04   -1.6747868E+00
   3.9291368E-04   9.9054796E+04   -1.6742632E+00
   3.9472820E-04   9.8293733E+04   -1.6737404E+00
   3.9655109E-04   9.7538752E+04   -1.6732184E+00
   3.9838241E-04   9.6789803E+04   -1.6726970E+00
   4.0022218E-04   9.6046835E+04   -1.6721764E+00
   4.0207045E-04   9.5309799E+04   -1.6716566E+00
   4.0392725E-04   9.4578645E+04   -1.6711375E+00
   4.0579263E-04   9.3853324E+04   -1.6706191E+00
   4.0766662E-04   9.3133788E+04   -1.6701015E+00
   4.0954927E-04   9.2419989E+04   -1.6695847E+00
   4.1144061E-04   9.1711879E+04   -1.6690687E+00
   4.1334068E-04   9.1009410E+04   -1.6685534E+00
   4.1524953E-04   9.0312536E+04   -1.6680388E+00
   4.1716720E-04   8.9621210E+04   -1.6675251E+00
   4.1909372E-04   8.8935387E+04   -1.6670121E+00
   4.2102914E-04   8.8255020E+04   -1.6664999E+00
   4.2297350E-04   8.7580065E+04   -1.6659885E+00
   4.2492683E-04   8.6910476E+04   -1.6654779E+00
   4.2688919E-04   8.6246210E+04   -1.6649681E+00
   4.2886061E-04   8.5587221E+04   -1.6644591E+00
   4.3084113E-04   8.4933467E+04   -1.6639509E+00
   4.3283080E-04   8.4284903E+04   -1.6634435E+00
   4.3482966E-04   8.3641488E+04   -1.6629369E+00
   4.3683775E-04   8.3003177E+04   -1.6624311E+00
   4.3885511E-04   8.2369930E+04   -1.6619261E+00
   4.4088179E-04   8.1741704E+04   -1.6614220E+00
   4.4291783E-04   8.1118458E+04   -1.6609186E+00
   4.4496327E-04   8.0500150E+04   -1.6604161E+00
   4.4701816E-04   7.9886740E+04   -1.6599144E+00
   4.4908253E-04   7.9278187E+04   -1.6594136E+00
   4.5115644E-04   7.8674451E+04   -1.6589136E+00
   4.5323993E-04   7.8075492E+04   -1.6584144E+00
   4.5533304E-04   7.7481272E+04   -1.6579161E+00
   4.5743582E-04   7.6891751E+04   -1.6574186E+00
   4.5954830E-04   7.6306890E+04   -1.6569219E+00
   4.6167054E-04   7.5726651E+04   -1.6564261E+00
   4.6380259E-04   7.5150995E+04   -1.6559312E+00
   4.6594448E-04   7.4579885E+04   -1.6554371E+00
   4.6809626E-04   7.4013284E+04   -1.6549439E+00
   4.7025797E-04   7.3451154E+04   -1.6544515E+00
   4.7242967E-04   7.2893458E+04   -1.6539600E+00
   4.7461140E-04   7.2340161E+04   -1.6534694E+00
   4.7680321E-04   7.1791226E+04   -1.6529797E+00
   4.7900514E-04   7.1246616E+04   -1.6524908E+00
   4.8121723E-04   7.0706298E+04   -1.6520028E+00
   4.8343954E-04   7.0170234E+04   -1.6515157E+00
   4.8567212E-04   6.9638391E+04   -1.6510294E+00
   4.8791500E-04   6.9110734E+04   -1.6505441E+00
   4.9016825E-04   6.8587228E+04   -1.6500596E+00
   4.9243189E-04   6.8067839E+04   -1.6495760E+00
   4.9470600E-04   6.7552534E+04   -1.6490933E+00
   4.9699060E-04   6.7041279E+04   -1.6486115E+00
   4.9928575E-04   6.6534041E+04   -1.6481307E+00
   5.0159151E-04   6.6030787E+04   -1.6476507E+00
   5.0390791E-04   6.5531484E+04   -1.6471716E+00
   5.0623501E-04   6.5036100E+04   -1.6466934E+00
   5.0857286E-04   6.4544602E+04   -1.6462161E+00
   5.1092150E-04   6.4056960E+04   -1.6457398E+00
   5.1328099E-04   6.3573142E+04   -1.6452643E+00
   5.1565137E-04   6.3093116E+04   -1.6447898E+00
   5.1803270E-04   6.2616852E+04   -1.6443162E+00
   5.2042503E-04   6.2144318E+04   -1.6438435E+00
   5.2282841E-04   6.1675484E+04   -1.6433717E+00
   5.2524289E-04   6.1210320E+04   -1.6429009E+00
   5.2766851E-04   6.0748796E+04   -1.6424310E+00
   5.3010534E-04   6.0290882E+04   -1.6419620E+00
   5.3255342E-04   5.9836549E+04   -1.6414939E+00
   5.3501281E-04   5.9385768E+04   -1.6410268E+00
   5.3748356E-04   5.8938509E+04   -1.6405607E+00
   5.3996571E-04   5.8494745E+04   -1.6400954E+00
   5.4245933E-04   5.8054445E+04   -1.6396311E+00
   5.4496446E-04   5.7617584E+04   -1.6391677E+00
   5.4748117E-04   5.7184132E+04   -1.6387053E+00
   5.5000949E-04   5.6754061E+04   -1.6382439E+00
   5.5254949E-04   5.6327344E+04   -1.6377833E+00
   5.5510123E-04   5.5903955E+04   -1.6373238E+00
   5.5766474E-04   5.5483865E+04   -1.6368652E+00
   5.6024010E-04   5.5067048E+04   -1.6364075E+00
   5.6282734E-04   5.4653477E+04   -1.6359508E+00
   5.6542654E-04   5.4243127E+04   -1.6354950E+00
   5.6803774E-04   5.3835971E+04   -1.6350403E+00
   5.7066099E-04   5.3431982E+04   -1.6345864E+00
   5.7329637E-04   5.3031136E+04   -1.6341336E+00
   5.7594391E-04   5.2633406E+04   -1.6336817E+00
   5.7860368E-04   5.2238769E+04   -1.6332307E+00
   5.8127573E-04   5.1847198E+04   -1.6327808E+00
   5.8396012E-04   5.1458668E+04   -1.6323318E+00
   5.8665691E-04   5.1073156E+04   -1.6318838E+00
   5.8936616E-04   5.0690636E+04   -1.6314367E+00
   5.9208791E-04   5.0311085E+04   -1.6309907E+00
   5.9482223E-04   4.9934478E+04   -1.6305456E+00
   5.9756919E-04   4.9560792E+04   -1.6301014E+00
   6.0032882E-04   4.9190003E+04   -1.6296583E+00
   6.0310120E-04   4.8822087E+04   -1.6292161E+00
   6.0588639E-04   4.8457022E+04   -1.6287750E+00
   6.0868443E-04   4.8094784E+04   -1.6283348E+00
   6.1149540E-04   4.7735351E+04   -1.6278956E+00
   6.1431935E-04   4.7378700E+04   -1.6274573E+00
   6.1715634E-04   4.7024809E+04   -1.6270201E+00
   6.2000644E-04   4.6673654E+04   -1.6265839E+00
   6.2286969E-04   4.6325215E+04   -1.6261486E+00
