#        a       HoverH0(a)       dlogHdloga_of_a(a)
   1.0000000E-04   1.1241009E+06   -1.8422444E+00
   1.0046181E-04   1.1146011E+06   -1.8417464E+00
   1.0092575E-04   1.1051841E+06   -1.8412476E+00
   1.0139184E-04   1.0958492E+06   -1.8407480E+00
   1.0186008E-04   1.0865956E+06   -1.8402475E+00
   1.0233048E-04   1.0774227E+06   -1.8397462E+00
   1.0280305E-04   1.0683297E+06   -1.8392440E+00
   1.0327781E-04   1.0593158E+06   -1.8387411E+00
   1.0375475E-04   1.0503805E+06   -1.8382373E+00
   1.0423390E-04   1.0415229E+06   -1.8377327E+00
   1.0471527E-04   1.0327425E+06   -1.8372272E+00
   1.0519885E-04   1.0240384E+06   -1.8367210E+00
   1.0568467E-04   1.0154101E+06   -1.8362139E+00
   1.0617274E-04   1.0068568E+06   -1.8357061E+00
   1.0666305E-04   9.9837794E+05   -1.8351974E+00
   1.0715563E-04   9.8997279E+05   -1.8346880E+00
   1.0765049E-04   9.8164070E+05   -1.8341777E+00
   1.0814763E-04   9.7338103E+05   -1.8336667E+00
   1.0864707E-04   9.6519313E+05   -1.8331548E+00
   1.0914881E-04   9.5707637E+05   -1.8326422E+00
   1.0965287E-04   9.4903010E+05   -1.8321288E+00
   1.1015926E-04   9.4105371E+05   -1.8316146E+00
   1.1066799E-04   9.3314657E+05   -1.8310997E+00
   1.1117906E-04   9.2530807E+05   -1.8305839E+00
   1.1169250E-04   9.1753759E+05   -1.8300675E+00
   1.1220831E-04   9.0983453E+05   -1.8295502E+00
   1.1272650E-04   9.0219830E+05   -1.8290322E+00
   1.1324708E-04   8.9462829E+05   -1.8285134E+00
   1.1377007E-04   8.8712392E+05   -1.8279939E+00
   1.1429547E-04   8.7968461E+05   -1.8274736E+00
   1.1482330E-04   8.7230978E+05   -1.8269526E+00
   1.1535356E-04   8.6499885E+05   -1.8264309E+00
   1.1588628E-04   8.5775126E+05   -1.8259084E+00
   1.1642145E-04   8.5056644E+05   -1.8253852E+00
   1.1695910E-04   8.4344384E+05   -1.8248612E+00
   1.1749923E-04   8.3638291E+05   -1.8243365E+00
   1.1804185E-04   8.2938309E+05   -1.8238112E+00
   1.1858698E-04   8.2244385E+05   -1.8232851E+00
   1.1913463E-04   8.1556464E+05   -1.8227582E+00
   1.1968481E-04   8.0874494E+05   -1.8222307E+00
   1.2023752E-04   8.0198421E+05   -1.8217025E+00
   1.2079279E-04   7.9528194E+05   -1.8211736E+00
   1.2135063E-04   7.8863760E+05   -1.8206440E+00
   1.2191104E-04   7.8205069E+05   -1.8201136E+00
   1.2247403E-04   7.7552068E+05   -1.8195827E+00
   1.2303963E-04   7.6904709E+05   -1.8190510E+00
   1.2360784E-04   7.6262940E+05   -1.8185186E+00
   1.2417868E-04   7.5626712E+05   -1.8179856E+00
   1.2475215E-04   7.4995976E+05   -1.8174519E+00
   1.2532826E-04   7.4370684E+05   -1.8169175E+00
   1.2590704E-04   7.3750787E+05   -1.8163825E+00
   1.2648850E-04   7.3136237E+05   -1.8158469E+00
   1.2707263E-04   7.2526987E+05   -1.8153105E+00
   1.2765947E-04   7.1922990E+05   -1.8147736E+00
   1.2824901E-04   7.1324200E+05   -1.8142360E+00
   1.2884128E-04   7.0730571E+05   -1.8136977E+00
   1.2943628E-04   7.0142056E+05   -1.8131588E+00
   1.3003403E-04   6.9558611E+05   -1.8126193E+00
   1.3063454E-04   6.8980190E+05   -1.8120792E+00
   1.3123783E-04   6.8406750E+05   -1.8115384E+00
   1.3184390E-04   6.7838246E+05   -1.8109971E+00
   1.3245277E-04   6.7274635E+05   -1.8104551E+00
   1.3306445E-04   6.6715872E+05   -1.8099125E+00
   1.3367895E-04   6.6161916E+05   -1.8093694E+00
   1.3429630E-04   6.5612724E+05   -1.8088256E+00
   1.3491649E-04   6.5068254E+05   -1.8082812E+00
   1.3553955E-04   6.4528464E+05   -1.8077363E+00
   1.3616548E-04   6.3993312E+05   -1.8071908E+00
   1.3679431E-04   6.3462759E+05   -1.8066446E+00
   1.3742604E-04   6.2936763E+05   -1.8060980E+00
   1.3806069E-04   6.2415283E+05   -1.8055507E+00
   1.3869827E-04   6.1898280E+05   -1.8050029E+00
   1.3933879E-04   6.1385715E+05   -1.8044546E+00
   1.3998227E-04   6.0877549E+05   -1.8039057E+00
   1.4062872E-04   6.0373741E+05   -1.8033562E+00
   1.4127816E-04   5.9874255E+05   -1.8028062E+00
   1.4193060E-04   5.9379052E+05   -1.8022557E+00
   1.4258605E-04   5.8888093E+05   -1.8017047E+00
   1.4324453E-04   5.8401343E+05   -1.8011531E+00
   1.4390605E-04   5.7918763E+05   -1.8006010E+00
   1.4457062E-04   5.7440317E+05   -1.8000483E+00
   1.4523826E-04   5.6965968E+05   -1.7994952E+00
   1.4590899E-04   5.6495681E+05   -1.7989416E+00
   1.4658281E-04   5.6029419E+05   -1.7983875E+00
   1.4725974E-04   5.5567147E+05   -1.7978328E+00
   1.4793981E-04   5.5108830E+05   -1.7972777E+00
   1.4862301E-04   5.4654433E+05   -1.7967221E+00
   1.4930936E-04   5.4203921E+05   -1.7961660E+00
   1.4999889E-04   5.3757261E+05   -1.7956095E+00
   1.5069160E-04   5.3314418E+05   -1.7950524E+00
   1.5138751E-04   5.2875359E+05   -1.7944950E+00
   1.5208663E-04   5.2440051E+05   -1.7939370E+00
   1.5278899E-04   5.2008460E+05   -1.7933786E+00
   1.5349458E-04   5.1580554E+05   -1.7928198E+00
   1.5420343E-04   5.1156300E+05   -1.7922605E+00
   1.5491556E-04   5.0735667E+05   -1.7917008E+00
   1.5563098E-04   5.0318622E+05   -1.7911406E+00
   1.5634970E-04   4.9905134E+05   -1.7905801E+00
   1.5707174E-04   4.9495172E+05   -1.7900191E+00
   1.5779711E-04   4.9088705E+05   -1.7894577E+00
   1.5852584E-04   4.8685701E+05   -1.7888958E+00
   1.5925792E-04   4.8286131E+05   -1.7883336E+00
   1.5999339E-04   4.7889964E+05   -1.7877710E+00
   1.6073226E-04   4.7497171E+05   -1.7872080E+00
   1.6147454E-04   4.7107722E+05   -1.7866446E+00
   1.6222024E-04   4.6721588E+05   -1.7860808E+00
   1.6296939E-04   4.6338739E+05   -1.7855167E+00
   1.6372200E-04   4.5959146E+05   -1.7849521E+00
   1.6447809E-04   4.5582782E+05   -1.7843873E+00
   1.6523767E-04   4.5209618E+05   -1.7838220E+00
   1.6600075E-04   4.4839625E+05   -1.7832564E+00
   1.6676736E-04   4.4472776E+05   -1.7826905E+00
   1.6753751E-04   4.4109044E+05   -1.7821242E+00
   1.6831122E-04   4.3748401E+05   -1.7815576E+00
   1.6908849E-04   4.3390819E+05   -1.7809906E+00
   1.6986936E-04   4.3036273E+05   -1.7804233E+00
   1.7065384E-04   4.2684735E+05   -1.7798558E+00
   1.7144193E-04   4.2336180E+05   -1.7792879E+00
   1.7223367E-04   4.1990581E+05   -1.7787196E+00
   1.7302906E-04   4.1647912E+05   -1.7781511E+00
   1.7382813E-04   4.1308148E+05   -1.7775823E+00
   1.7463089E-04   4.0971262E+05   -1.7770132E+00
   1.7543735E-04   4.0637231E+05   -1.7764438E+00
   1.7624754E-04   4.0306029E+05   -1.7758742E+00
   1.7706147E-04   3.9977632E+05   -1.7753042E+00
   1.7787916E-04   3.9652014E+05   -1.7747341E+00
   1.7870062E-04   3.9329151E+05   -1.7741636E+00
   1.7952588E-04   3.9009020E+05   -1.7735929E+00
   1.8035495E-04   3.8691597E+05   -1.7730219E+00
   1.8118785E-04   3.8376857E+05   -1.7724507E+00
   1.8202459E-04   3.8064778E+05   -1.7718793E+00
   1.8286520E-04   3.7755336E+05   -1.7713076E+00
   1.8370969E-04   3.7448509E+05   -1.7707357E+00
   1.8455808E-04   3.7144273E+05   -1.7701636E+00
   1.8541039E-04   3.6842605E+05   -1.7695913E+00
   1.8626663E-04   3.6543484E+05   -1.7690187E+00
   1.8712683E-04   3.6246888E+05   -1.7684460E+00
   1.8799100E-04   3.5952793E+05   -1.7678731E+00
   1.8885917E-04   3.5661178E+05   -1.7673000E+00
   1.8973134E-04   3.5372023E+05   -1.7667267E+00
   1.9060754E-04   3.5085304E+05   -1.7661532E+00
   1.9148778E-04   3.4801002E+05   -1.7655795E+00
   1.9237209E-04   3.4519095E+05   -1.7650057E+00
   1.9326049E-04   3.4239561E+05   -1.7644317E+00
   1.9415299E-04   3.3962382E+05   -1.7638576E+00
   1.9504960E-04   3.3687535E+05   -1.7632833E+00
   1.9595036E-04   3.3415001E+05   -1.7627089E+00
   1.9685528E-04   3.3144759E+05   -1.7621344E+00
   1.9776438E-04   3.2876791E+05   -1.7615597E+00
   1.9867768E-04   3.2611075E+05   -1.7609849E+00
   1.9959519E-04   3.2347592E+05   -1.7604100E+00
   2.0051694E-04   3.2086323E+05   -1.7598350E+00
   2.0144295E-04   3.1827248E+05   -1.7592598E+00
   2.0237324E-04   3.1570349E+05   -1.7586846E+00
   2.0330782E-04   3.1315607E+05   -1.7581093E+00
   2.0424671E-04   3.1063003E+05   -1.7575339E+00
   2.0518995E-04   3.0812517E+05   -1.7569584E+00
   2.0613754E-04   3.0564133E+05   -1.7563828E+00
   2.0708950E-04   3.0317831E+05   -1.7558072E+00
   2.0804586E-04   3.0073595E+05   -1.7552315E+00
   2.0900664E-04   2.9831404E+05   -1.7546557E+00
   2.0997185E-04   2.9591243E+05   -1.7540800E+00
   2.1094152E-04   2.9353093E+05   -1.7535041E+00
   2.1191567E-04   2.9116937E+05   -1.7529282E+00
   2.1289432E-04   2.8882757E+05   -1.7523523E+00
   2.1387749E-04   2.8650537E+05   -1.7517764E+00
   2.1486520E-04   2.8420259E+05   -1.7512004E+00
   2.1585747E-04   2.8191907E+05   -1.7506245E+00
   2.1685432E-04   2.7965464E+05   -1.7500485E+00
   2.1785578E-04   2.7740914E+05   -1.7494725E+00
   2.1886186E-04   2.7518239E+05   -1.7488965E+00
   2.1987259E-04   2.7297425E+05   -1.7483206E+00
   2.2088798E-04   2.7078454E+05   -1.7477446E+00
   2.2190807E-04   2.6861311E+05   -1.7471687E+00
   2.2293286E-04   2.6645980E+05   -1.7465928E+00
   2.2396239E-04   2.6432445E+05   -1.7460170E+00
   2.2499667E-04   2.6220691E+05   -1.7454412E+00
   2.2603573E-04   2.6010702E+05   -1.7448654E+00
   2.2707958E-04   2.5802464E+05   -1.7442897E+00
   2.2812826E-04   2.5595961E+05   -1.7437141E+00
   2.2918178E-04   2.5391177E+05   -1.7431385E+00
   2.3024017E-04   2.5188099E+05   -1.7425630E+00
   2.3130344E-04   2.4986711E+05   -1.7419875E+00
   2.3237162E-04   2.4786999E+05   -1.7414122E+00
   2.3344474E-04   2.4588949E+05   -1.7408369E+00
   2.3452281E-04   2.4392545E+05   -1.7402618E+00
   2.3560586E-04   2.4197775E+05   -1.7396867E+00
   2.3669392E-04   2.4004623E+05   -1.7391118E+00
   2.3778699E-04   2.3813076E+05   -1.7385369E+00
   2.3888512E-04   2.3623121E+05   -1.7379622E+00
   2.3998831E-04   2.3434742E+05   -1.7373876E+00
   2.4109661E-04   2.3247927E+05   -1.7368132E+00
   2.4221001E-04   2.3062663E+05   -1.7362389E+00
   2.4332857E-04   2.2878935E+05   -1.7356647E+00
   2.4445228E-04   2.2696731E+05   -1.7350907E+00
   2.4558119E-04   2.2516038E+05   -1.7345168E+00
   2.4671531E-04   2.2336842E+05   -1.7339432E+00
   2.4785467E-04   2.2159131E+05   -1.7333696E+00
   2.4899928E-04   2.1982892E+05   -1.7327963E+00
   2.5014919E-04   2.1808113E+05   -1.7322231E+00
   2.5130440E-04   2.1634780E+05   -1.7316501E+00
   2.5246495E-04   2.1462881E+05   -1.7310773E+00
   2.5363086E-04   2.1292404E+05   -1.7305048E+00
   2.5480216E-04   2.1123337E+05   -1.7299324E+00
   2.5597886E-04   2.0955668E+05   -1.7293602E+00
   2.5716100E-04   2.0789385E+05   -1.7287883E+00
   2.5834859E-04   2.0624475E+05   -1.7282165E+00
   2.5954168E-04   2.0460927E+05   -1.7276450E+00
   2.6074027E-04   2.0298730E+05   -1.7270738E+00
   2.6194439E-04   2.0137871E+05   -1.7265027E+00
   2.6315408E-04   1.9978340E+05   -1.7259320E+00
   2.6436935E-04   1.9820124E+05   -1.7253614E+00
   2.6559024E-04   1.9663214E+05   -1.7247912E+00
   2.6681676E-04   1.9507596E+05   -1.7242212E+00
   2.6804895E-04   1.9353261E+05   -1.7236514E+00
   2.6928683E-04   1.9200198E+05   -1.7230820E+00
   2.7053042E-04   1.9048395E+05   -1.7225128E+00
   2.7177976E-04   1.8897842E+05   -1.7219439E+00
   2.7303487E-04   1.8748528E+05   -1.7213753E+00
   2.7429577E-04   1.8600442E+05   -1.7208070E+00
   2.7556250E-04   1.8453574E+05   -1.7202390E+00
   2.7683507E-04   1.8307914E+05   -1.7196714E+00
   2.7811353E-04   1.8163451E+05   -1.7191040E+00
   2.7939788E-04   1.8020175E+05   -1.7185370E+00
   2.8068817E-04   1.7878076E+05   -1.7179703E+00
   2.8198442E-04   1.7737144E+05   -1.7174039E+00
   2.8328665E-04   1.7597369E+05   -1.7168379E+00
   2.8459490E-04   1.7458740E+05   -1.7162722E+00
   2.8590919E-04   1.7321249E+05   -1.7157068E+00
   2.8722955E-04   1.7184885E+05   -1.7151419E+00
   2.8855600E-04   1.7049640E+05   -1.7145772E+00
   2.8988859E-04   1.6915502E+05   -1.7140130E+00
   2.9122732E-04   1.6782464E+05   -1.7134491E+00
   2.9257224E-04   1.6650515E+05   -1.7128856E+00
   2.9392337E-04   1.6519647E+05   -1.7123225E+00
   2.9528074E-04   1.6389849E+05   -1.7117598E+00
   2.9664438E-04   1.6261114E+05   -1.7111974E+00
   2.9801431E-04   1.6133431E+05   -1.7106355E+00
   2.9939057E-04   1.6006793E+05   -1.7100740E+00
   3.0077319E-04   1.5881189E+05   -1.7095129E+00
   3.0216219E-04   1.5756612E+05   -1.7089522E+00
   3.0355761E-04   1.5633053E+05   -1.7083919E+00
   3.0495947E-04   1.5510502E+05   -1.7078321E+00
   3.0636780E-04   1.5388952E+05   -1.7072727E+00
   3.0778264E-04   1.5268394E+05   -1.7067138E+00
   3.0920401E-04   1.5148819E+05   -1.7061552E+00
   3.1063195E-04   1.5030220E+05   -1.7055972E+00
   3.1206648E-04   1.4912587E+05   -1.7050396E+00
   3.1350764E-04   1.4795912E+05   -1.7044824E+00
   3.1495545E-04   1.4680189E+05   -1.7039257E+00
   3.1640994E-04   1.4565407E+05   -1.7033695E+00
   3.1787116E-04   1.4451561E+05   -1.7028138E+00
   3.1933912E-04   1.4338641E+05   -1.7022586E+00
   3.2081386E-04   1.4226639E+05   -1.7017038E+00
   3.2229541E-04   1.4115548E+05   -1.7011495E+00
   3.2378381E-04   1.4005361E+05   -1.7005958E+00
   3.2527908E-04   1.3896069E+05   -1.7000425E+00
   3.2678125E-04   1.3787666E+05   -1.6994897E+00
   3.2829036E-04   1.3680142E+05   -1.6989375E+00
   3.2980644E-04   1.3573492E+05   -1.6983858E+00
   3.3132952E-04   1.3467707E+05   -1.6978346E+00
   3.3285963E-04   1.3362781E+05   -1.6972839E+00
   3.3439681E-04   1.3258706E+05   -1.6967338E+00
   3.3594109E-04   1.3155475E+05   -1.6961842E+00
   3.3749250E-04   1.3053080E+05   -1.6956351E+00
   3.3905108E-04   1.2951515E+05   -1.6950866E+00
   3.4061685E-04   1.2850773E+05   -1.6945387E+00
   3.4218986E-04   1.2750847E+05   -1.6939913E+00
   3.4377013E-04   1.2651730E+05   -1.6934444E+00
   3.4535769E-04   1.2553415E+05   -1.6928982E+00
   3.4695259E-04   1.2455895E+05   -1.6923525E+00
   3.4855485E-04   1.2359164E+05   -1.6918074E+00
   3.5016452E-04   1.2263214E+05   -1.6912629E+00
   3.5178161E-04   1.2168040E+05   -1.6907189E+00
   3.5340618E-04   1.2073635E+05   -1.6901756E+00
   3.5503824E-04   1.1979993E+05   -1.6896329E+00
   3.5667785E-04   1.1887106E+05   -1.6890907E+00
   3.5832502E-04   1.1794969E+05   -1.6885492E+00
   3.5997981E-04   1.1703576E+05   -1.6880083E+00
   3.6164223E-04   1.1612919E+05   -1.6874680E+00
   3.6331233E-04   1.1522994E+05   -1.6869283E+00
   3.6499015E-04   1.1433793E+05   -1.6863893E+00
   3.6667571E-04   1.1345311E+05   -1.6858508E+00
   3.6836906E-04   1.1257541E+05   -1.6853131E+00
   3.7007022E-04   1.1170478E+05   -1.6847759E+00
   3.7177925E-04   1.1084116E+05   -1.6842394E+00
   3.7349616E-04   1.0998449E+05   -1.6837036E+00
   3.7522101E-04   1.0913471E+05   -1.6831684E+00
   3.7695382E-04   1.0829176E+05   -1.6826338E+00
   3.7869463E-04   1.0745558E+05   -1.6821000E+00
   3.8044348E-04   1.0662613E+05   -1.6815667E+00
   3.8220041E-04   1.0580333E+05   -1.6810342E+00
   3.8396545E-04   1.0498715E+05   -1.6805023E+00
   3.8573864E-04   1.0417751E+05   -1.6799712E+00
   3.8752002E-04   1.0337437E+05   -1.6794407E+00
   3.8930963E-04   1.0257767E+05   -1.6789109E+00
   3.9110750E-04   1.0178737E+05   -1.6783817E+00
   3.9291368E-04   1.0100339E+05   -1.6778533E+00
   3.9472820E-04   1.0022570E+05   -1.6773256E+00
   3.9655109E-04   9.9454240E+04   -1.6767986E+00
   3.9838241E-04   9.8688956E+04   -1.6762723E+00
   4.0022218E-04   9.7929798E+04   -1.6757467E+00
   4.0207045E-04   9.7176715E+04   -1.6752218E+00
   4.0392725E-04   9.6429656E+04   -1.6746977E+00
   4.0579263E-04   9.5688572E+04   -1.6741743E+00
   4.0766662E-04   9.4953412E+04   -1.6736516E+00
   4.0954927E-04   9.4224126E+04   -1.6731296E+00
   4.1144061E-04   9.3500667E+04   -1.6726084E+00
   4.1334068E-04   9.2782984E+04   -1.6720879E+00
   4.1524953E-04   9.2071032E+04   -1.6715682E+00
   4.1716720E-04   9.1364760E+04   -1.6710492E+00
   4.1909372E-04   9.0664123E+04   -1.6705310E+00
   4.2102914E-04   8.9969074E+04   -1.6700135E+00
   4.2297350E-04   8.9279566E+04   -1.6694968E+00
   4.2492683E-04   8.8595553E+04   -1.6689809E+00
   4.2688919E-04   8.7916989E+04   -1.6684657E+00
   4.2886061E-04   8.7243829E+04   -1.6679513E+00
   4.3084113E-04   8.6576029E+04   -1.6674377E+00
   4.3283080E-04   8.5913544E+04   -1.6669249E+00
   4.3482966E-04   8.5256329E+04   -1.6664128E+00
   4.3683775E-04   8.4604341E+04   -1.6659015E+00
   4.3885511E-04   8.3957537E+04   -1.6653911E+00
   4.4088179E-04   8.3315873E+04   -1.6648814E+00
   4.4291783E-04   8.2679308E+04   -1.6643725E+00
   4.4496327E-04   8.2047798E+04   -1.6638644E+00
   4.4701816E-04   8.1421302E+04   -1.6633571E+00
   4.4908253E-04   8.0799779E+04   -1.6628507E+00
   4.5115644E-04   8.0183187E+04   -1.6623450E+00
   4.5323993E-04   7.9571485E+04   -1.6618402E+00
   4.5533304E-04   7.8964634E+04   -1.6613361E+00
   4.5743582E-04   7.8362592E+04   -1.6608329E+00
   4.5954830E-04   7.7765321E+04   -1.6603306E+00
   4.6167054E-04   7.7172781E+04   -1.6598290E+00
   4.6380259E-04   7.6584932E+04   -1.6593283E+00
   4.6594448E-04   7.6001737E+04   -1.6588284E+00
   4.6809626E-04   7.5423156E+04   -1.6583294E+00
   4.7025797E-04   7.4849151E+04   -1.6578312E+00
   4.7242967E-04   7.4279686E+04   -1.6573338E+00
   4.7461140E-04   7.3714721E+04   -1.6568373E+00
   4.7680321E-04   7.3154221E+04   -1.6563417E+00
   4.7900514E-04   7.2598149E+04   -1.6558469E+00
   4.8121723E-04   7.2046467E+04   -1.6553529E+00
   4.8343954E-04   7.1499140E+04   -1.6548598E+00
   4.8567212E-04   7.0956133E+04   -1.6543676E+00
   4.8791500E-04   7.0417409E+04   -1.6538763E+00
   4.9016825E-04   6.9882933E+04   -1.6533858E+00
   4.9243189E-04   6.9352671E+04   -1.6528962E+00
   4.9470600E-04   6.8826587E+04   -1.6524074E+00
   4.9699060E-04   6.8304647E+04   -1.6519196E+00
   4.9928575E-04   6.7786818E+04   -1.6514326E+00
   5.0159151E-04   6.7273065E+04   -1.6509465E+00
   5.0390791E-04   6.6763356E+04   -1.6504613E+00
   5.0623501E-04   6.6257656E+04   -1.6499770E+00
   5.0857286E-04   6.5755933E+04   -1.6494935E+00
   5.1092150E-04   6.5258155E+04   -1.6490110E+00
   5.1328099E-04   6.4764289E+04   -1.6485293E+00
   5.1565137E-04   6.4274303E+04   -1.6480486E+00
   5.1803270E-04   6.3788165E+04   -1.6475688E+00
   5.2042503E-04   6.3305844E+04   -1.6470898E+00
   5.2282841E-04   6.2827309E+04   -1.6466118E+00
   5.2524289E-04   6.2352527E+04   -1.6461347E+00
   5.2766851E-04   6.1881470E+04   -1.6456584E+00
   5.3010534E-04   6.1414106E+04   -1.6451832E+00
   5.3255342E-04   6.0950405E+04   -1.6447088E+00
   5.3501281E-04   6.0490338E+04   -1.6442353E+00
   5.3748356E-04   6.0033873E+04   -1.6437628E+00
   5.3996571E-04   5.9580983E+04   -1.6432912E+00
   5.4245933E-04   5.9131638E+04   -1.6428205E+00
   5.4496446E-04   5.8685809E+04   -1.6423507E+00
   5.4748117E-04   5.8243467E+04   -1.6418819E+00
   5.5000949E-04   5.7804585E+04   -1.6414140E+00
   5.5254949E-04   5.7369132E+04   -1.6409470E+00
   5.5510123E-04   5.6937083E+04   -1.6404810E+00
   5.5766474E-04   5.6508408E+04   -1.6400159E+00
   5.6024010E-04   5.6083081E+04   -1.6395517E+00
   5.6282734E-04   5.5661075E+04   -1.6390885E+00
   5.6542654E-04   5.5242361E+04   -1.6386263E+00
   5.6803774E-04   5.4826914E+04   -1.6381649E+00
   5.7066099E-04   5.4414707E+04   -1.6377046E+00
   5.7329637E-04   5.4005713E+04   -1.6372452E+00
   5.7594391E-04   5.3599907E+04   -1.6367867E+00
   5.7860368E-04   5.3197262E+04   -1.6363292E+00
   5.8127573E-04   5.2797754E+04   -1.6358726E+00
   5.8396012E-04   5.2401355E+04   -1.6354170E+00
   5.8665691E-04   5.2008042E+04   -1.6349624E+00
   5.8936616E-04   5.1617789E+04   -1.6345087E+00
   5.9208791E-04   5.1230571E+04   -1.6340560E+00
   5.9482223E-04   5.0846364E+04   -1.6336043E+00
   5.9756919E-04   5.0465143E+04   -1.6331535E+00
   6.0032882E-04   5.0086885E+04   -1.6327037E+00
   6.0310120E-04   4.9711564E+04   -1.6322549E+00
   6.0588639E-04   4.9339158E+04   -1.6318070E+00
   6.0868443E-04   4.8969643E+04   -1.6313601E+00
   6.1149540E-04   4.8602994E+04   -1.6309142E+00
   6.1431935E-04   4.8239191E+04   -1.6304693E+00
   6.1715634E-04   4.7878208E+04   -1.6300253E+00
   6.2000644E-04   4.7520024E+04   -1.6295823E+00
   6.2286969E-04   4.7164615E+04   -1.6291403E+00
