#        a       HoverH0(a)       dlogHdloga_of_a(a)
   1.0000000E-04   1.1415375E+06   -1.8563197E+00
   1.0046181E-04   1.1318168E+06   -1.8558475E+00
   1.0092575E-04   1.1221814E+06   -1.8553743E+00
   1.0139184E-04   1.1126304E+06   -1.8549002E+00
   1.0186008E-04   1.1031632E+06   -1.8544252E+00
   1.0233048E-04   1.0937789E+06   -1.8539493E+00
   1.0280305E-04   1.0844768E+06   -1.8534725E+00
   1.0327781E-04   1.0752561E+06   -1.8529947E+00
   1.0375475E-04   1.0661163E+06   -1.8525161E+00
   1.0423390E-04   1.0570564E+06   -1.8520365E+00
   1.0471527E-04   1.0480758E+06   -1.8515561E+00
   1.0519885E-04   1.0391739E+06   -1.8510747E+00
   1.0568467E-04   1.0303498E+06   -1.8505925E+00
   1.0617274E-04   1.0216030E+06   -1.8501093E+00
   1.0666305E-04   1.0129326E+06   -1.8496253E+00
   1.0715563E-04   1.0043381E+06   -1.8491403E+00
   1.0765049E-04   9.9581877E+05   -1.8486545E+00
   1.0814763E-04   9.8737389E+05   -1.8481678E+00
   1.0864707E-04   9.7900282E+05   -1.8476802E+00
   1.0914881E-04   9.7070490E+05   -1.8471918E+00
   1.0965287E-04   9.6247948E+05   -1.8467024E+00
   1.1015926E-04   9.5432592E+05   -1.8462122E+00
   1.1066799E-04   9.4624356E+05   -1.8457211E+00
   1.1117906E-04   9.3823178E+05   -1.8452292E+00
   1.1169250E-04   9.3028995E+05   -1.8447364E+00
   1.1220831E-04   9.2241744E+05   -1.8442427E+00
   1.1272650E-04   9.1461362E+05   -1.8437482E+00
   1.1324708E-04   9.0687790E+05   -1.8432528E+00
   1.1377007E-04   8.9920967E+05   -1.8427565E+00
   1.1429547E-04   8.9160831E+05   -1.8422594E+00
   1.1482330E-04   8.8407324E+05   -1.8417615E+00
   1.1535356E-04   8.7660386E+05   -1.8412627E+00
   1.1588628E-04   8.6919959E+05   -1.8407631E+00
   1.1642145E-04   8.6185984E+05   -1.8402626E+00
   1.1695910E-04   8.5458404E+05   -1.8397614E+00
   1.1749923E-04   8.4737163E+05   -1.8392592E+00
   1.1804185E-04   8.4022203E+05   -1.8387563E+00
   1.1858698E-04   8.3313468E+05   -1.8382525E+00
   1.1913463E-04   8.2610904E+05   -1.8377479E+00
   1.1968481E-04   8.1914455E+05   -1.8372425E+00
   1.2023752E-04   8.1224066E+05   -1.8367363E+00
   1.2079279E-04   8.0539685E+05   -1.8362293E+00
   1.2135063E-04   7.9861256E+05   -1.8357214E+00
   1.2191104E-04   7.9188728E+05   -1.8352128E+00
   1.2247403E-04   7.8522048E+05   -1.8347034E+00
   1.2303963E-04   7.7861163E+05   -1.8341931E+00
   1.2360784E-04   7.7206022E+05   -1.8336821E+00
   1.2417868E-04   7.6556574E+05   -1.8331703E+00
   1.2475215E-04   7.5912768E+05   -1.8326577E+00
   1.2532826E-04   7.5274554E+05   -1.8321443E+00
   1.2590704E-04   7.4641882E+05   -1.8316301E+00
   1.2648850E-04   7.4014704E+05   -1.8311152E+00
   1.2707263E-04   7.3392969E+05   -1.8305995E+00
   1.2765947E-04   7.2776630E+05   -1.8300830E+00
   1.2824901E-04   7.2165639E+05   -1.8295658E+00
   1.2884128E-04   7.1559949E+05   -1.8290478E+00
   1.2943628E-04   7.0959511E+05   -1.8285290E+00
   1.3003403E-04   7.0364280E+05   -1.8280095E+00
   1.3063454E-04   6.9774209E+05   -1.8274893E+00
   1.3123783E-04   6.9189252E+05   -1.8269683E+00
   1.3184390E-04   6.8609364E+05   -1.8264465E+00
   1.3245277E-04   6.8034499E+05   -1.8259241E+00
   1.3306445E-04   6.7464614E+05   -1.8254009E+00
   1.3367895E-04   6.6899664E+05   -1.8248769E+00
   1.3429630E-04   6.6339605E+05   -1.8243523E+00
   1.3491649E-04   6.5784394E+05   -1.8238269E+00
   1.3553955E-04   6.5233987E+05   -1.8233008E+00
   1.3616548E-04   6.4688343E+05   -1.8227740E+00
   1.3679431E-04   6.4147418E+05   -1.8222465E+00
   1.3742604E-04   6.3611172E+05   -1.8217183E+00
   1.3806069E-04   6.3079562E+05   -1.8211894E+00
   1.3869827E-04   6.2552547E+05   -1.8206598E+00
   1.3933879E-04   6.2030086E+05   -1.8201295E+00
   1.3998227E-04   6.1512140E+05   -1.8195985E+00
   1.4062872E-04   6.0998668E+05   -1.8190669E+00
   1.4127816E-04   6.0489630E+05   -1.8185345E+00
   1.4193060E-04   5.9984987E+05   -1.8180015E+00
   1.4258605E-04   5.9484701E+05   -1.8174679E+00
   1.4324453E-04   5.8988732E+05   -1.8169335E+00
   1.4390605E-04   5.8497043E+05   -1.8163985E+00
   1.4457062E-04   5.8009595E+05   -1.8158629E+00
   1.4523826E-04   5.7526351E+05   -1.8153265E+00
   1.4590899E-04   5.7047274E+05   -1.8147896E+00
   1.4658281E-04   5.6572327E+05   -1.8142520E+00
   1.4725974E-04   5.6101473E+05   -1.8137138E+00
   1.4793981E-04   5.5634675E+05   -1.8131749E+00
   1.4862301E-04   5.5171899E+05   -1.8126354E+00
   1.4930936E-04   5.4713109E+05   -1.8120953E+00
   1.4999889E-04   5.4258268E+05   -1.8115545E+00
   1.5069160E-04   5.3807343E+05   -1.8110132E+00
   1.5138751E-04   5.3360299E+05   -1.8104712E+00
   1.5208663E-04   5.2917100E+05   -1.8099287E+00
   1.5278899E-04   5.2477715E+05   -1.8093855E+00
   1.5349458E-04   5.2042108E+05   -1.8088417E+00
   1.5420343E-04   5.1610246E+05   -1.8082974E+00
   1.5491556E-04   5.1182096E+05   -1.8077525E+00
   1.5563098E-04   5.0757626E+05   -1.8072069E+00
   1.5634970E-04   5.0336803E+05   -1.8066609E+00
   1.5707174E-04   4.9919594E+05   -1.8061142E+00
   1.5779711E-04   4.9505968E+05   -1.8055670E+00
   1.5852584E-04   4.9095893E+05   -1.8050192E+00
   1.5925792E-04   4.8689338E+05   -1.8044708E+00
   1.5999339E-04   4.8286271E+05   -1.8039219E+00
   1.6073226E-04   4.7886663E+05   -1.8033725E+00
   1.6147454E-04   4.7490481E+05   -1.8028225E+00
   1.6222024E-04   4.7097697E+05   -1.8022720E+00
   1.6296939E-04   4.6708280E+05   -1.8017209E+00
   1.6372200E-04   4.6322201E+05   -1.8011694E+00
   1.6447809E-04   4.5939430E+05   -1.8006173E+00
   1.6523767E-04   4.5559937E+05   -1.8000647E+00
   1.6600075E-04   4.5183694E+05   -1.7995115E+00
   1.6676736E-04   4.4810673E+05   -1.7989579E+00
   1.6753751E-04   4.4440845E+05   -1.7984038E+00
   1.6831122E-04   4.4074181E+05   -1.7978492E+00
   1.6908849E-04   4.3710655E+05   -1.7972941E+00
   1.6986936E-04   4.3350238E+05   -1.7967385E+00
   1.7065384E-04   4.2992902E+05   -1.7961824E+00
   1.7144193E-04   4.2638622E+05   -1.7956258E+00
   1.7223367E-04   4.2287369E+05   -1.7950688E+00
   1.7302906E-04   4.1939118E+05   -1.7945113E+00
   1.7382813E-04   4.1593841E+05   -1.7939534E+00
   1.7463089E-04   4.1251514E+05   -1.7933950E+00
   1.7543735E-04   4.0912109E+05   -1.7928362E+00
   1.7624754E-04   4.0575601E+05   -1.7922769E+00
   1.7706147E-04   4.0241964E+05   -1.7917172E+00
   1.7787916E-04   3.9911174E+05   -1.7911570E+00
   1.7870062E-04   3.9583205E+05   -1.7905965E+00
   1.7952588E-04   3.9258033E+05   -1.7900355E+00
   1.8035495E-04   3.8935633E+05   -1.7894741E+00
   1.8118785E-04   3.8615980E+05   -1.7889123E+00
   1.8202459E-04   3.8299050E+05   -1.7883501E+00
   1.8286520E-04   3.7984821E+05   -1.7877874E+00
   1.8370969E-04   3.7673267E+05   -1.7872244E+00
   1.8455808E-04   3.7364365E+05   -1.7866610E+00
   1.8541039E-04   3.7058093E+05   -1.7860973E+00
   1.8626663E-04   3.6754426E+05   -1.7855331E+00
   1.8712683E-04   3.6453343E+05   -1.7849686E+00
   1.8799100E-04   3.6154820E+05   -1.7844037E+00
   1.8885917E-04   3.5858835E+05   -1.7838385E+00
   1.8973134E-04   3.5565366E+05   -1.7832729E+00
   1.9060754E-04   3.5274390E+05   -1.7827069E+00
   1.9148778E-04   3.4985886E+05   -1.7821407E+00
   1.9237209E-04   3.4699833E+05   -1.7815740E+00
   1.9326049E-04   3.4416208E+05   -1.7810071E+00
   1.9415299E-04   3.4134991E+05   -1.7804398E+00
   1.9504960E-04   3.3856160E+05   -1.7798722E+00
   1.9595036E-04   3.3579695E+05   -1.7793043E+00
   1.9685528E-04   3.3305574E+05   -1.7787361E+00
   1.9776438E-04   3.3033777E+05   -1.7781676E+00
   1.9867768E-04   3.2764285E+05   -1.7775988E+00
   1.9959519E-04   3.2497076E+05   -1.7770297E+00
   2.0051694E-04   3.2232131E+05   -1.7764603E+00
   2.0144295E-04   3.1969430E+05   -1.7758906E+00
   2.0237324E-04   3.1708953E+05   -1.7753207E+00
   2.0330782E-04   3.1450681E+05   -1.7747505E+00
   2.0424671E-04   3.1194595E+05   -1.7741800E+00
   2.0518995E-04   3.0940675E+05   -1.7736093E+00
   2.0613754E-04   3.0688903E+05   -1.7730384E+00
   2.0708950E-04   3.0439260E+05   -1.7724672E+00
   2.0804586E-04   3.0191727E+05   -1.7718957E+00
   2.0900664E-04   2.9946285E+05   -1.7713241E+00
   2.0997185E-04   2.9702918E+05   -1.7707522E+00
   2.1094152E-04   2.9461605E+05   -1.7701800E+00
   2.1191567E-04   2.9222330E+05   -1.7696077E+00
   2.1289432E-04   2.8985075E+05   -1.7690352E+00
   2.1387749E-04   2.8749822E+05   -1.7684624E+00
   2.1486520E-04   2.8516554E+05   -1.7678895E+00
   2.1585747E-04   2.8285253E+05   -1.7673164E+00
   2.1685432E-04   2.8055903E+05   -1.7667431E+00
   2.1785578E-04   2.7828485E+05   -1.7661696E+00
   2.1886186E-04   2.7602984E+05   -1.7655959E+00
   2.1987259E-04   2.7379382E+05   -1.7650221E+00
   2.2088798E-04   2.7157664E+05   -1.7644481E+00
   2.2190807E-04   2.6937812E+05   -1.7638740E+00
   2.2293286E-04   2.6719811E+05   -1.7632997E+00
   2.2396239E-04   2.6503645E+05   -1.7627253E+00
   2.2499667E-04   2.6289296E+05   -1.7621507E+00
   2.2603573E-04   2.6076750E+05   -1.7615761E+00
   2.2707958E-04   2.5865991E+05   -1.7610012E+00
   2.2812826E-04   2.5657004E+05   -1.7604263E+00
   2.2918178E-04   2.5449772E+05   -1.7598513E+00
   2.3024017E-04   2.5244281E+05   -1.7592761E+00
   2.3130344E-04   2.5040516E+05   -1.7587009E+00
   2.3237162E-04   2.4838461E+05   -1.7581256E+00
   2.3344474E-04   2.4638102E+05   -1.7575502E+00
   2.3452281E-04   2.4439424E+05   -1.7569747E+00
   2.3560586E-04   2.4242413E+05   -1.7563991E+00
   2.3669392E-04   2.4047053E+05   -1.7558234E+00
   2.3778699E-04   2.3853331E+05   -1.7552477E+00
   2.3888512E-04   2.3661232E+05   -1.7546720E+00
   2.3998831E-04   2.3470743E+05   -1.7540962E+00
   2.4109661E-04   2.3281849E+05   -1.7535203E+00
   2.4221001E-04   2.3094536E+05   -1.7529444E+00
   2.4332857E-04   2.2908792E+05   -1.7523685E+00
   2.4445228E-04   2.2724601E+05   -1.7517926E+00
   2.4558119E-04   2.2541951E+05   -1.7512166E+00
   2.4671531E-04   2.2360829E+05   -1.7506406E+00
   2.4785467E-04   2.2181220E+05   -1.7500646E+00
   2.4899928E-04   2.2003113E+05   -1.7494886E+00
   2.5014919E-04   2.1826494E+05   -1.7489126E+00
   2.5130440E-04   2.1651350E+05   -1.7483367E+00
   2.5246495E-04   2.1477669E+05   -1.7477607E+00
   2.5363086E-04   2.1305437E+05   -1.7471848E+00
   2.5480216E-04   2.1134642E+05   -1.7466089E+00
   2.5597886E-04   2.0965273E+05   -1.7460330E+00
   2.5716100E-04   2.0797315E+05   -1.7454572E+00
   2.5834859E-04   2.0630758E+05   -1.7448814E+00
   2.5954168E-04   2.0465590E+05   -1.7443057E+00
   2.6074027E-04   2.0301797E+05   -1.7437300E+00
   2.6194439E-04   2.0139369E+05   -1.7431544E+00
   2.6315408E-04   1.9978293E+05   -1.7425789E+00
   2.6436935E-04   1.9818558E+05   -1.7420035E+00
   2.6559024E-04   1.9660152E+05   -1.7414281E+00
   2.6681676E-04   1.9503064E+05   -1.7408528E+00
   2.6804895E-04   1.9347283E+05   -1.7402777E+00
   2.6928683E-04   1.9192797E+05   -1.7397026E+00
   2.7053042E-04   1.9039594E+05   -1.7391276E+00
   2.7177976E-04   1.8887665E+05   -1.7385528E+00
   2.7303487E-04   1.8736998E+05   -1.7379780E+00
   2.7429577E-04   1.8587581E+05   -1.7374034E+00
   2.7556250E-04   1.8439405E+05   -1.7368290E+00
   2.7683507E-04   1.8292459E+05   -1.7362546E+00
   2.7811353E-04   1.8146732E+05   -1.7356805E+00
   2.7939788E-04   1.8002213E+05   -1.7351064E+00
   2.8068817E-04   1.7858892E+05   -1.7345325E+00
   2.8198442E-04   1.7716760E+05   -1.7339588E+00
   2.8328665E-04   1.7575805E+05   -1.7333853E+00
   2.8459490E-04   1.7436017E+05   -1.7328119E+00
   2.8590919E-04   1.7297387E+05   -1.7322387E+00
   2.8722955E-04   1.7159904E+05   -1.7316657E+00
   2.8855600E-04   1.7023559E+05   -1.7310929E+00
   2.8988859E-04   1.6888342E+05   -1.7305203E+00
   2.9122732E-04   1.6754244E+05   -1.7299479E+00
   2.9257224E-04   1.6621254E+05   -1.7293757E+00
   2.9392337E-04   1.6489362E+05   -1.7288037E+00
   2.9528074E-04   1.6358561E+05   -1.7282320E+00
   2.9664438E-04   1.6228840E+05   -1.7276605E+00
   2.9801431E-04   1.6100190E+05   -1.7270892E+00
   2.9939057E-04   1.5972602E+05   -1.7265181E+00
   3.0077319E-04   1.5846066E+05   -1.7259473E+00
   3.0216219E-04   1.5720575E+05   -1.7253768E+00
   3.0355761E-04   1.5596118E+05   -1.7248065E+00
   3.0495947E-04   1.5472687E+05   -1.7242365E+00
   3.0636780E-04   1.5350274E+05   -1.7236667E+00
   3.0778264E-04   1.5228868E+05   -1.7230972E+00
   3.0920401E-04   1.5108463E+05   -1.7225280E+00
   3.1063195E-04   1.4989049E+05   -1.7219591E+00
   3.1206648E-04   1.4870617E+05   -1.7213905E+00
   3.1350764E-04   1.4753160E+05   -1.7208222E+00
   3.1495545E-04   1.4636669E+05   -1.7202542E+00
   3.1640994E-04   1.4521136E+05   -1.7196865E+00
   3.1787116E-04   1.4406553E+05   -1.7191191E+00
   3.1933912E-04   1.4292911E+05   -1.7185520E+00
   3.2081386E-04   1.4180202E+05   -1.7179853E+00
   3.2229541E-04   1.4068420E+05   -1.7174189E+00
   3.2378381E-04   1.3957554E+05   -1.7168528E+00
   3.2527908E-04   1.3847599E+05   -1.7162871E+00
   3.2678125E-04   1.3738545E+05   -1.7157217E+00
   3.2829036E-04   1.3630386E+05   -1.7151567E+00
   3.2980644E-04   1.3523113E+05   -1.7145921E+00
   3.3132952E-04   1.3416720E+05   -1.7140278E+00
   3.3285963E-04   1.3311198E+05   -1.7134639E+00
   3.3439681E-04   1.3206540E+05   -1.7129003E+00
   3.3594109E-04   1.3102740E+05   -1.7123372E+00
   3.3749250E-04   1.2999788E+05   -1.7117745E+00
   3.3905108E-04   1.2897680E+05   -1.7112121E+00
   3.4061685E-04   1.2796406E+05   -1.7106501E+00
   3.4218986E-04   1.2695960E+05   -1.7100886E+00
   3.4377013E-04   1.2596336E+05   -1.7095275E+00
   3.4535769E-04   1.2497525E+05   -1.7089667E+00
   3.4695259E-04   1.2399522E+05   -1.7084064E+00
   3.4855485E-04   1.2302319E+05   -1.7078466E+00
   3.5016452E-04   1.2205909E+05   -1.7072871E+00
   3.5178161E-04   1.2110287E+05   -1.7067281E+00
   3.5340618E-04   1.2015444E+05   -1.7061696E+00
   3.5503824E-04   1.1921374E+05   -1.7056115E+00
   3.5667785E-04   1.1828072E+05   -1.7050539E+00
   3.5832502E-04   1.1735530E+05   -1.7044967E+00
   3.5997981E-04   1.1643742E+05   -1.7039400E+00
   3.6164223E-04   1.1552701E+05   -1.7033837E+00
   3.6331233E-04   1.1462401E+05   -1.7028280E+00
   3.6499015E-04   1.1372837E+05   -1.7022727E+00
   3.6667571E-04   1.1284001E+05   -1.7017179E+00
   3.6836906E-04   1.1195888E+05   -1.7011636E+00
   3.7007022E-04   1.1108491E+05   -1.7006098E+00
   3.7177925E-04   1.1021804E+05   -1.7000565E+00
   3.7349616E-04   1.0935822E+05   -1.6995037E+00
   3.7522101E-04   1.0850538E+05   -1.6989514E+00
   3.7695382E-04   1.0765947E+05   -1.6983996E+00
   3.7869463E-04   1.0682042E+05   -1.6978484E+00
   3.8044348E-04   1.0598818E+05   -1.6972977E+00
   3.8220041E-04   1.0516269E+05   -1.6967475E+00
   3.8396545E-04   1.0434390E+05   -1.6961979E+00
   3.8573864E-04   1.0353174E+05   -1.6956488E+00
   3.8752002E-04   1.0272616E+05   -1.6951003E+00
   3.8930963E-04   1.0192711E+05   -1.6945523E+00
   3.9110750E-04   1.0113453E+05   -1.6940048E+00
   3.9291368E-04   1.0034837E+05   -1.6934580E+00
   3.9472820E-04   9.9568563E+04   -1.6929117E+00
   3.9655109E-04   9.8795069E+04   -1.6923660E+00
   3.9838241E-04   9.8027830E+04   -1.6918208E+00
   4.0022218E-04   9.7266794E+04   -1.6912763E+00
   4.0207045E-04   9.6511907E+04   -1.6907323E+00
   4.0392725E-04   9.5763120E+04   -1.6901889E+00
   4.0579263E-04   9.5020380E+04   -1.6896461E+00
   4.0766662E-04   9.4283636E+04   -1.6891039E+00
   4.0954927E-04   9.3552838E+04   -1.6885624E+00
   4.1144061E-04   9.2827936E+04   -1.6880214E+00
   4.1334068E-04   9.2108880E+04   -1.6874811E+00
   4.1524953E-04   9.1395622E+04   -1.6869414E+00
   4.1716720E-04   9.0688112E+04   -1.6864023E+00
   4.1909372E-04   8.9986303E+04   -1.6858638E+00
   4.2102914E-04   8.9290146E+04   -1.6853260E+00
   4.2297350E-04   8.8599594E+04   -1.6847888E+00
   4.2492683E-04   8.7914600E+04   -1.6842522E+00
   4.2688919E-04   8.7235118E+04   -1.6837164E+00
   4.2886061E-04   8.6561101E+04   -1.6831811E+00
   4.3084113E-04   8.5892503E+04   -1.6826465E+00
   4.3283080E-04   8.5229280E+04   -1.6821126E+00
   4.3482966E-04   8.4571385E+04   -1.6815794E+00
   4.3683775E-04   8.3918775E+04   -1.6810468E+00
   4.3885511E-04   8.3271405E+04   -1.6805149E+00
   4.4088179E-04   8.2629231E+04   -1.6799836E+00
   4.4291783E-04   8.1992211E+04   -1.6794531E+00
   4.4496327E-04   8.1360300E+04   -1.6789232E+00
   4.4701816E-04   8.0733456E+04   -1.6783941E+00
   4.4908253E-04   8.0111636E+04   -1.6778656E+00
   4.5115644E-04   7.9494800E+04   -1.6773379E+00
   4.5323993E-04   7.8882905E+04   -1.6768108E+00
   4.5533304E-04   7.8275910E+04   -1.6762845E+00
   4.5743582E-04   7.7673773E+04   -1.6757588E+00
   4.5954830E-04   7.7076456E+04   -1.6752339E+00
   4.6167054E-04   7.6483916E+04   -1.6747097E+00
   4.6380259E-04   7.5896115E+04   -1.6741862E+00
   4.6594448E-04   7.5313013E+04   -1.6736635E+00
   4.6809626E-04   7.4734570E+04   -1.6731415E+00
   4.7025797E-04   7.4160749E+04   -1.6726202E+00
   4.7242967E-04   7.3591510E+04   -1.6720997E+00
   4.7461140E-04   7.3026815E+04   -1.6715799E+00
   4.7680321E-04   7.2466627E+04   -1.6710609E+00
   4.7900514E-04   7.1910908E+04   -1.6705426E+00
   4.8121723E-04   7.1359621E+04   -1.6700251E+00
   4.8343954E-04   7.0812729E+04   -1.6695084E+00
   4.8567212E-04   7.0270195E+04   -1.6689924E+00
   4.8791500E-04   6.9731984E+04   -1.6684772E+00
   4.9016825E-04   6.9198059E+04   -1.6679627E+00
   4.9243189E-04   6.8668385E+04   -1.6674490E+00
   4.9470600E-04   6.8142926E+04   -1.6669361E+00
   4.9699060E-04   6.7621648E+04   -1.6664240E+00
   4.9928575E-04   6.7104516E+04   -1.6659127E+00
   5.0159151E-04   6.6591495E+04   -1.6654022E+00
   5.0390791E-04   6.6082552E+04   -1.6648925E+00
   5.0623501E-04   6.5577652E+04   -1.6643835E+00
   5.0857286E-04   6.5076763E+04   -1.6638754E+00
   5.1092150E-04   6.4579850E+04   -1.6633680E+00
   5.1328099E-04   6.4086881E+04   -1.6628615E+00
   5.1565137E-04   6.3597824E+04   -1.6623558E+00
   5.1803270E-04   6.3112646E+04   -1.6618509E+00
   5.2042503E-04   6.2631315E+04   -1.6613468E+00
   5.2282841E-04   6.2153799E+04   -1.6608436E+00
   5.2524289E-04   6.1680066E+04   -1.6603412E+00
   5.2766851E-04   6.1210086E+04   -1.6598396E+00
   5.3010534E-04   6.0743827E+04   -1.6593388E+00
   5.3255342E-04   6.0281259E+04   -1.6588389E+00
   5.3501281E-04   5.9822351E+04   -1.6583398E+00
   5.3748356E-04   5.9367073E+04   -1.6578415E+00
   5.3996571E-04   5.8915395E+04   -1.6573441E+00
   5.4245933E-04   5.8467287E+04   -1.6568475E+00
   5.4496446E-04   5.8022720E+04   -1.6563518E+00
   5.4748117E-04   5.7581665E+04   -1.6558570E+00
   5.5000949E-04   5.7144093E+04   -1.6553630E+00
   5.5254949E-04   5.6709975E+04   -1.6548698E+00
   5.5510123E-04   5.6279283E+04   -1.6543775E+00
   5.5766474E-04   5.5851988E+04   -1.6538861E+00
   5.6024010E-04   5.5428063E+04   -1.6533956E+00
   5.6282734E-04   5.5007479E+04   -1.6529059E+00
   5.6542654E-04   5.4590210E+04   -1.6524171E+00
   5.6803774E-04   5.4176229E+04   -1.6519292E+00
   5.7066099E-04   5.3765507E+04   -1.6514422E+00
   5.7329637E-04   5.3358019E+04   -1.6509560E+00
   5.7594391E-04   5.2953737E+04   -1.6504707E+00
   5.7860368E-04   5.2552636E+04   -1.6499864E+00
   5.8127573E-04   5.2154690E+04   -1.6495029E+00
   5.8396012E-04   5.1759872E+04   -1.6490203E+00
   5.8665691E-04   5.1368158E+04   -1.6485386E+00
   5.8936616E-04   5.0979520E+04   -1.6480578E+00
   5.9208791E-04   5.0593935E+04   -1.6475779E+00
   5.9482223E-04   5.0211377E+04   -1.6470989E+00
   5.9756919E-04   4.9831822E+04   -1.6466208E+00
   6.0032882E-04   4.9455245E+04   -1.6461436E+00
   6.0310120E-04   4.9081621E+04   -1.6456673E+00
   6.0588639E-04   4.8710927E+04   -1.6451919E+00
   6.0868443E-04   4.8343138E+04   -1.6447175E+00
   6.1149540E-04   4.7978231E+04   -1.6442440E+00
   6.1431935E-04   4.7616182E+04   -1.6437714E+00
   6.1715634E-04   4.7256968E+04   -1.6432997E+00
   6.2000644E-04   4.6900566E+04   -1.6428290E+00
   6.2286969E-04   4.6546953E+04   -1.6423591E+00
