#        a       HoverH0(a)       dlogHdloga_of_a(a)
   1.0000000E-04   1.0866494E+06   -1.8482632E+00
   1.0046181E-04   1.0774362E+06   -1.8477758E+00
   1.0092575E-04   1.0683035E+06   -1.8472875E+00
   1.0139184E-04   1.0592506E+06   -1.8467984E+00
   1.0186008E-04   1.0502768E+06   -1.8463083E+00
   1.0233048E-04   1.0413814E+06   -1.8458174E+00
   1.0280305E-04   1.0325636E+06   -1.8453256E+00
   1.0327781E-04   1.0238228E+06   -1.8448330E+00
   1.0375475E-04   1.0151583E+06   -1.8443395E+00
   1.0423390E-04   1.0065695E+06   -1.8438451E+00
   1.0471527E-04   9.9805557E+05   -1.8433499E+00
   1.0519885E-04   9.8961592E+05   -1.8428538E+00
   1.0568467E-04   9.8124988E+05   -1.8423569E+00
   1.0617274E-04   9.7295680E+05   -1.8418591E+00
   1.0666305E-04   9.6473602E+05   -1.8413605E+00
   1.0715563E-04   9.5658691E+05   -1.8408611E+00
   1.0765049E-04   9.4850881E+05   -1.8403608E+00
   1.0814763E-04   9.4050110E+05   -1.8398597E+00
   1.0864707E-04   9.3256315E+05   -1.8393577E+00
   1.0914881E-04   9.2469434E+05   -1.8388549E+00
   1.0965287E-04   9.1689405E+05   -1.8383513E+00
   1.1015926E-04   9.0916166E+05   -1.8378469E+00
   1.1066799E-04   9.0149659E+05   -1.8373416E+00
   1.1117906E-04   8.9389822E+05   -1.8368356E+00
   1.1169250E-04   8.8636596E+05   -1.8363287E+00
   1.1220831E-04   8.7889923E+05   -1.8358210E+00
   1.1272650E-04   8.7149743E+05   -1.8353126E+00
   1.1324708E-04   8.6416000E+05   -1.8348033E+00
   1.1377007E-04   8.5688636E+05   -1.8342932E+00
   1.1429547E-04   8.4967594E+05   -1.8337823E+00
   1.1482330E-04   8.4252817E+05   -1.8332707E+00
   1.1535356E-04   8.3544251E+05   -1.8327582E+00
   1.1588628E-04   8.2841839E+05   -1.8322450E+00
   1.1642145E-04   8.2145528E+05   -1.8317310E+00
   1.1695910E-04   8.1455262E+05   -1.8312162E+00
   1.1749923E-04   8.0770988E+05   -1.8307006E+00
   1.1804185E-04   8.0092653E+05   -1.8301843E+00
   1.1858698E-04   7.9420204E+05   -1.8296672E+00
   1.1913463E-04   7.8753588E+05   -1.8291494E+00
   1.1968481E-04   7.8092754E+05   -1.8286308E+00
   1.2023752E-04   7.7437650E+05   -1.8281114E+00
   1.2079279E-04   7.6788226E+05   -1.8275913E+00
   1.2135063E-04   7.6144431E+05   -1.8270705E+00
   1.2191104E-04   7.5506215E+05   -1.8265489E+00
   1.2247403E-04   7.4873528E+05   -1.8260266E+00
   1.2303963E-04   7.4246321E+05   -1.8255035E+00
   1.2360784E-04   7.3624546E+05   -1.8249798E+00
   1.2417868E-04   7.3008154E+05   -1.8244552E+00
   1.2475215E-04   7.2397098E+05   -1.8239300E+00
   1.2532826E-04   7.1791330E+05   -1.8234041E+00
   1.2590704E-04   7.1190803E+05   -1.8228774E+00
   1.2648850E-04   7.0595471E+05   -1.8223501E+00
   1.2707263E-04   7.0005288E+05   -1.8218220E+00
   1.2765947E-04   6.9420208E+05   -1.8212932E+00
   1.2824901E-04   6.8840185E+05   -1.8207638E+00
   1.2884128E-04   6.8265176E+05   -1.8202336E+00
   1.2943628E-04   6.7695134E+05   -1.8197028E+00
   1.3003403E-04   6.7130018E+05   -1.8191712E+00
   1.3063454E-04   6.6569781E+05   -1.8186390E+00
   1.3123783E-04   6.6014383E+05   -1.8181062E+00
   1.3184390E-04   6.5463779E+05   -1.8175726E+00
   1.3245277E-04   6.4917926E+05   -1.8170384E+00
   1.3306445E-04   6.4376784E+05   -1.8165035E+00
   1.3367895E-04   6.3840310E+05   -1.8159680E+00
   1.3429630E-04   6.3308464E+05   -1.8154318E+00
   1.3491649E-04   6.2781202E+05   -1.8148950E+00
   1.3553955E-04   6.2258487E+05   -1.8143575E+00
   1.3616548E-04   6.1740276E+05   -1.8138194E+00
   1.3679431E-04   6.1226531E+05   -1.8132807E+00
   1.3742604E-04   6.0717212E+05   -1.8127413E+00
   1.3806069E-04   6.0212279E+05   -1.8122013E+00
   1.3869827E-04   5.9711694E+05   -1.8116607E+00
   1.3933879E-04   5.9215418E+05   -1.8111195E+00
   1.3998227E-04   5.8723413E+05   -1.8105777E+00
   1.4062872E-04   5.8235642E+05   -1.8100352E+00
   1.4127816E-04   5.7752066E+05   -1.8094922E+00
   1.4193060E-04   5.7272650E+05   -1.8089485E+00
   1.4258605E-04   5.6797355E+05   -1.8084043E+00
   1.4324453E-04   5.6326146E+05   -1.8078595E+00
   1.4390605E-04   5.5858987E+05   -1.8073141E+00
   1.4457062E-04   5.5395842E+05   -1.8067681E+00
   1.4523826E-04   5.4936675E+05   -1.8062216E+00
   1.4590899E-04   5.4481451E+05   -1.8056744E+00
   1.4658281E-04   5.4030136E+05   -1.8051268E+00
   1.4725974E-04   5.3582695E+05   -1.8045785E+00
   1.4793981E-04   5.3139093E+05   -1.8040298E+00
   1.4862301E-04   5.2699297E+05   -1.8034804E+00
   1.4930936E-04   5.2263273E+05   -1.8029306E+00
   1.4999889E-04   5.1830988E+05   -1.8023801E+00
   1.5069160E-04   5.1402410E+05   -1.8018292E+00
   1.5138751E-04   5.0977504E+05   -1.8012777E+00
   1.5208663E-04   5.0556239E+05   -1.8007257E+00
   1.5278899E-04   5.0138584E+05   -1.8001732E+00
   1.5349458E-04   4.9724505E+05   -1.7996202E+00
   1.5420343E-04   4.9313972E+05   -1.7990667E+00
   1.5491556E-04   4.8906953E+05   -1.7985127E+00
   1.5563098E-04   4.8503417E+05   -1.7979582E+00
   1.5634970E-04   4.8103333E+05   -1.7974031E+00
   1.5707174E-04   4.7706672E+05   -1.7968477E+00
   1.5779711E-04   4.7313403E+05   -1.7962917E+00
   1.5852584E-04   4.6923496E+05   -1.7957352E+00
   1.5925792E-04   4.6536922E+05   -1.7951783E+00
   1.5999339E-04   4.6153651E+05   -1.7946209E+00
   1.6073226E-04   4.5773654E+05   -1.7940631E+00
   1.6147454E-04   4.5396902E+05   -1.7935048E+00
   1.6222024E-04   4.5023367E+05   -1.7929460E+00
   1.6296939E-04   4.4653021E+05   -1.7923869E+00
   1.6372200E-04   4.4285835E+05   -1.7918272E+00
   1.6447809E-04   4.3921782E+05   -1.7912672E+00
   1.6523767E-04   4.3560834E+05   -1.7907067E+00
   1.6600075E-04   4.3202964E+05   -1.7901458E+00
   1.6676736E-04   4.2848145E+05   -1.7895845E+00
   1.6753751E-04   4.2496349E+05   -1.7890227E+00
   1.6831122E-04   4.2147552E+05   -1.7884606E+00
   1.6908849E-04   4.1801725E+05   -1.7878981E+00
   1.6986936E-04   4.1458843E+05   -1.7873352E+00
   1.7065384E-04   4.1118881E+05   -1.7867718E+00
   1.7144193E-04   4.0781812E+05   -1.7862081E+00
   1.7223367E-04   4.0447611E+05   -1.7856441E+00
   1.7302906E-04   4.0116254E+05   -1.7850796E+00
   1.7382813E-04   3.9787714E+05   -1.7845148E+00
   1.7463089E-04   3.9461968E+05   -1.7839497E+00
   1.7543735E-04   3.9138991E+05   -1.7833841E+00
   1.7624754E-04   3.8818758E+05   -1.7828183E+00
   1.7706147E-04   3.8501246E+05   -1.7822521E+00
   1.7787916E-04   3.8186430E+05   -1.7816855E+00
   1.7870062E-04   3.7874288E+05   -1.7811186E+00
   1.7952588E-04   3.7564795E+05   -1.7805514E+00
   1.8035495E-04   3.7257929E+05   -1.7799839E+00
   1.8118785E-04   3.6953666E+05   -1.7794161E+00
   1.8202459E-04   3.6651983E+05   -1.7788479E+00
   1.8286520E-04   3.6352859E+05   -1.7782795E+00
   1.8370969E-04   3.6056271E+05   -1.7777107E+00
   1.8455808E-04   3.5762196E+05   -1.7771417E+00
   1.8541039E-04   3.5470612E+05   -1.7765724E+00
   1.8626663E-04   3.5181498E+05   -1.7760028E+00
   1.8712683E-04   3.4894833E+05   -1.7754329E+00
   1.8799100E-04   3.4610594E+05   -1.7748628E+00
   1.8885917E-04   3.4328760E+05   -1.7742924E+00
   1.8973134E-04   3.4049311E+05   -1.7737217E+00
   1.9060754E-04   3.3772226E+05   -1.7731508E+00
   1.9148778E-04   3.3497483E+05   -1.7725796E+00
   1.9237209E-04   3.3225063E+05   -1.7720082E+00
   1.9326049E-04   3.2954945E+05   -1.7714366E+00
   1.9415299E-04   3.2687110E+05   -1.7708648E+00
   1.9504960E-04   3.2421537E+05   -1.7702927E+00
   1.9595036E-04   3.2158206E+05   -1.7697204E+00
   1.9685528E-04   3.1897098E+05   -1.7691479E+00
   1.9776438E-04   3.1638194E+05   -1.7685752E+00
   1.9867768E-04   3.1381474E+05   -1.7680023E+00
   1.9959519E-04   3.1126919E+05   -1.7674293E+00
   2.0051694E-04   3.0874510E+05   -1.7668560E+00
   2.0144295E-04   3.0624230E+05   -1.7662826E+00
   2.0237324E-04   3.0376058E+05   -1.7657089E+00
   2.0330782E-04   3.0129977E+05   -1.7651352E+00
   2.0424671E-04   2.9885969E+05   -1.7645612E+00
   2.0518995E-04   2.9644015E+05   -1.7639871E+00
   2.0613754E-04   2.9404098E+05   -1.7634129E+00
   2.0708950E-04   2.9166200E+05   -1.7628385E+00
   2.0804586E-04   2.8930303E+05   -1.7622640E+00
   2.0900664E-04   2.8696390E+05   -1.7616893E+00
   2.0997185E-04   2.8464444E+05   -1.7611145E+00
   2.1094152E-04   2.8234447E+05   -1.7605396E+00
   2.1191567E-04   2.8006383E+05   -1.7599646E+00
   2.1289432E-04   2.7780234E+05   -1.7593895E+00
   2.1387749E-04   2.7555985E+05   -1.7588143E+00
   2.1486520E-04   2.7333619E+05   -1.7582390E+00
   2.1585747E-04   2.7113118E+05   -1.7576636E+00
   2.1685432E-04   2.6894468E+05   -1.7570881E+00
   2.1785578E-04   2.6677652E+05   -1.7565126E+00
   2.1886186E-04   2.6462654E+05   -1.7559370E+00
   2.1987259E-04   2.6249458E+05   -1.7553613E+00
   2.2088798E-04   2.6038049E+05   -1.7547855E+00
   2.2190807E-04   2.5828411E+05   -1.7542097E+00
   2.2293286E-04   2.5620529E+05   -1.7536339E+00
   2.2396239E-04   2.5414387E+05   -1.7530580E+00
   2.2499667E-04   2.5209971E+05   -1.7524821E+00
   2.2603573E-04   2.5007266E+05   -1.7519062E+00
   2.2707958E-04   2.4806256E+05   -1.7513302E+00
   2.2812826E-04   2.4606927E+05   -1.7507543E+00
   2.2918178E-04   2.4409265E+05   -1.7501783E+00
   2.3024017E-04   2.4213254E+05   -1.7496023E+00
   2.3130344E-04   2.4018882E+05   -1.7490263E+00
   2.3237162E-04   2.3826133E+05   -1.7484504E+00
   2.3344474E-04   2.3634993E+05   -1.7478744E+00
   2.3452281E-04   2.3445450E+05   -1.7472985E+00
   2.3560586E-04   2.3257487E+05   -1.7467226E+00
   2.3669392E-04   2.3071094E+05   -1.7461467E+00
   2.3778699E-04   2.2886254E+05   -1.7455709E+00
   2.3888512E-04   2.2702956E+05   -1.7449951E+00
   2.3998831E-04   2.2521185E+05   -1.7444194E+00
   2.4109661E-04   2.2340929E+05   -1.7438437E+00
   2.4221001E-04   2.2162175E+05   -1.7432681E+00
   2.4332857E-04   2.1984909E+05   -1.7426926E+00
   2.4445228E-04   2.1809119E+05   -1.7421171E+00
   2.4558119E-04   2.1634792E+05   -1.7415417E+00
   2.4671531E-04   2.1461915E+05   -1.7409665E+00
   2.4785467E-04   2.1290476E+05   -1.7403913E+00
   2.4899928E-04   2.1120462E+05   -1.7398162E+00
   2.5014919E-04   2.0951862E+05   -1.7392412E+00
   2.5130440E-04   2.0784663E+05   -1.7386664E+00
   2.5246495E-04   2.0618852E+05   -1.7380916E+00
   2.5363086E-04   2.0454418E+05   -1.7375170E+00
   2.5480216E-04   2.0291350E+05   -1.7369425E+00
   2.5597886E-04   2.0129634E+05   -1.7363682E+00
   2.5716100E-04   1.9969261E+05   -1.7357940E+00
   2.5834859E-04   1.9810217E+05   -1.7352199E+00
   2.5954168E-04   1.9652492E+05   -1.7346460E+00
   2.6074027E-04   1.9496075E+05   -1.7340723E+00
   2.6194439E-04   1.9340953E+05   -1.7334987E+00
   2.6315408E-04   1.9187117E+05   -1.7329253E+00
   2.6436935E-04   1.9034554E+05   -1.7323521E+00
   2.6559024E-04   1.8883254E+05   -1.7317791E+00
   2.6681676E-04   1.8733207E+05   -1.7312062E+00
   2.6804895E-04   1.8584401E+05   -1.7306336E+00
   2.6928683E-04   1.8436825E+05   -1.7300611E+00
   2.7053042E-04   1.8290469E+05   -1.7294889E+00
   2.7177976E-04   1.8145323E+05   -1.7289169E+00
   2.7303487E-04   1.8001377E+05   -1.7283451E+00
   2.7429577E-04   1.7858619E+05   -1.7277736E+00
   2.7556250E-04   1.7717040E+05   -1.7272022E+00
   2.7683507E-04   1.7576630E+05   -1.7266312E+00
   2.7811353E-04   1.7437378E+05   -1.7260603E+00
   2.7939788E-04   1.7299275E+05   -1.7254897E+00
   2.8068817E-04   1.7162311E+05   -1.7249194E+00
   2.8198442E-04   1.7026477E+05   -1.7243493E+00
   2.8328665E-04   1.6891761E+05   -1.7237795E+00
   2.8459490E-04   1.6758156E+05   -1.7232100E+00
   2.8590919E-04   1.6625650E+05   -1.7226408E+00
   2.8722955E-04   1.6494236E+05   -1.7220718E+00
   2.8855600E-04   1.6363904E+05   -1.7215031E+00
   2.8988859E-04   1.6234643E+05   -1.7209348E+00
   2.9122732E-04   1.6106446E+05   -1.7203667E+00
   2.9257224E-04   1.5979303E+05   -1.7197990E+00
   2.9392337E-04   1.5853206E+05   -1.7192315E+00
   2.9528074E-04   1.5728144E+05   -1.7186644E+00
   2.9664438E-04   1.5604110E+05   -1.7180976E+00
   2.9801431E-04   1.5481094E+05   -1.7175311E+00
   2.9939057E-04   1.5359088E+05   -1.7169650E+00
   3.0077319E-04   1.5238084E+05   -1.7163993E+00
   3.0216219E-04   1.5118072E+05   -1.7158338E+00
   3.0355761E-04   1.4999044E+05   -1.7152688E+00
   3.0495947E-04   1.4880992E+05   -1.7147041E+00
   3.0636780E-04   1.4763908E+05   -1.7141397E+00
   3.0778264E-04   1.4647783E+05   -1.7135757E+00
   3.0920401E-04   1.4532609E+05   -1.7130122E+00
   3.1063195E-04   1.4418379E+05   -1.7124489E+00
   3.1206648E-04   1.4305083E+05   -1.7118861E+00
   3.1350764E-04   1.4192714E+05   -1.7113237E+00
   3.1495545E-04   1.4081265E+05   -1.7107617E+00
   3.1640994E-04   1.3970726E+05   -1.7102001E+00
   3.1787116E-04   1.3861092E+05   -1.7096389E+00
   3.1933912E-04   1.3752353E+05   -1.7090781E+00
   3.2081386E-04   1.3644503E+05   -1.7085177E+00
   3.2229541E-04   1.3537533E+05   -1.7079578E+00
   3.2378381E-04   1.3431436E+05   -1.7073983E+00
   3.2527908E-04   1.3326206E+05   -1.7068392E+00
   3.2678125E-04   1.3221834E+05   -1.7062806E+00
   3.2829036E-04   1.3118313E+05   -1.7057224E+00
   3.2980644E-04   1.3015636E+05   -1.7051647E+00
   3.3132952E-04   1.2913795E+05   -1.7046074E+00
   3.3285963E-04   1.2812785E+05   -1.7040506E+00
   3.3439681E-04   1.2712597E+05   -1.7034943E+00
   3.3594109E-04   1.2613225E+05   -1.7029384E+00
   3.3749250E-04   1.2514662E+05   -1.7023831E+00
   3.3905108E-04   1.2416901E+05   -1.7018282E+00
   3.4061685E-04   1.2319935E+05   -1.7012738E+00
   3.4218986E-04   1.2223757E+05   -1.7007199E+00
   3.4377013E-04   1.2128361E+05   -1.7001665E+00
   3.4535769E-04   1.2033741E+05   -1.6996137E+00
   3.4695259E-04   1.1939889E+05   -1.6990613E+00
   3.4855485E-04   1.1846799E+05   -1.6985094E+00
   3.5016452E-04   1.1754464E+05   -1.6979581E+00
   3.5178161E-04   1.1662879E+05   -1.6974073E+00
   3.5340618E-04   1.1572037E+05   -1.6968570E+00
   3.5503824E-04   1.1481931E+05   -1.6963073E+00
   3.5667785E-04   1.1392556E+05   -1.6957581E+00
   3.5832502E-04   1.1303906E+05   -1.6952095E+00
   3.5997981E-04   1.1215973E+05   -1.6946614E+00
   3.6164223E-04   1.1128753E+05   -1.6941139E+00
   3.6331233E-04   1.1042238E+05   -1.6935669E+00
   3.6499015E-04   1.0956424E+05   -1.6930205E+00
   3.6667571E-04   1.0871304E+05   -1.6924747E+00
   3.6836906E-04   1.0786872E+05   -1.6919295E+00
   3.7007022E-04   1.0703124E+05   -1.6913848E+00
   3.7177925E-04   1.0620051E+05   -1.6908407E+00
   3.7349616E-04   1.0537650E+05   -1.6902973E+00
   3.7522101E-04   1.0455915E+05   -1.6897544E+00
   3.7695382E-04   1.0374840E+05   -1.6892121E+00
   3.7869463E-04   1.0294418E+05   -1.6886704E+00
   3.8044348E-04   1.0214646E+05   -1.6881293E+00
   3.8220041E-04   1.0135517E+05   -1.6875889E+00
   3.8396545E-04   1.0057027E+05   -1.6870491E+00
   3.8573864E-04   9.9791684E+04   -1.6865099E+00
   3.8752002E-04   9.9019376E+04   -1.6859713E+00
   3.8930963E-04   9.8253288E+04   -1.6854334E+00
   3.9110750E-04   9.7493369E+04   -1.6848961E+00
   3.9291368E-04   9.6739566E+04   -1.6843594E+00
   3.9472820E-04   9.5991829E+04   -1.6838234E+00
   3.9655109E-04   9.5250107E+04   -1.6832880E+00
   3.9838241E-04   9.4514349E+04   -1.6827533E+00
   4.0022218E-04   9.3784505E+04   -1.6822193E+00
   4.0207045E-04   9.3060526E+04   -1.6816859E+00
   4.0392725E-04   9.2342362E+04   -1.6811532E+00
   4.0579263E-04   9.1629966E+04   -1.6806212E+00
   4.0766662E-04   9.0923288E+04   -1.6800899E+00
   4.0954927E-04   9.0222281E+04   -1.6795592E+00
   4.1144061E-04   8.9526898E+04   -1.6790292E+00
   4.1334068E-04   8.8837091E+04   -1.6785000E+00
   4.1524953E-04   8.8152813E+04   -1.6779714E+00
   4.1716720E-04   8.7474020E+04   -1.6774435E+00
   4.1909372E-04   8.6800664E+04   -1.6769163E+00
   4.2102914E-04   8.6132700E+04   -1.6763898E+00
   4.2297350E-04   8.5470084E+04   -1.6758641E+00
   4.2492683E-04   8.4812771E+04   -1.6753390E+00
   4.2688919E-04   8.4160716E+04   -1.6748147E+00
   4.2886061E-04   8.3513876E+04   -1.6742911E+00
   4.3084113E-04   8.2872208E+04   -1.6737683E+00
   4.3283080E-04   8.2235667E+04   -1.6732461E+00
   4.3482966E-04   8.1604212E+04   -1.6727247E+00
   4.3683775E-04   8.0977800E+04   -1.6722041E+00
   4.3885511E-04   8.0356389E+04   -1.6716842E+00
   4.4088179E-04   7.9739938E+04   -1.6711650E+00
   4.4291783E-04   7.9128404E+04   -1.6706466E+00
   4.4496327E-04   7.8521748E+04   -1.6701290E+00
   4.4701816E-04   7.7919929E+04   -1.6696121E+00
   4.4908253E-04   7.7322907E+04   -1.6690959E+00
   4.5115644E-04   7.6730641E+04   -1.6685806E+00
   4.5323993E-04   7.6143092E+04   -1.6680660E+00
   4.5533304E-04   7.5560222E+04   -1.6675522E+00
   4.5743582E-04   7.4981990E+04   -1.6670392E+00
   4.5954830E-04   7.4408360E+04   -1.6665269E+00
   4.6167054E-04   7.3839292E+04   -1.6660155E+00
   4.6380259E-04   7.3274748E+04   -1.6655048E+00
   4.6594448E-04   7.2714692E+04   -1.6649949E+00
   4.6809626E-04   7.2159086E+04   -1.6644859E+00
   4.7025797E-04   7.1607893E+04   -1.6639776E+00
   4.7242967E-04   7.1061077E+04   -1.6634701E+00
   4.7461140E-04   7.0518601E+04   -1.6629634E+00
   4.7680321E-04   6.9980429E+04   -1.6624576E+00
   4.7900514E-04   6.9446526E+04   -1.6619525E+00
   4.8121723E-04   6.8916857E+04   -1.6614483E+00
   4.8343954E-04   6.8391387E+04   -1.6609449E+00
   4.8567212E-04   6.7870080E+04   -1.6604424E+00
   4.8791500E-04   6.7352903E+04   -1.6599406E+00
   4.9016825E-04   6.6839821E+04   -1.6594397E+00
   4.9243189E-04   6.6330800E+04   -1.6589396E+00
   4.9470600E-04   6.5825808E+04   -1.6584404E+00
   4.9699060E-04   6.5324810E+04   -1.6579420E+00
   4.9928575E-04   6.4827774E+04   -1.6574444E+00
   5.0159151E-04   6.4334668E+04   -1.6569477E+00
   5.0390791E-04   6.3845458E+04   -1.6564518E+00
   5.0623501E-04   6.3360112E+04   -1.6559568E+00
   5.0857286E-04   6.2878600E+04   -1.6554627E+00
   5.1092150E-04   6.2400889E+04   -1.6549694E+00
   5.1328099E-04   6.1926947E+04   -1.6544770E+00
   5.1565137E-04   6.1456745E+04   -1.6539854E+00
   5.1803270E-04   6.0990251E+04   -1.6534947E+00
   5.2042503E-04   6.0527435E+04   -1.6530049E+00
   5.2282841E-04   6.0068266E+04   -1.6525159E+00
   5.2524289E-04   5.9612715E+04   -1.6520279E+00
   5.2766851E-04   5.9160751E+04   -1.6515407E+00
   5.3010534E-04   5.8712346E+04   -1.6510544E+00
   5.3255342E-04   5.8267469E+04   -1.6505689E+00
   5.3501281E-04   5.7826093E+04   -1.6500844E+00
   5.3748356E-04   5.7388188E+04   -1.6496008E+00
   5.3996571E-04   5.6953727E+04   -1.6491180E+00
   5.4245933E-04   5.6522679E+04   -1.6486361E+00
   5.4496446E-04   5.6095019E+04   -1.6481552E+00
   5.4748117E-04   5.5670718E+04   -1.6476751E+00
   5.5000949E-04   5.5249748E+04   -1.6471960E+00
   5.5254949E-04   5.4832083E+04   -1.6467177E+00
   5.5510123E-04   5.4417695E+04   -1.6462404E+00
   5.5766474E-04   5.4006557E+04   -1.6457639E+00
   5.6024010E-04   5.3598642E+04   -1.6452884E+00
   5.6282734E-04   5.3193926E+04   -1.6448138E+00
   5.6542654E-04   5.2792380E+04   -1.6443401E+00
   5.6803774E-04   5.2393980E+04   -1.6438674E+00
   5.7066099E-04   5.1998700E+04   -1.6433955E+00
   5.7329637E-04   5.1606513E+04   -1.6429246E+00
   5.7594391E-04   5.1217396E+04   -1.6424546E+00
   5.7860368E-04   5.0831323E+04   -1.6419856E+00
   5.8127573E-04   5.0448269E+04   -1.6415175E+00
   5.8396012E-04   5.0068209E+04   -1.6410503E+00
   5.8665691E-04   4.9691120E+04   -1.6405840E+00
   5.8936616E-04   4.9316976E+04   -1.6401187E+00
   5.9208791E-04   4.8945754E+04   -1.6396543E+00
   5.9482223E-04   4.8577431E+04   -1.6391909E+00
   5.9756919E-04   4.8211982E+04   -1.6387284E+00
   6.0032882E-04   4.7849384E+04   -1.6382669E+00
   6.0310120E-04   4.7489613E+04   -1.6378063E+00
   6.0588639E-04   4.7132648E+04   -1.6373466E+00
   6.0868443E-04   4.6778465E+04   -1.6368879E+00
   6.1149540E-04   4.6427042E+04   -1.6364302E+00
   6.1431935E-04   4.6078356E+04   -1.6359734E+00
   6.1715634E-04   4.5732385E+04   -1.6355176E+00
   6.2000644E-04   4.5389106E+04   -1.6350627E+00
   6.2286969E-04   4.5048499E+04   -1.6346088E+00
