#        a       HoverH0(a)       dlogHdloga_of_a(a)
   1.0000000E-04   1.0793643E+06   -1.8475152E+00
   1.0046181E-04   1.0702166E+06   -1.8470265E+00
   1.0092575E-04   1.0611488E+06   -1.8465368E+00
   1.0139184E-04   1.0521601E+06   -1.8460463E+00
   1.0186008E-04   1.0432500E+06   -1.8455550E+00
   1.0233048E-04   1.0344177E+06   -1.8450627E+00
   1.0280305E-04   1.0256624E+06   -1.8445696E+00
   1.0327781E-04   1.0169836E+06   -1.8440757E+00
   1.0375475E-04   1.0083805E+06   -1.8435808E+00
   1.0423390E-04   9.9985252E+05   -1.8430852E+00
   1.0471527E-04   9.9139889E+05   -1.8425886E+00
   1.0519885E-04   9.8301898E+05   -1.8420913E+00
   1.0568467E-04   9.7471214E+05   -1.8415930E+00
   1.0617274E-04   9.6647772E+05   -1.8410940E+00
   1.0666305E-04   9.5831507E+05   -1.8405941E+00
   1.0715563E-04   9.5022355E+05   -1.8400933E+00
   1.0765049E-04   9.4220252E+05   -1.8395918E+00
   1.0814763E-04   9.3425137E+05   -1.8390894E+00
   1.0864707E-04   9.2636946E+05   -1.8385862E+00
   1.0914881E-04   9.1855617E+05   -1.8380821E+00
   1.0965287E-04   9.1081091E+05   -1.8375772E+00
   1.1015926E-04   9.0313305E+05   -1.8370716E+00
   1.1066799E-04   8.9552200E+05   -1.8365651E+00
   1.1117906E-04   8.8797717E+05   -1.8360578E+00
   1.1169250E-04   8.8049796E+05   -1.8355497E+00
   1.1220831E-04   8.7308380E+05   -1.8350408E+00
   1.1272650E-04   8.6573409E+05   -1.8345311E+00
   1.1324708E-04   8.5844827E+05   -1.8340206E+00
   1.1377007E-04   8.5122578E+05   -1.8335093E+00
   1.1429547E-04   8.4406604E+05   -1.8329972E+00
   1.1482330E-04   8.3696850E+05   -1.8324843E+00
   1.1535356E-04   8.2993260E+05   -1.8319707E+00
   1.1588628E-04   8.2295780E+05   -1.8314563E+00
   1.1642145E-04   8.1604355E+05   -1.8309411E+00
   1.1695910E-04   8.0918932E+05   -1.8304251E+00
   1.1749923E-04   8.0239456E+05   -1.8299084E+00
   1.1804185E-04   7.9565875E+05   -1.8293909E+00
   1.1858698E-04   7.8898137E+05   -1.8288726E+00
   1.1913463E-04   7.8236190E+05   -1.8283536E+00
   1.1968481E-04   7.7579982E+05   -1.8278339E+00
   1.2023752E-04   7.6929463E+05   -1.8273134E+00
   1.2079279E-04   7.6284581E+05   -1.8267921E+00
   1.2135063E-04   7.5645288E+05   -1.8262702E+00
   1.2191104E-04   7.5011532E+05   -1.8257474E+00
   1.2247403E-04   7.4383265E+05   -1.8252240E+00
   1.2303963E-04   7.3760438E+05   -1.8246998E+00
   1.2360784E-04   7.3143003E+05   -1.8241749E+00
   1.2417868E-04   7.2530912E+05   -1.8236493E+00
   1.2475215E-04   7.1924117E+05   -1.8231230E+00
   1.2532826E-04   7.1322572E+05   -1.8225960E+00
   1.2590704E-04   7.0726230E+05   -1.8220682E+00
   1.2648850E-04   7.0135045E+05   -1.8215398E+00
   1.2707263E-04   6.9548971E+05   -1.8210106E+00
   1.2765947E-04   6.8967962E+05   -1.8204808E+00
   1.2824901E-04   6.8391974E+05   -1.8199503E+00
   1.2884128E-04   6.7820963E+05   -1.8194191E+00
   1.2943628E-04   6.7254884E+05   -1.8188872E+00
   1.3003403E-04   6.6693693E+05   -1.8183546E+00
   1.3063454E-04   6.6137347E+05   -1.8178214E+00
   1.3123783E-04   6.5585803E+05   -1.8172875E+00
   1.3184390E-04   6.5039019E+05   -1.8167529E+00
   1.3245277E-04   6.4496953E+05   -1.8162177E+00
   1.3306445E-04   6.3959562E+05   -1.8156818E+00
   1.3367895E-04   6.3426805E+05   -1.8151453E+00
   1.3429630E-04   6.2898641E+05   -1.8146082E+00
   1.3491649E-04   6.2375030E+05   -1.8140703E+00
   1.3553955E-04   6.1855932E+05   -1.8135319E+00
   1.3616548E-04   6.1341306E+05   -1.8129928E+00
   1.3679431E-04   6.0831112E+05   -1.8124531E+00
   1.3742604E-04   6.0325312E+05   -1.8119128E+00
   1.3806069E-04   5.9823867E+05   -1.8113719E+00
   1.3869827E-04   5.9326738E+05   -1.8108303E+00
   1.3933879E-04   5.8833886E+05   -1.8102881E+00
   1.3998227E-04   5.8345275E+05   -1.8097454E+00
   1.4062872E-04   5.7860867E+05   -1.8092020E+00
   1.4127816E-04   5.7380624E+05   -1.8086581E+00
   1.4193060E-04   5.6904509E+05   -1.8081135E+00
   1.4258605E-04   5.6432487E+05   -1.8075684E+00
   1.4324453E-04   5.5964521E+05   -1.8070227E+00
   1.4390605E-04   5.5500575E+05   -1.8064764E+00
   1.4457062E-04   5.5040614E+05   -1.8059296E+00
   1.4523826E-04   5.4584603E+05   -1.8053821E+00
   1.4590899E-04   5.4132506E+05   -1.8048342E+00
   1.4658281E-04   5.3684289E+05   -1.8042856E+00
   1.4725974E-04   5.3239918E+05   -1.8037366E+00
   1.4793981E-04   5.2799359E+05   -1.8031870E+00
   1.4862301E-04   5.2362579E+05   -1.8026368E+00
   1.4930936E-04   5.1929543E+05   -1.8020861E+00
   1.4999889E-04   5.1500219E+05   -1.8015349E+00
   1.5069160E-04   5.1074574E+05   -1.8009831E+00
   1.5138751E-04   5.0652576E+05   -1.8004309E+00
   1.5208663E-04   5.0234193E+05   -1.7998781E+00
   1.5278899E-04   4.9819392E+05   -1.7993248E+00
   1.5349458E-04   4.9408143E+05   -1.7987710E+00
   1.5420343E-04   4.9000413E+05   -1.7982167E+00
   1.5491556E-04   4.8596172E+05   -1.7976619E+00
   1.5563098E-04   4.8195390E+05   -1.7971067E+00
   1.5634970E-04   4.7798035E+05   -1.7965509E+00
   1.5707174E-04   4.7404078E+05   -1.7959947E+00
   1.5779711E-04   4.7013488E+05   -1.7954380E+00
   1.5852584E-04   4.6626236E+05   -1.7948808E+00
   1.5925792E-04   4.6242293E+05   -1.7943232E+00
   1.5999339E-04   4.5861629E+05   -1.7937651E+00
   1.6073226E-04   4.5484215E+05   -1.7932066E+00
   1.6147454E-04   4.5110024E+05   -1.7926476E+00
   1.6222024E-04   4.4739026E+05   -1.7920882E+00
   1.6296939E-04   4.4371194E+05   -1.7915283E+00
   1.6372200E-04   4.4006500E+05   -1.7909680E+00
   1.6447809E-04   4.3644916E+05   -1.7904073E+00
   1.6523767E-04   4.3286415E+05   -1.7898462E+00
   1.6600075E-04   4.2930970E+05   -1.7892847E+00
   1.6676736E-04   4.2578553E+05   -1.7887227E+00
   1.6753751E-04   4.2229139E+05   -1.7881604E+00
   1.6831122E-04   4.1882701E+05   -1.7875976E+00
   1.6908849E-04   4.1539213E+05   -1.7870345E+00
   1.6986936E-04   4.1198649E+05   -1.7864710E+00
   1.7065384E-04   4.0860982E+05   -1.7859071E+00
   1.7144193E-04   4.0526189E+05   -1.7853428E+00
   1.7223367E-04   4.0194244E+05   -1.7847782E+00
   1.7302906E-04   3.9865121E+05   -1.7842132E+00
   1.7382813E-04   3.9538796E+05   -1.7836478E+00
   1.7463089E-04   3.9215244E+05   -1.7830821E+00
   1.7543735E-04   3.8894442E+05   -1.7825161E+00
   1.7624754E-04   3.8576364E+05   -1.7819497E+00
   1.7706147E-04   3.8260988E+05   -1.7813829E+00
   1.7787916E-04   3.7948289E+05   -1.7808159E+00
   1.7870062E-04   3.7638244E+05   -1.7802485E+00
   1.7952588E-04   3.7330830E+05   -1.7796808E+00
   1.8035495E-04   3.7026023E+05   -1.7791128E+00
   1.8118785E-04   3.6723801E+05   -1.7785445E+00
   1.8202459E-04   3.6424142E+05   -1.7779759E+00
   1.8286520E-04   3.6127022E+05   -1.7774070E+00
   1.8370969E-04   3.5832420E+05   -1.7768378E+00
   1.8455808E-04   3.5540314E+05   -1.7762683E+00
   1.8541039E-04   3.5250682E+05   -1.7756986E+00
   1.8626663E-04   3.4963501E+05   -1.7751286E+00
   1.8712683E-04   3.4678752E+05   -1.7745583E+00
   1.8799100E-04   3.4396411E+05   -1.7739878E+00
   1.8885917E-04   3.4116459E+05   -1.7734170E+00
   1.8973134E-04   3.3838875E+05   -1.7728459E+00
   1.9060754E-04   3.3563638E+05   -1.7722747E+00
   1.9148778E-04   3.3290726E+05   -1.7717031E+00
   1.9237209E-04   3.3020121E+05   -1.7711314E+00
   1.9326049E-04   3.2751802E+05   -1.7705594E+00
   1.9415299E-04   3.2485749E+05   -1.7699872E+00
   1.9504960E-04   3.2221942E+05   -1.7694149E+00
   1.9595036E-04   3.1960362E+05   -1.7688423E+00
   1.9685528E-04   3.1700988E+05   -1.7682695E+00
   1.9776438E-04   3.1443803E+05   -1.7676965E+00
   1.9867768E-04   3.1188787E+05   -1.7671233E+00
   1.9959519E-04   3.0935920E+05   -1.7665499E+00
   2.0051694E-04   3.0685185E+05   -1.7659764E+00
   2.0144295E-04   3.0436562E+05   -1.7654027E+00
   2.0237324E-04   3.0190034E+05   -1.7648288E+00
   2.0330782E-04   2.9945582E+05   -1.7642548E+00
   2.0424671E-04   2.9703187E+05   -1.7636806E+00
   2.0518995E-04   2.9462833E+05   -1.7631063E+00
   2.0613754E-04   2.9224501E+05   -1.7625318E+00
   2.0708950E-04   2.8988173E+05   -1.7619572E+00
   2.0804586E-04   2.8753833E+05   -1.7613825E+00
   2.0900664E-04   2.8521463E+05   -1.7608077E+00
   2.0997185E-04   2.8291045E+05   -1.7602327E+00
   2.1094152E-04   2.8062564E+05   -1.7596577E+00
   2.1191567E-04   2.7836001E+05   -1.7590825E+00
   2.1289432E-04   2.7611341E+05   -1.7585072E+00
   2.1387749E-04   2.7388566E+05   -1.7579319E+00
   2.1486520E-04   2.7167661E+05   -1.7573564E+00
   2.1585747E-04   2.6948609E+05   -1.7567809E+00
   2.1685432E-04   2.6731394E+05   -1.7562053E+00
   2.1785578E-04   2.6516000E+05   -1.7556297E+00
   2.1886186E-04   2.6302412E+05   -1.7550540E+00
   2.1987259E-04   2.6090613E+05   -1.7544782E+00
   2.2088798E-04   2.5880589E+05   -1.7539024E+00
   2.2190807E-04   2.5672323E+05   -1.7533265E+00
   2.2293286E-04   2.5465801E+05   -1.7527506E+00
   2.2396239E-04   2.5261007E+05   -1.7521747E+00
   2.2499667E-04   2.5057927E+05   -1.7515988E+00
   2.2603573E-04   2.4856545E+05   -1.7510228E+00
   2.2707958E-04   2.4656847E+05   -1.7504468E+00
   2.2812826E-04   2.4458818E+05   -1.7498708E+00
   2.2918178E-04   2.4262444E+05   -1.7492949E+00
   2.3024017E-04   2.4067711E+05   -1.7487189E+00
   2.3130344E-04   2.3874604E+05   -1.7481429E+00
   2.3237162E-04   2.3683109E+05   -1.7475670E+00
   2.3344474E-04   2.3493213E+05   -1.7469911E+00
   2.3452281E-04   2.3304901E+05   -1.7464152E+00
   2.3560586E-04   2.3118160E+05   -1.7458394E+00
   2.3669392E-04   2.2932976E+05   -1.7452636E+00
   2.3778699E-04   2.2749335E+05   -1.7446878E+00
   2.3888512E-04   2.2567226E+05   -1.7441121E+00
   2.3998831E-04   2.2386633E+05   -1.7435365E+00
   2.4109661E-04   2.2207544E+05   -1.7429609E+00
   2.4221001E-04   2.2029947E+05   -1.7423854E+00
   2.4332857E-04   2.1853827E+05   -1.7418100E+00
   2.4445228E-04   2.1679173E+05   -1.7412347E+00
   2.4558119E-04   2.1505972E+05   -1.7406595E+00
   2.4671531E-04   2.1334211E+05   -1.7400843E+00
   2.4785467E-04   2.1163879E+05   -1.7395093E+00
   2.4899928E-04   2.0994961E+05   -1.7389344E+00
   2.5014919E-04   2.0827447E+05   -1.7383596E+00
   2.5130440E-04   2.0661325E+05   -1.7377849E+00
   2.5246495E-04   2.0496581E+05   -1.7372104E+00
   2.5363086E-04   2.0333205E+05   -1.7366359E+00
   2.5480216E-04   2.0171185E+05   -1.7360617E+00
   2.5597886E-04   2.0010509E+05   -1.7354875E+00
   2.5716100E-04   1.9851165E+05   -1.7349136E+00
   2.5834859E-04   1.9693141E+05   -1.7343398E+00
   2.5954168E-04   1.9536428E+05   -1.7337661E+00
   2.6074027E-04   1.9381013E+05   -1.7331926E+00
   2.6194439E-04   1.9226885E+05   -1.7326193E+00
   2.6315408E-04   1.9074033E+05   -1.7320462E+00
   2.6436935E-04   1.8922446E+05   -1.7314733E+00
   2.6559024E-04   1.8772113E+05   -1.7309006E+00
   2.6681676E-04   1.8623024E+05   -1.7303280E+00
   2.6804895E-04   1.8475168E+05   -1.7297557E+00
   2.6928683E-04   1.8328534E+05   -1.7291836E+00
   2.7053042E-04   1.8183111E+05   -1.7286117E+00
   2.7177976E-04   1.8038890E+05   -1.7280401E+00
   2.7303487E-04   1.7895860E+05   -1.7274686E+00
   2.7429577E-04   1.7754011E+05   -1.7268974E+00
   2.7556250E-04   1.7613332E+05   -1.7263265E+00
   2.7683507E-04   1.7473815E+05   -1.7257558E+00
   2.7811353E-04   1.7335447E+05   -1.7251853E+00
   2.7939788E-04   1.7198221E+05   -1.7246151E+00
   2.8068817E-04   1.7062126E+05   -1.7240452E+00
   2.8198442E-04   1.6927152E+05   -1.7234755E+00
   2.8328665E-04   1.6793290E+05   -1.7229062E+00
   2.8459490E-04   1.6660530E+05   -1.7223371E+00
   2.8590919E-04   1.6528864E+05   -1.7217683E+00
   2.8722955E-04   1.6398280E+05   -1.7211998E+00
   2.8855600E-04   1.6268771E+05   -1.7206316E+00
   2.8988859E-04   1.6140327E+05   -1.7200637E+00
   2.9122732E-04   1.6012939E+05   -1.7194961E+00
   2.9257224E-04   1.5886598E+05   -1.7189288E+00
   2.9392337E-04   1.5761295E+05   -1.7183619E+00
   2.9528074E-04   1.5637021E+05   -1.7177953E+00
   2.9664438E-04   1.5513768E+05   -1.7172290E+00
   2.9801431E-04   1.5391526E+05   -1.7166630E+00
   2.9939057E-04   1.5270287E+05   -1.7160975E+00
   3.0077319E-04   1.5150042E+05   -1.7155322E+00
   3.0216219E-04   1.5030784E+05   -1.7149673E+00
   3.0355761E-04   1.4912503E+05   -1.7144028E+00
   3.0495947E-04   1.4795192E+05   -1.7138387E+00
   3.0636780E-04   1.4678841E+05   -1.7132749E+00
   3.0778264E-04   1.4563443E+05   -1.7127115E+00
   3.0920401E-04   1.4448990E+05   -1.7121485E+00
   3.1063195E-04   1.4335474E+05   -1.7115859E+00
   3.1206648E-04   1.4222886E+05   -1.7110237E+00
   3.1350764E-04   1.4111219E+05   -1.7104619E+00
   3.1495545E-04   1.4000465E+05   -1.7099005E+00
   3.1640994E-04   1.3890616E+05   -1.7093395E+00
   3.1787116E-04   1.3781664E+05   -1.7087790E+00
   3.1933912E-04   1.3673603E+05   -1.7082188E+00
   3.2081386E-04   1.3566424E+05   -1.7076591E+00
   3.2229541E-04   1.3460119E+05   -1.7070999E+00
   3.2378381E-04   1.3354682E+05   -1.7065410E+00
   3.2527908E-04   1.3250105E+05   -1.7059826E+00
   3.2678125E-04   1.3146381E+05   -1.7054247E+00
   3.2829036E-04   1.3043502E+05   -1.7048672E+00
   3.2980644E-04   1.2941462E+05   -1.7043102E+00
   3.3132952E-04   1.2840253E+05   -1.7037537E+00
   3.3285963E-04   1.2739868E+05   -1.7031976E+00
   3.3439681E-04   1.2640300E+05   -1.7026420E+00
   3.3594109E-04   1.2541542E+05   -1.7020869E+00
   3.3749250E-04   1.2443588E+05   -1.7015323E+00
   3.3905108E-04   1.2346430E+05   -1.7009782E+00
   3.4061685E-04   1.2250062E+05   -1.7004246E+00
   3.4218986E-04   1.2154478E+05   -1.6998714E+00
   3.4377013E-04   1.2059670E+05   -1.6993188E+00
   3.4535769E-04   1.1965632E+05   -1.6987667E+00
   3.4695259E-04   1.1872357E+05   -1.6982152E+00
   3.4855485E-04   1.1779839E+05   -1.6976641E+00
   3.5016452E-04   1.1688072E+05   -1.6971136E+00
   3.5178161E-04   1.1597050E+05   -1.6965636E+00
   3.5340618E-04   1.1506765E+05   -1.6960142E+00
   3.5503824E-04   1.1417212E+05   -1.6954653E+00
   3.5667785E-04   1.1328385E+05   -1.6949170E+00
   3.5832502E-04   1.1240277E+05   -1.6943692E+00
   3.5997981E-04   1.1152882E+05   -1.6938220E+00
   3.6164223E-04   1.1066195E+05   -1.6932753E+00
   3.6331233E-04   1.0980210E+05   -1.6927292E+00
   3.6499015E-04   1.0894920E+05   -1.6921837E+00
   3.6667571E-04   1.0810319E+05   -1.6916388E+00
   3.6836906E-04   1.0726402E+05   -1.6910944E+00
   3.7007022E-04   1.0643164E+05   -1.6905507E+00
   3.7177925E-04   1.0560598E+05   -1.6900075E+00
   3.7349616E-04   1.0478698E+05   -1.6894649E+00
   3.7522101E-04   1.0397460E+05   -1.6889230E+00
   3.7695382E-04   1.0316877E+05   -1.6883816E+00
   3.7869463E-04   1.0236945E+05   -1.6878409E+00
   3.8044348E-04   1.0157657E+05   -1.6873008E+00
   3.8220041E-04   1.0079008E+05   -1.6867613E+00
   3.8396545E-04   1.0000993E+05   -1.6862224E+00
   3.8573864E-04   9.9236060E+04   -1.6856842E+00
   3.8752002E-04   9.8468426E+04   -1.6851466E+00
   3.8930963E-04   9.7706972E+04   -1.6846096E+00
   3.9110750E-04   9.6951646E+04   -1.6840733E+00
   3.9291368E-04   9.6202396E+04   -1.6835377E+00
   3.9472820E-04   9.5459172E+04   -1.6830027E+00
   3.9655109E-04   9.4721924E+04   -1.6824683E+00
   3.9838241E-04   9.3990600E+04   -1.6819347E+00
   4.0022218E-04   9.3265152E+04   -1.6814016E+00
   4.0207045E-04   9.2545531E+04   -1.6808693E+00
   4.0392725E-04   9.1831687E+04   -1.6803376E+00
   4.0579263E-04   9.1123573E+04   -1.6798067E+00
   4.0766662E-04   9.0421140E+04   -1.6792764E+00
   4.0954927E-04   8.9724340E+04   -1.6787468E+00
   4.1144061E-04   8.9033128E+04   -1.6782179E+00
   4.1334068E-04   8.8347455E+04   -1.6776896E+00
   4.1524953E-04   8.7667276E+04   -1.6771621E+00
   4.1716720E-04   8.6992546E+04   -1.6766353E+00
   4.1909372E-04   8.6323217E+04   -1.6761092E+00
   4.2102914E-04   8.5659246E+04   -1.6755839E+00
   4.2297350E-04   8.5000588E+04   -1.6750592E+00
   4.2492683E-04   8.4347198E+04   -1.6745353E+00
   4.2688919E-04   8.3699032E+04   -1.6740121E+00
   4.2886061E-04   8.3056047E+04   -1.6734896E+00
   4.3084113E-04   8.2418201E+04   -1.6729679E+00
   4.3283080E-04   8.1785449E+04   -1.6724469E+00
   4.3482966E-04   8.1157749E+04   -1.6719266E+00
   4.3683775E-04   8.0535060E+04   -1.6714071E+00
   4.3885511E-04   7.9917340E+04   -1.6708884E+00
   4.4088179E-04   7.9304548E+04   -1.6703704E+00
   4.4291783E-04   7.8696641E+04   -1.6698531E+00
   4.4496327E-04   7.8093581E+04   -1.6693366E+00
   4.4701816E-04   7.7495326E+04   -1.6688209E+00
   4.4908253E-04   7.6901837E+04   -1.6683060E+00
   4.5115644E-04   7.6313074E+04   -1.6677918E+00
   4.5323993E-04   7.5728997E+04   -1.6672784E+00
   4.5533304E-04   7.5149569E+04   -1.6667658E+00
   4.5743582E-04   7.4574751E+04   -1.6662540E+00
   4.5954830E-04   7.4004503E+04   -1.6657430E+00
   4.6167054E-04   7.3438789E+04   -1.6652327E+00
   4.6380259E-04   7.2877570E+04   -1.6647233E+00
   4.6594448E-04   7.2320810E+04   -1.6642146E+00
   4.6809626E-04   7.1768471E+04   -1.6637068E+00
   4.7025797E-04   7.1220517E+04   -1.6631997E+00
   4.7242967E-04   7.0676912E+04   -1.6626935E+00
   4.7461140E-04   7.0137619E+04   -1.6621881E+00
   4.7680321E-04   6.9602604E+04   -1.6616835E+00
   4.7900514E-04   6.9071830E+04   -1.6611797E+00
   4.8121723E-04   6.8545262E+04   -1.6606768E+00
   4.8343954E-04   6.8022867E+04   -1.6601746E+00
   4.8567212E-04   6.7504609E+04   -1.6596733E+00
   4.8791500E-04   6.6990453E+04   -1.6591729E+00
   4.9016825E-04   6.6480368E+04   -1.6586732E+00
   4.9243189E-04   6.5974317E+04   -1.6581744E+00
   4.9470600E-04   6.5472270E+04   -1.6576765E+00
   4.9699060E-04   6.4974191E+04   -1.6571794E+00
   4.9928575E-04   6.4480049E+04   -1.6566831E+00
   5.0159151E-04   6.3989812E+04   -1.6561877E+00
   5.0390791E-04   6.3503446E+04   -1.6556932E+00
   5.0623501E-04   6.3020921E+04   -1.6551995E+00
   5.0857286E-04   6.2542204E+04   -1.6547067E+00
   5.1092150E-04   6.2067265E+04   -1.6542147E+00
   5.1328099E-04   6.1596072E+04   -1.6537236E+00
   5.1565137E-04   6.1128594E+04   -1.6532334E+00
   5.1803270E-04   6.0664801E+04   -1.6527440E+00
   5.2042503E-04   6.0204662E+04   -1.6522555E+00
   5.2282841E-04   5.9748148E+04   -1.6517679E+00
   5.2524289E-04   5.9295228E+04   -1.6512812E+00
   5.2766851E-04   5.8845874E+04   -1.6507954E+00
   5.3010534E-04   5.8400055E+04   -1.6503104E+00
   5.3255342E-04   5.7957744E+04   -1.6498263E+00
   5.3501281E-04   5.7518911E+04   -1.6493432E+00
   5.3748356E-04   5.7083527E+04   -1.6488609E+00
   5.3996571E-04   5.6651564E+04   -1.6483795E+00
   5.4245933E-04   5.6222995E+04   -1.6478990E+00
   5.4496446E-04   5.5797792E+04   -1.6474195E+00
   5.4748117E-04   5.5375927E+04   -1.6469408E+00
   5.5000949E-04   5.4957372E+04   -1.6464630E+00
   5.5254949E-04   5.4542100E+04   -1.6459862E+00
   5.5510123E-04   5.4130086E+04   -1.6455102E+00
   5.5766474E-04   5.3721301E+04   -1.6450352E+00
   5.6024010E-04   5.3315721E+04   -1.6445611E+00
   5.6282734E-04   5.2913317E+04   -1.6440879E+00
   5.6542654E-04   5.2514065E+04   -1.6436157E+00
   5.6803774E-04   5.2117939E+04   -1.6431443E+00
   5.7066099E-04   5.1724914E+04   -1.6426739E+00
   5.7329637E-04   5.1334963E+04   -1.6422044E+00
   5.7594391E-04   5.0948062E+04   -1.6417358E+00
   5.7860368E-04   5.0564186E+04   -1.6412682E+00
   5.8127573E-04   5.0183311E+04   -1.6408015E+00
   5.8396012E-04   4.9805412E+04   -1.6403358E+00
   5.8665691E-04   4.9430464E+04   -1.6398710E+00
   5.8936616E-04   4.9058444E+04   -1.6394071E+00
   5.9208791E-04   4.8689328E+04   -1.6389442E+00
   5.9482223E-04   4.8323092E+04   -1.6384822E+00
   5.9756919E-04   4.7959713E+04   -1.6380211E+00
   6.0032882E-04   4.7599167E+04   -1.6375611E+00
   6.0310120E-04   4.7241432E+04   -1.6371019E+00
   6.0588639E-04   4.6886484E+04   -1.6366437E+00
   6.0868443E-04   4.6534301E+04   -1.6361865E+00
   6.1149540E-04   4.6184861E+04   -1.6357302E+00
   6.1431935E-04   4.5838142E+04   -1.6352749E+00
   6.1715634E-04   4.5494120E+04   -1.6348206E+00
   6.2000644E-04   4.5152775E+04   -1.6343672E+00
   6.2286969E-04   4.4814085E+04   -1.6339148E+00
