#        a       HoverH0(a)       dlogHdloga_of_a(a)
   1.0000000E-04   1.0739218E+06   -1.8553978E+00
   1.0046181E-04   1.0647815E+06   -1.8549237E+00
   1.0092575E-04   1.0557213E+06   -1.8544488E+00
   1.0139184E-04   1.0467404E+06   -1.8539729E+00
   1.0186008E-04   1.0378382E+06   -1.8534961E+00
   1.0233048E-04   1.0290140E+06   -1.8530184E+00
   1.0280305E-04   1.0202671E+06   -1.8525398E+00
   1.0327781E-04   1.0115968E+06   -1.8520603E+00
   1.0375475E-04   1.0030023E+06   -1.8515799E+00
   1.0423390E-04   9.9448311E+05   -1.8510986E+00
   1.0471527E-04   9.8603844E+05   -1.8506164E+00
   1.0519885E-04   9.7766765E+05   -1.8501333E+00
   1.0568467E-04   9.6937008E+05   -1.8496493E+00
   1.0617274E-04   9.6114508E+05   -1.8491644E+00
   1.0666305E-04   9.5299199E+05   -1.8486786E+00
   1.0715563E-04   9.4491019E+05   -1.8481919E+00
   1.0765049E-04   9.3689903E+05   -1.8477044E+00
   1.0814763E-04   9.2895787E+05   -1.8472160E+00
   1.0864707E-04   9.2108610E+05   -1.8467267E+00
   1.0914881E-04   9.1328310E+05   -1.8462365E+00
   1.0965287E-04   9.0554824E+05   -1.8457455E+00
   1.1015926E-04   8.9788092E+05   -1.8452536E+00
   1.1066799E-04   8.9028055E+05   -1.8447608E+00
   1.1117906E-04   8.8274651E+05   -1.8442671E+00
   1.1169250E-04   8.7527823E+05   -1.8437727E+00
   1.1220831E-04   8.6787510E+05   -1.8432773E+00
   1.1272650E-04   8.6053656E+05   -1.8427811E+00
   1.1324708E-04   8.5326203E+05   -1.8422841E+00
   1.1377007E-04   8.4605093E+05   -1.8417862E+00
   1.1429547E-04   8.3890270E+05   -1.8412874E+00
   1.1482330E-04   8.3181677E+05   -1.8407879E+00
   1.1535356E-04   8.2479260E+05   -1.8402874E+00
   1.1588628E-04   8.1782963E+05   -1.8397862E+00
   1.1642145E-04   8.1092732E+05   -1.8392841E+00
   1.1695910E-04   8.0408512E+05   -1.8387812E+00
   1.1749923E-04   7.9730250E+05   -1.8382775E+00
   1.1804185E-04   7.9057894E+05   -1.8377729E+00
   1.1858698E-04   7.8391389E+05   -1.8372676E+00
   1.1913463E-04   7.7730684E+05   -1.8367614E+00
   1.1968481E-04   7.7075728E+05   -1.8362544E+00
   1.2023752E-04   7.6426470E+05   -1.8357466E+00
   1.2079279E-04   7.5782858E+05   -1.8352380E+00
   1.2135063E-04   7.5144842E+05   -1.8347286E+00
   1.2191104E-04   7.4512373E+05   -1.8342184E+00
   1.2247403E-04   7.3885401E+05   -1.8337074E+00
   1.2303963E-04   7.3263877E+05   -1.8331956E+00
   1.2360784E-04   7.2647753E+05   -1.8326831E+00
   1.2417868E-04   7.2036980E+05   -1.8321697E+00
   1.2475215E-04   7.1431512E+05   -1.8316556E+00
   1.2532826E-04   7.0831300E+05   -1.8311407E+00
   1.2590704E-04   7.0236298E+05   -1.8306250E+00
   1.2648850E-04   6.9646460E+05   -1.8301086E+00
   1.2707263E-04   6.9061740E+05   -1.8295914E+00
   1.2765947E-04   6.8482092E+05   -1.8290734E+00
   1.2824901E-04   6.7907472E+05   -1.8285547E+00
   1.2884128E-04   6.7337834E+05   -1.8280353E+00
   1.2943628E-04   6.6773135E+05   -1.8275150E+00
   1.3003403E-04   6.6213330E+05   -1.8269941E+00
   1.3063454E-04   6.5658376E+05   -1.8264724E+00
   1.3123783E-04   6.5108230E+05   -1.8259500E+00
   1.3184390E-04   6.4562848E+05   -1.8254268E+00
   1.3245277E-04   6.4022190E+05   -1.8249029E+00
   1.3306445E-04   6.3486213E+05   -1.8243783E+00
   1.3367895E-04   6.2954875E+05   -1.8238530E+00
   1.3429630E-04   6.2428135E+05   -1.8233269E+00
   1.3491649E-04   6.1905952E+05   -1.8228001E+00
   1.3553955E-04   6.1388286E+05   -1.8222727E+00
   1.3616548E-04   6.0875097E+05   -1.8217445E+00
   1.3679431E-04   6.0366346E+05   -1.8212156E+00
   1.3742604E-04   5.9861992E+05   -1.8206861E+00
   1.3806069E-04   5.9361997E+05   -1.8201558E+00
   1.3869827E-04   5.8866322E+05   -1.8196249E+00
   1.3933879E-04   5.8374929E+05   -1.8190932E+00
   1.3998227E-04   5.7887779E+05   -1.8185609E+00
   1.4062872E-04   5.7404836E+05   -1.8180279E+00
   1.4127816E-04   5.6926062E+05   -1.8174943E+00
   1.4193060E-04   5.6451419E+05   -1.8169600E+00
   1.4258605E-04   5.5980872E+05   -1.8164250E+00
   1.4324453E-04   5.5514385E+05   -1.8158894E+00
   1.4390605E-04   5.5051920E+05   -1.8153531E+00
   1.4457062E-04   5.4593443E+05   -1.8148162E+00
   1.4523826E-04   5.4138919E+05   -1.8142786E+00
   1.4590899E-04   5.3688311E+05   -1.8137404E+00
   1.4658281E-04   5.3241586E+05   -1.8132016E+00
   1.4725974E-04   5.2798710E+05   -1.8126621E+00
   1.4793981E-04   5.2359647E+05   -1.8121220E+00
   1.4862301E-04   5.1924365E+05   -1.8115813E+00
   1.4930936E-04   5.1492830E+05   -1.8110400E+00
   1.4999889E-04   5.1065009E+05   -1.8104981E+00
   1.5069160E-04   5.0640869E+05   -1.8099556E+00
   1.5138751E-04   5.0220377E+05   -1.8094124E+00
   1.5208663E-04   4.9803501E+05   -1.8088687E+00
   1.5278899E-04   4.9390210E+05   -1.8083244E+00
   1.5349458E-04   4.8980471E+05   -1.8077795E+00
   1.5420343E-04   4.8574254E+05   -1.8072340E+00
   1.5491556E-04   4.8171527E+05   -1.8066879E+00
   1.5563098E-04   4.7772259E+05   -1.8061413E+00
   1.5634970E-04   4.7376419E+05   -1.8055941E+00
   1.5707174E-04   4.6983978E+05   -1.8050463E+00
   1.5779711E-04   4.6594906E+05   -1.8044980E+00
   1.5852584E-04   4.6209172E+05   -1.8039491E+00
   1.5925792E-04   4.5826747E+05   -1.8033997E+00
   1.5999339E-04   4.5447602E+05   -1.8028498E+00
   1.6073226E-04   4.5071709E+05   -1.8022993E+00
   1.6147454E-04   4.4699037E+05   -1.8017483E+00
   1.6222024E-04   4.4329560E+05   -1.8011967E+00
   1.6296939E-04   4.3963249E+05   -1.8006446E+00
   1.6372200E-04   4.3600076E+05   -1.8000921E+00
   1.6447809E-04   4.3240013E+05   -1.7995390E+00
   1.6523767E-04   4.2883032E+05   -1.7989854E+00
   1.6600075E-04   4.2529108E+05   -1.7984313E+00
   1.6676736E-04   4.2178212E+05   -1.7978767E+00
   1.6753751E-04   4.1830318E+05   -1.7973216E+00
   1.6831122E-04   4.1485400E+05   -1.7967660E+00
   1.6908849E-04   4.1143431E+05   -1.7962100E+00
   1.6986936E-04   4.0804386E+05   -1.7956534E+00
   1.7065384E-04   4.0468239E+05   -1.7950964E+00
   1.7144193E-04   4.0134963E+05   -1.7945390E+00
   1.7223367E-04   3.9804535E+05   -1.7939811E+00
   1.7302906E-04   3.9476929E+05   -1.7934227E+00
   1.7382813E-04   3.9152119E+05   -1.7928639E+00
   1.7463089E-04   3.8830083E+05   -1.7923046E+00
   1.7543735E-04   3.8510794E+05   -1.7917449E+00
   1.7624754E-04   3.8194229E+05   -1.7911848E+00
   1.7706147E-04   3.7880365E+05   -1.7906243E+00
   1.7787916E-04   3.7569176E+05   -1.7900633E+00
   1.7870062E-04   3.7260640E+05   -1.7895019E+00
   1.7952588E-04   3.6954734E+05   -1.7889401E+00
   1.8035495E-04   3.6651434E+05   -1.7883779E+00
   1.8118785E-04   3.6350718E+05   -1.7878153E+00
   1.8202459E-04   3.6052562E+05   -1.7872524E+00
   1.8286520E-04   3.5756945E+05   -1.7866890E+00
   1.8370969E-04   3.5463844E+05   -1.7861252E+00
   1.8455808E-04   3.5173236E+05   -1.7855611E+00
   1.8541039E-04   3.4885101E+05   -1.7849966E+00
   1.8626663E-04   3.4599417E+05   -1.7844317E+00
   1.8712683E-04   3.4316161E+05   -1.7838665E+00
   1.8799100E-04   3.4035312E+05   -1.7833009E+00
   1.8885917E-04   3.3756851E+05   -1.7827350E+00
   1.8973134E-04   3.3480754E+05   -1.7821687E+00
   1.9060754E-04   3.3207003E+05   -1.7816021E+00
   1.9148778E-04   3.2935576E+05   -1.7810352E+00
   1.9237209E-04   3.2666453E+05   -1.7804680E+00
   1.9326049E-04   3.2399613E+05   -1.7799004E+00
   1.9415299E-04   3.2135037E+05   -1.7793325E+00
   1.9504960E-04   3.1872706E+05   -1.7787643E+00
   1.9595036E-04   3.1612598E+05   -1.7781958E+00
   1.9685528E-04   3.1354696E+05   -1.7776270E+00
   1.9776438E-04   3.1098979E+05   -1.7770579E+00
   1.9867768E-04   3.0845428E+05   -1.7764885E+00
   1.9959519E-04   3.0594025E+05   -1.7759189E+00
   2.0051694E-04   3.0344751E+05   -1.7753490E+00
   2.0144295E-04   3.0097587E+05   -1.7747788E+00
   2.0237324E-04   2.9852514E+05   -1.7742084E+00
   2.0330782E-04   2.9609515E+05   -1.7736377E+00
   2.0424671E-04   2.9368571E+05   -1.7730667E+00
   2.0518995E-04   2.9129664E+05   -1.7724955E+00
   2.0613754E-04   2.8892777E+05   -1.7719241E+00
   2.0708950E-04   2.8657891E+05   -1.7713524E+00
   2.0804586E-04   2.8424991E+05   -1.7707805E+00
   2.0900664E-04   2.8194057E+05   -1.7702084E+00
   2.0997185E-04   2.7965073E+05   -1.7696361E+00
   2.1094152E-04   2.7738022E+05   -1.7690636E+00
   2.1191567E-04   2.7512887E+05   -1.7684909E+00
   2.1289432E-04   2.7289651E+05   -1.7679179E+00
   2.1387749E-04   2.7068298E+05   -1.7673448E+00
   2.1486520E-04   2.6848812E+05   -1.7667715E+00
   2.1585747E-04   2.6631175E+05   -1.7661980E+00
   2.1685432E-04   2.6415373E+05   -1.7656244E+00
   2.1785578E-04   2.6201388E+05   -1.7650506E+00
   2.1886186E-04   2.5989206E+05   -1.7644766E+00
   2.1987259E-04   2.5778810E+05   -1.7639025E+00
   2.2088798E-04   2.5570185E+05   -1.7633282E+00
   2.2190807E-04   2.5363315E+05   -1.7627538E+00
   2.2293286E-04   2.5158186E+05   -1.7621793E+00
   2.2396239E-04   2.4954782E+05   -1.7616046E+00
   2.2499667E-04   2.4753088E+05   -1.7610298E+00
   2.2603573E-04   2.4553089E+05   -1.7604549E+00
   2.2707958E-04   2.4354770E+05   -1.7598798E+00
   2.2812826E-04   2.4158118E+05   -1.7593047E+00
   2.2918178E-04   2.3963117E+05   -1.7587295E+00
   2.3024017E-04   2.3769752E+05   -1.7581541E+00
   2.3130344E-04   2.3578011E+05   -1.7575787E+00
   2.3237162E-04   2.3387878E+05   -1.7570032E+00
   2.3344474E-04   2.3199340E+05   -1.7564277E+00
   2.3452281E-04   2.3012383E+05   -1.7558520E+00
   2.3560586E-04   2.2826994E+05   -1.7552763E+00
   2.3669392E-04   2.2643157E+05   -1.7547006E+00
   2.3778699E-04   2.2460861E+05   -1.7541248E+00
   2.3888512E-04   2.2280092E+05   -1.7535489E+00
   2.3998831E-04   2.2100836E+05   -1.7529730E+00
   2.4109661E-04   2.1923080E+05   -1.7523971E+00
   2.4221001E-04   2.1746812E+05   -1.7518212E+00
   2.4332857E-04   2.1572019E+05   -1.7512452E+00
   2.4445228E-04   2.1398687E+05   -1.7506692E+00
   2.4558119E-04   2.1226804E+05   -1.7500932E+00
   2.4671531E-04   2.1056357E+05   -1.7495172E+00
   2.4785467E-04   2.0887335E+05   -1.7489413E+00
   2.4899928E-04   2.0719725E+05   -1.7483653E+00
   2.5014919E-04   2.0553514E+05   -1.7477893E+00
   2.5130440E-04   2.0388690E+05   -1.7472134E+00
   2.5246495E-04   2.0225242E+05   -1.7466375E+00
   2.5363086E-04   2.0063157E+05   -1.7460616E+00
   2.5480216E-04   1.9902425E+05   -1.7454858E+00
   2.5597886E-04   1.9743032E+05   -1.7449100E+00
   2.5716100E-04   1.9584968E+05   -1.7443343E+00
   2.5834859E-04   1.9428220E+05   -1.7437586E+00
   2.5954168E-04   1.9272779E+05   -1.7431830E+00
   2.6074027E-04   1.9118631E+05   -1.7426075E+00
   2.6194439E-04   1.8965767E+05   -1.7420321E+00
   2.6315408E-04   1.8814175E+05   -1.7414567E+00
   2.6436935E-04   1.8663844E+05   -1.7408814E+00
   2.6559024E-04   1.8514764E+05   -1.7403062E+00
   2.6681676E-04   1.8366923E+05   -1.7397312E+00
   2.6804895E-04   1.8220310E+05   -1.7391562E+00
   2.6928683E-04   1.8074916E+05   -1.7385813E+00
   2.7053042E-04   1.7930730E+05   -1.7380066E+00
   2.7177976E-04   1.7787741E+05   -1.7374320E+00
   2.7303487E-04   1.7645938E+05   -1.7368575E+00
   2.7429577E-04   1.7505313E+05   -1.7362832E+00
   2.7556250E-04   1.7365854E+05   -1.7357090E+00
   2.7683507E-04   1.7227552E+05   -1.7351350E+00
   2.7811353E-04   1.7090397E+05   -1.7345611E+00
   2.7939788E-04   1.6954378E+05   -1.7339873E+00
   2.8068817E-04   1.6819486E+05   -1.7334138E+00
   2.8198442E-04   1.6685712E+05   -1.7328404E+00
   2.8328665E-04   1.6553045E+05   -1.7322672E+00
   2.8459490E-04   1.6421476E+05   -1.7316942E+00
   2.8590919E-04   1.6290997E+05   -1.7311214E+00
   2.8722955E-04   1.6161596E+05   -1.7305488E+00
   2.8855600E-04   1.6033266E+05   -1.7299764E+00
   2.8988859E-04   1.5905996E+05   -1.7294042E+00
   2.9122732E-04   1.5779779E+05   -1.7288322E+00
   2.9257224E-04   1.5654604E+05   -1.7282604E+00
   2.9392337E-04   1.5530463E+05   -1.7276889E+00
   2.9528074E-04   1.5407348E+05   -1.7271176E+00
   2.9664438E-04   1.5285248E+05   -1.7265465E+00
   2.9801431E-04   1.5164156E+05   -1.7259757E+00
   2.9939057E-04   1.5044063E+05   -1.7254052E+00
   3.0077319E-04   1.4924960E+05   -1.7248349E+00
   3.0216219E-04   1.4806839E+05   -1.7242648E+00
   3.0355761E-04   1.4689691E+05   -1.7236950E+00
   3.0495947E-04   1.4573508E+05   -1.7231256E+00
   3.0636780E-04   1.4458283E+05   -1.7225563E+00
   3.0778264E-04   1.4344005E+05   -1.7219874E+00
   3.0920401E-04   1.4230669E+05   -1.7214188E+00
   3.1063195E-04   1.4118265E+05   -1.7208505E+00
   3.1206648E-04   1.4006785E+05   -1.7202824E+00
   3.1350764E-04   1.3896222E+05   -1.7197147E+00
   3.1495545E-04   1.3786568E+05   -1.7191473E+00
   3.1640994E-04   1.3677815E+05   -1.7185802E+00
   3.1787116E-04   1.3569955E+05   -1.7180135E+00
   3.1933912E-04   1.3462981E+05   -1.7174471E+00
   3.2081386E-04   1.3356885E+05   -1.7168810E+00
   3.2229541E-04   1.3251660E+05   -1.7163152E+00
   3.2378381E-04   1.3147297E+05   -1.7157499E+00
   3.2527908E-04   1.3043791E+05   -1.7151848E+00
   3.2678125E-04   1.2941133E+05   -1.7146202E+00
   3.2829036E-04   1.2839317E+05   -1.7140559E+00
   3.2980644E-04   1.2738335E+05   -1.7134920E+00
   3.3132952E-04   1.2638180E+05   -1.7129284E+00
   3.3285963E-04   1.2538845E+05   -1.7123652E+00
   3.3439681E-04   1.2440322E+05   -1.7118025E+00
   3.3594109E-04   1.2342606E+05   -1.7112401E+00
   3.3749250E-04   1.2245690E+05   -1.7106781E+00
   3.3905108E-04   1.2149566E+05   -1.7101166E+00
   3.4061685E-04   1.2054227E+05   -1.7095554E+00
   3.4218986E-04   1.1959668E+05   -1.7089947E+00
   3.4377013E-04   1.1865880E+05   -1.7084344E+00
   3.4535769E-04   1.1772859E+05   -1.7078745E+00
   3.4695259E-04   1.1680597E+05   -1.7073150E+00
   3.4855485E-04   1.1589088E+05   -1.7067560E+00
   3.5016452E-04   1.1498326E+05   -1.7061974E+00
   3.5178161E-04   1.1408304E+05   -1.7056393E+00
   3.5340618E-04   1.1319015E+05   -1.7050816E+00
   3.5503824E-04   1.1230454E+05   -1.7045244E+00
   3.5667785E-04   1.1142615E+05   -1.7039677E+00
   3.5832502E-04   1.1055491E+05   -1.7034114E+00
   3.5997981E-04   1.0969077E+05   -1.7028557E+00
   3.6164223E-04   1.0883366E+05   -1.7023004E+00
   3.6331233E-04   1.0798352E+05   -1.7017455E+00
   3.6499015E-04   1.0714029E+05   -1.7011912E+00
   3.6667571E-04   1.0630393E+05   -1.7006374E+00
   3.6836906E-04   1.0547436E+05   -1.7000841E+00
   3.7007022E-04   1.0465153E+05   -1.6995312E+00
   3.7177925E-04   1.0383538E+05   -1.6989789E+00
   3.7349616E-04   1.0302586E+05   -1.6984272E+00
   3.7522101E-04   1.0222291E+05   -1.6978759E+00
   3.7695382E-04   1.0142648E+05   -1.6973252E+00
   3.7869463E-04   1.0063651E+05   -1.6967750E+00
   3.8044348E-04   9.9852939E+04   -1.6962253E+00
   3.8220041E-04   9.9075724E+04   -1.6956762E+00
   3.8396545E-04   9.8304807E+04   -1.6951276E+00
   3.8573864E-04   9.7540135E+04   -1.6945796E+00
   3.8752002E-04   9.6781655E+04   -1.6940321E+00
   3.8930963E-04   9.6029315E+04   -1.6934853E+00
   3.9110750E-04   9.5283064E+04   -1.6929389E+00
   3.9291368E-04   9.4542850E+04   -1.6923932E+00
   3.9472820E-04   9.3808622E+04   -1.6918480E+00
   3.9655109E-04   9.3080329E+04   -1.6913034E+00
   3.9838241E-04   9.2357922E+04   -1.6907594E+00
   4.0022218E-04   9.1641352E+04   -1.6902160E+00
   4.0207045E-04   9.0930569E+04   -1.6896732E+00
   4.0392725E-04   9.0225524E+04   -1.6891310E+00
   4.0579263E-04   8.9526170E+04   -1.6885894E+00
   4.0766662E-04   8.8832458E+04   -1.6880484E+00
   4.0954927E-04   8.8144341E+04   -1.6875081E+00
   4.1144061E-04   8.7461772E+04   -1.6869683E+00
   4.1334068E-04   8.6784704E+04   -1.6864292E+00
   4.1524953E-04   8.6113091E+04   -1.6858907E+00
   4.1716720E-04   8.5446888E+04   -1.6853528E+00
   4.1909372E-04   8.4786048E+04   -1.6848156E+00
   4.2102914E-04   8.4130528E+04   -1.6842790E+00
   4.2297350E-04   8.3480282E+04   -1.6837431E+00
   4.2492683E-04   8.2835266E+04   -1.6832078E+00
   4.2688919E-04   8.2195436E+04   -1.6826732E+00
   4.2886061E-04   8.1560750E+04   -1.6821393E+00
   4.3084113E-04   8.0931163E+04   -1.6816060E+00
   4.3283080E-04   8.0306634E+04   -1.6810734E+00
   4.3482966E-04   7.9687119E+04   -1.6805415E+00
   4.3683775E-04   7.9072577E+04   -1.6800102E+00
   4.3885511E-04   7.8462966E+04   -1.6794796E+00
   4.4088179E-04   7.7858246E+04   -1.6789497E+00
   4.4291783E-04   7.7258374E+04   -1.6784205E+00
   4.4496327E-04   7.6663311E+04   -1.6778920E+00
   4.4701816E-04   7.6073017E+04   -1.6773642E+00
   4.4908253E-04   7.5487451E+04   -1.6768372E+00
   4.5115644E-04   7.4906574E+04   -1.6763108E+00
   4.5323993E-04   7.4330347E+04   -1.6757851E+00
   4.5533304E-04   7.3758731E+04   -1.6752602E+00
   4.5743582E-04   7.3191689E+04   -1.6747359E+00
   4.5954830E-04   7.2629181E+04   -1.6742124E+00
   4.6167054E-04   7.2071169E+04   -1.6736897E+00
   4.6380259E-04   7.1517617E+04   -1.6731676E+00
   4.6594448E-04   7.0968488E+04   -1.6726463E+00
   4.6809626E-04   7.0423743E+04   -1.6721258E+00
   4.7025797E-04   6.9883347E+04   -1.6716060E+00
   4.7242967E-04   6.9347265E+04   -1.6710869E+00
   4.7461140E-04   6.8815458E+04   -1.6705686E+00
   4.7680321E-04   6.8287894E+04   -1.6700510E+00
   4.7900514E-04   6.7764535E+04   -1.6695342E+00
   4.8121723E-04   6.7245347E+04   -1.6690182E+00
   4.8343954E-04   6.6730295E+04   -1.6685030E+00
   4.8567212E-04   6.6219346E+04   -1.6679885E+00
   4.8791500E-04   6.5712465E+04   -1.6674748E+00
   4.9016825E-04   6.5209617E+04   -1.6669618E+00
   4.9243189E-04   6.4710771E+04   -1.6664497E+00
   4.9470600E-04   6.4215892E+04   -1.6659383E+00
   4.9699060E-04   6.3724948E+04   -1.6654278E+00
   4.9928575E-04   6.3237905E+04   -1.6649180E+00
   5.0159151E-04   6.2754732E+04   -1.6644090E+00
   5.0390791E-04   6.2275397E+04   -1.6639008E+00
   5.0623501E-04   6.1799868E+04   -1.6633935E+00
   5.0857286E-04   6.1328113E+04   -1.6628869E+00
   5.1092150E-04   6.0860101E+04   -1.6623812E+00
   5.1328099E-04   6.0395802E+04   -1.6618762E+00
   5.1565137E-04   5.9935184E+04   -1.6613721E+00
   5.1803270E-04   5.9478217E+04   -1.6608688E+00
   5.2042503E-04   5.9024871E+04   -1.6603664E+00
   5.2282841E-04   5.8575115E+04   -1.6598647E+00
   5.2524289E-04   5.8128921E+04   -1.6593639E+00
   5.2766851E-04   5.7686259E+04   -1.6588639E+00
   5.3010534E-04   5.7247100E+04   -1.6583648E+00
   5.3255342E-04   5.6811414E+04   -1.6578665E+00
   5.3501281E-04   5.6379173E+04   -1.6573691E+00
   5.3748356E-04   5.5950349E+04   -1.6568725E+00
   5.3996571E-04   5.5524914E+04   -1.6563767E+00
   5.4245933E-04   5.5102840E+04   -1.6558818E+00
   5.4496446E-04   5.4684098E+04   -1.6553878E+00
   5.4748117E-04   5.4268662E+04   -1.6548946E+00
   5.5000949E-04   5.3856505E+04   -1.6544023E+00
   5.5254949E-04   5.3447599E+04   -1.6539108E+00
   5.5510123E-04   5.3041917E+04   -1.6534202E+00
   5.5766474E-04   5.2639434E+04   -1.6529305E+00
   5.6024010E-04   5.2240122E+04   -1.6524417E+00
   5.6282734E-04   5.1843956E+04   -1.6519537E+00
   5.6542654E-04   5.1450910E+04   -1.6514666E+00
   5.6803774E-04   5.1060958E+04   -1.6509804E+00
   5.7066099E-04   5.0674076E+04   -1.6504951E+00
   5.7329637E-04   5.0290237E+04   -1.6500107E+00
   5.7594391E-04   4.9909416E+04   -1.6495272E+00
   5.7860368E-04   4.9531590E+04   -1.6490445E+00
   5.8127573E-04   4.9156733E+04   -1.6485628E+00
   5.8396012E-04   4.8784821E+04   -1.6480819E+00
   5.8665691E-04   4.8415831E+04   -1.6476020E+00
   5.8936616E-04   4.8049737E+04   -1.6471230E+00
   5.9208791E-04   4.7686517E+04   -1.6466448E+00
   5.9482223E-04   4.7326146E+04   -1.6461676E+00
   5.9756919E-04   4.6968602E+04   -1.6456913E+00
   6.0032882E-04   4.6613861E+04   -1.6452159E+00
   6.0310120E-04   4.6261901E+04   -1.6447414E+00
   6.0588639E-04   4.5912699E+04   -1.6442678E+00
   6.0868443E-04   4.5566232E+04   -1.6437952E+00
   6.1149540E-04   4.5222477E+04   -1.6433235E+00
   6.1431935E-04   4.4881414E+04   -1.6428527E+00
   6.1715634E-04   4.4543019E+04   -1.6423828E+00
   6.2000644E-04   4.4207272E+04   -1.6419139E+00
   6.2286969E-04   4.3874150E+04   -1.6414459E+00
