#        a       HoverH0(a)       dlogHdloga_of_a(a)
   1.0000000E-04   1.1483405E+06   -1.9005216E+00
   1.0046181E-04   1.1383298E+06   -1.9001539E+00
   1.0092575E-04   1.1284083E+06   -1.8997852E+00
   1.0139184E-04   1.1185752E+06   -1.8994155E+00
   1.0186008E-04   1.1088296E+06   -1.8990448E+00
   1.0233048E-04   1.0991708E+06   -1.8986730E+00
   1.0280305E-04   1.0895980E+06   -1.8983002E+00
   1.0327781E-04   1.0801105E+06   -1.8979265E+00
   1.0375475E-04   1.0707074E+06   -1.8975516E+00
   1.0423390E-04   1.0613880E+06   -1.8971758E+00
   1.0471527E-04   1.0521516E+06   -1.8967989E+00
   1.0519885E-04   1.0429973E+06   -1.8964211E+00
   1.0568467E-04   1.0339245E+06   -1.8960422E+00
   1.0617274E-04   1.0249324E+06   -1.8956622E+00
   1.0666305E-04   1.0160203E+06   -1.8952813E+00
   1.0715563E-04   1.0071875E+06   -1.8948993E+00
   1.0765049E-04   9.9843318E+05   -1.8945163E+00
   1.0814763E-04   9.8975673E+05   -1.8941323E+00
   1.0864707E-04   9.8115741E+05   -1.8937473E+00
   1.0914881E-04   9.7263454E+05   -1.8933613E+00
   1.0965287E-04   9.6418741E+05   -1.8929742E+00
   1.1015926E-04   9.5581535E+05   -1.8925861E+00
   1.1066799E-04   9.4751769E+05   -1.8921970E+00
   1.1117906E-04   9.3929374E+05   -1.8918068E+00
   1.1169250E-04   9.3114285E+05   -1.8914157E+00
   1.1220831E-04   9.2306436E+05   -1.8910235E+00
   1.1272650E-04   9.1505760E+05   -1.8906303E+00
   1.1324708E-04   9.0712195E+05   -1.8902361E+00
   1.1377007E-04   8.9925676E+05   -1.8898408E+00
   1.1429547E-04   8.9146138E+05   -1.8894446E+00
   1.1482330E-04   8.8373520E+05   -1.8890473E+00
   1.1535356E-04   8.7607758E+05   -1.8886490E+00
   1.1588628E-04   8.6848791E+05   -1.8882497E+00
   1.1642145E-04   8.6096558E+05   -1.8878494E+00
   1.1695910E-04   8.5350998E+05   -1.8874480E+00
   1.1749923E-04   8.4612051E+05   -1.8870456E+00
   1.1804185E-04   8.3879657E+05   -1.8866422E+00
   1.1858698E-04   8.3153757E+05   -1.8862378E+00
   1.1913463E-04   8.2434293E+05   -1.8858324E+00
   1.1968481E-04   8.1721207E+05   -1.8854260E+00
   1.2023752E-04   8.1014442E+05   -1.8850185E+00
   1.2079279E-04   8.0313940E+05   -1.8846100E+00
   1.2135063E-04   7.9619645E+05   -1.8842005E+00
   1.2191104E-04   7.8931501E+05   -1.8837900E+00
   1.2247403E-04   7.8249452E+05   -1.8833785E+00
   1.2303963E-04   7.7573445E+05   -1.8829660E+00
   1.2360784E-04   7.6903424E+05   -1.8825524E+00
   1.2417868E-04   7.6239335E+05   -1.8821379E+00
   1.2475215E-04   7.5581126E+05   -1.8817223E+00
   1.2532826E-04   7.4928743E+05   -1.8813058E+00
   1.2590704E-04   7.4282134E+05   -1.8808882E+00
   1.2648850E-04   7.3641246E+05   -1.8804696E+00
   1.2707263E-04   7.3006029E+05   -1.8800500E+00
   1.2765947E-04   7.2376432E+05   -1.8796294E+00
   1.2824901E-04   7.1752403E+05   -1.8792078E+00
   1.2884128E-04   7.1133893E+05   -1.8787851E+00
   1.2943628E-04   7.0520853E+05   -1.8783615E+00
   1.3003403E-04   6.9913232E+05   -1.8779369E+00
   1.3063454E-04   6.9310982E+05   -1.8775113E+00
   1.3123783E-04   6.8714055E+05   -1.8770846E+00
   1.3184390E-04   6.8122403E+05   -1.8766570E+00
   1.3245277E-04   6.7535978E+05   -1.8762284E+00
   1.3306445E-04   6.6954734E+05   -1.8757987E+00
   1.3367895E-04   6.6378624E+05   -1.8753681E+00
   1.3429630E-04   6.5807602E+05   -1.8749365E+00
   1.3491649E-04   6.5241622E+05   -1.8745039E+00
   1.3553955E-04   6.4680638E+05   -1.8740703E+00
   1.3616548E-04   6.4124607E+05   -1.8736356E+00
   1.3679431E-04   6.3573483E+05   -1.8732000E+00
   1.3742604E-04   6.3027223E+05   -1.8727635E+00
   1.3806069E-04   6.2485782E+05   -1.8723259E+00
   1.3869827E-04   6.1949117E+05   -1.8718873E+00
   1.3933879E-04   6.1417186E+05   -1.8714478E+00
   1.3998227E-04   6.0889946E+05   -1.8710072E+00
   1.4062872E-04   6.0367354E+05   -1.8705657E+00
   1.4127816E-04   5.9849370E+05   -1.8701232E+00
   1.4193060E-04   5.9335951E+05   -1.8696797E+00
   1.4258605E-04   5.8827057E+05   -1.8692353E+00
   1.4324453E-04   5.8322647E+05   -1.8687898E+00
   1.4390605E-04   5.7822681E+05   -1.8683434E+00
   1.4457062E-04   5.7327119E+05   -1.8678960E+00
   1.4523826E-04   5.6835921E+05   -1.8674476E+00
   1.4590899E-04   5.6349049E+05   -1.8669983E+00
   1.4658281E-04   5.5866463E+05   -1.8665480E+00
   1.4725974E-04   5.5388125E+05   -1.8660967E+00
   1.4793981E-04   5.4913997E+05   -1.8656445E+00
   1.4862301E-04   5.4444041E+05   -1.8651913E+00
   1.4930936E-04   5.3978220E+05   -1.8647371E+00
   1.4999889E-04   5.3516496E+05   -1.8642820E+00
   1.5069160E-04   5.3058834E+05   -1.8638259E+00
   1.5138751E-04   5.2605196E+05   -1.8633688E+00
   1.5208663E-04   5.2155546E+05   -1.8629108E+00
   1.5278899E-04   5.1709849E+05   -1.8624519E+00
   1.5349458E-04   5.1268069E+05   -1.8619919E+00
   1.5420343E-04   5.0830172E+05   -1.8615311E+00
   1.5491556E-04   5.0396122E+05   -1.8610693E+00
   1.5563098E-04   4.9965884E+05   -1.8606065E+00
   1.5634970E-04   4.9539426E+05   -1.8601428E+00
   1.5707174E-04   4.9116712E+05   -1.8596782E+00
   1.5779711E-04   4.8697709E+05   -1.8592126E+00
   1.5852584E-04   4.8282385E+05   -1.8587460E+00
   1.5925792E-04   4.7870706E+05   -1.8582786E+00
   1.5999339E-04   4.7462639E+05   -1.8578102E+00
   1.6073226E-04   4.7058152E+05   -1.8573409E+00
   1.6147454E-04   4.6657214E+05   -1.8568706E+00
   1.6222024E-04   4.6259792E+05   -1.8563994E+00
   1.6296939E-04   4.5865855E+05   -1.8559273E+00
   1.6372200E-04   4.5475371E+05   -1.8554543E+00
   1.6447809E-04   4.5088311E+05   -1.8549803E+00
   1.6523767E-04   4.4704642E+05   -1.8545055E+00
   1.6600075E-04   4.4324335E+05   -1.8540297E+00
   1.6676736E-04   4.3947360E+05   -1.8535530E+00
   1.6753751E-04   4.3573687E+05   -1.8530754E+00
   1.6831122E-04   4.3203287E+05   -1.8525968E+00
   1.6908849E-04   4.2836129E+05   -1.8521174E+00
   1.6986936E-04   4.2472186E+05   -1.8516371E+00
   1.7065384E-04   4.2111428E+05   -1.8511559E+00
   1.7144193E-04   4.1753826E+05   -1.8506737E+00
   1.7223367E-04   4.1399354E+05   -1.8501907E+00
   1.7302906E-04   4.1047983E+05   -1.8497068E+00
   1.7382813E-04   4.0699684E+05   -1.8492220E+00
   1.7463089E-04   4.0354431E+05   -1.8487363E+00
   1.7543735E-04   4.0012197E+05   -1.8482497E+00
   1.7624754E-04   3.9672954E+05   -1.8477623E+00
   1.7706147E-04   3.9336675E+05   -1.8472739E+00
   1.7787916E-04   3.9003335E+05   -1.8467847E+00
   1.7870062E-04   3.8672907E+05   -1.8462946E+00
   1.7952588E-04   3.8345365E+05   -1.8458036E+00
   1.8035495E-04   3.8020683E+05   -1.8453118E+00
   1.8118785E-04   3.7698835E+05   -1.8448191E+00
   1.8202459E-04   3.7379797E+05   -1.8443256E+00
   1.8286520E-04   3.7063544E+05   -1.8438311E+00
   1.8370969E-04   3.6750049E+05   -1.8433359E+00
   1.8455808E-04   3.6439290E+05   -1.8428397E+00
   1.8541039E-04   3.6131241E+05   -1.8423428E+00
   1.8626663E-04   3.5825879E+05   -1.8418449E+00
   1.8712683E-04   3.5523179E+05   -1.8413463E+00
   1.8799100E-04   3.5223117E+05   -1.8408468E+00
   1.8885917E-04   3.4925670E+05   -1.8403464E+00
   1.8973134E-04   3.4630815E+05   -1.8398453E+00
   1.9060754E-04   3.4338529E+05   -1.8393432E+00
   1.9148778E-04   3.4048788E+05   -1.8388404E+00
   1.9237209E-04   3.3761571E+05   -1.8383367E+00
   1.9326049E-04   3.3476854E+05   -1.8378323E+00
   1.9415299E-04   3.3194615E+05   -1.8373270E+00
   1.9504960E-04   3.2914833E+05   -1.8368209E+00
   1.9595036E-04   3.2637485E+05   -1.8363139E+00
   1.9685528E-04   3.2362549E+05   -1.8358062E+00
   1.9776438E-04   3.2090005E+05   -1.8352977E+00
   1.9867768E-04   3.1819831E+05   -1.8347883E+00
   1.9959519E-04   3.1552005E+05   -1.8342782E+00
   2.0051694E-04   3.1286507E+05   -1.8337673E+00
   2.0144295E-04   3.1023316E+05   -1.8332556E+00
   2.0237324E-04   3.0762412E+05   -1.8327430E+00
   2.0330782E-04   3.0503775E+05   -1.8322298E+00
   2.0424671E-04   3.0247383E+05   -1.8317157E+00
   2.0518995E-04   2.9993217E+05   -1.8312009E+00
   2.0613754E-04   2.9741258E+05   -1.8306853E+00
   2.0708950E-04   2.9491486E+05   -1.8301689E+00
   2.0804586E-04   2.9243881E+05   -1.8296517E+00
   2.0900664E-04   2.8998423E+05   -1.8291338E+00
   2.0997185E-04   2.8755095E+05   -1.8286152E+00
   2.1094152E-04   2.8513877E+05   -1.8280958E+00
   2.1191567E-04   2.8274750E+05   -1.8275756E+00
   2.1289432E-04   2.8037695E+05   -1.8270547E+00
   2.1387749E-04   2.7802695E+05   -1.8265331E+00
   2.1486520E-04   2.7569731E+05   -1.8260107E+00
   2.1585747E-04   2.7338784E+05   -1.8254876E+00
   2.1685432E-04   2.7109838E+05   -1.8249637E+00
   2.1785578E-04   2.6882874E+05   -1.8244392E+00
   2.1886186E-04   2.6657874E+05   -1.8239139E+00
   2.1987259E-04   2.6434822E+05   -1.8233879E+00
   2.2088798E-04   2.6213699E+05   -1.8228611E+00
   2.2190807E-04   2.5994490E+05   -1.8223337E+00
   2.2293286E-04   2.5777176E+05   -1.8218056E+00
   2.2396239E-04   2.5561741E+05   -1.8212768E+00
   2.2499667E-04   2.5348168E+05   -1.8207472E+00
   2.2603573E-04   2.5136442E+05   -1.8202170E+00
   2.2707958E-04   2.4926544E+05   -1.8196861E+00
   2.2812826E-04   2.4718460E+05   -1.8191545E+00
   2.2918178E-04   2.4512173E+05   -1.8186223E+00
   2.3024017E-04   2.4307667E+05   -1.8180893E+00
   2.3130344E-04   2.4104927E+05   -1.8175557E+00
   2.3237162E-04   2.3903936E+05   -1.8170215E+00
   2.3344474E-04   2.3704680E+05   -1.8164865E+00
   2.3452281E-04   2.3507143E+05   -1.8159509E+00
   2.3560586E-04   2.3311309E+05   -1.8154147E+00
   2.3669392E-04   2.3117164E+05   -1.8148778E+00
   2.3778699E-04   2.2924693E+05   -1.8143403E+00
   2.3888512E-04   2.2733880E+05   -1.8138021E+00
   2.3998831E-04   2.2544711E+05   -1.8132633E+00
   2.4109661E-04   2.2357173E+05   -1.8127239E+00
   2.4221001E-04   2.2171249E+05   -1.8121838E+00
   2.4332857E-04   2.1986926E+05   -1.8116431E+00
   2.4445228E-04   2.1804190E+05   -1.8111018E+00
   2.4558119E-04   2.1623027E+05   -1.8105599E+00
   2.4671531E-04   2.1443422E+05   -1.8100174E+00
   2.4785467E-04   2.1265363E+05   -1.8094743E+00
   2.4899928E-04   2.1088835E+05   -1.8089306E+00
   2.5014919E-04   2.0913824E+05   -1.8083863E+00
   2.5130440E-04   2.0740318E+05   -1.8078414E+00
   2.5246495E-04   2.0568304E+05   -1.8072960E+00
   2.5363086E-04   2.0397767E+05   -1.8067499E+00
   2.5480216E-04   2.0228695E+05   -1.8062033E+00
   2.5597886E-04   2.0061075E+05   -1.8056561E+00
   2.5716100E-04   1.9894894E+05   -1.8051084E+00
   2.5834859E-04   1.9730139E+05   -1.8045601E+00
   2.5954168E-04   1.9566798E+05   -1.8040113E+00
   2.6074027E-04   1.9404859E+05   -1.8034619E+00
   2.6194439E-04   1.9244309E+05   -1.8029119E+00
   2.6315408E-04   1.9085135E+05   -1.8023614E+00
   2.6436935E-04   1.8927326E+05   -1.8018104E+00
   2.6559024E-04   1.8770870E+05   -1.8012589E+00
   2.6681676E-04   1.8615754E+05   -1.8007068E+00
   2.6804895E-04   1.8461967E+05   -1.8001543E+00
   2.6928683E-04   1.8309497E+05   -1.7996012E+00
   2.7053042E-04   1.8158332E+05   -1.7990476E+00
   2.7177976E-04   1.8008462E+05   -1.7984935E+00
   2.7303487E-04   1.7859874E+05   -1.7979389E+00
   2.7429577E-04   1.7712557E+05   -1.7973838E+00
   2.7556250E-04   1.7566500E+05   -1.7968282E+00
   2.7683507E-04   1.7421693E+05   -1.7962722E+00
   2.7811353E-04   1.7278123E+05   -1.7957157E+00
   2.7939788E-04   1.7135781E+05   -1.7951587E+00
   2.8068817E-04   1.6994655E+05   -1.7946012E+00
   2.8198442E-04   1.6854734E+05   -1.7940433E+00
   2.8328665E-04   1.6716008E+05   -1.7934849E+00
   2.8459490E-04   1.6578467E+05   -1.7929261E+00
   2.8590919E-04   1.6442100E+05   -1.7923669E+00
   2.8722955E-04   1.6306897E+05   -1.7918072E+00
   2.8855600E-04   1.6172847E+05   -1.7912470E+00
   2.8988859E-04   1.6039940E+05   -1.7906865E+00
   2.9122732E-04   1.5908167E+05   -1.7901255E+00
   2.9257224E-04   1.5777517E+05   -1.7895641E+00
   2.9392337E-04   1.5647981E+05   -1.7890023E+00
   2.9528074E-04   1.5519548E+05   -1.7884401E+00
   2.9664438E-04   1.5392210E+05   -1.7878775E+00
   2.9801431E-04   1.5265955E+05   -1.7873145E+00
   2.9939057E-04   1.5140776E+05   -1.7867511E+00
   3.0077319E-04   1.5016662E+05   -1.7861873E+00
   3.0216219E-04   1.4893604E+05   -1.7856232E+00
   3.0355761E-04   1.4771593E+05   -1.7850587E+00
   3.0495947E-04   1.4650620E+05   -1.7844938E+00
   3.0636780E-04   1.4530675E+05   -1.7839285E+00
   3.0778264E-04   1.4411750E+05   -1.7833629E+00
   3.0920401E-04   1.4293836E+05   -1.7827970E+00
   3.1063195E-04   1.4176923E+05   -1.7822307E+00
   3.1206648E-04   1.4061003E+05   -1.7816641E+00
   3.1350764E-04   1.3946067E+05   -1.7810971E+00
   3.1495545E-04   1.3832107E+05   -1.7805298E+00
   3.1640994E-04   1.3719114E+05   -1.7799622E+00
   3.1787116E-04   1.3607080E+05   -1.7793943E+00
   3.1933912E-04   1.3495996E+05   -1.7788261E+00
   3.2081386E-04   1.3385853E+05   -1.7782576E+00
   3.2229541E-04   1.3276645E+05   -1.7776887E+00
   3.2378381E-04   1.3168362E+05   -1.7771196E+00
   3.2527908E-04   1.3060996E+05   -1.7765502E+00
   3.2678125E-04   1.2954540E+05   -1.7759805E+00
   3.2829036E-04   1.2848985E+05   -1.7754106E+00
   3.2980644E-04   1.2744324E+05   -1.7748403E+00
   3.3132952E-04   1.2640548E+05   -1.7742699E+00
   3.3285963E-04   1.2537651E+05   -1.7736991E+00
   3.3439681E-04   1.2435624E+05   -1.7731281E+00
   3.3594109E-04   1.2334459E+05   -1.7725569E+00
   3.3749250E-04   1.2234150E+05   -1.7719854E+00
   3.3905108E-04   1.2134688E+05   -1.7714137E+00
   3.4061685E-04   1.2036067E+05   -1.7708418E+00
   3.4218986E-04   1.1938279E+05   -1.7702696E+00
   3.4377013E-04   1.1841316E+05   -1.7696973E+00
   3.4535769E-04   1.1745172E+05   -1.7691247E+00
   3.4695259E-04   1.1649839E+05   -1.7685519E+00
   3.4855485E-04   1.1555311E+05   -1.7679789E+00
   3.5016452E-04   1.1461580E+05   -1.7674058E+00
   3.5178161E-04   1.1368639E+05   -1.7668324E+00
   3.5340618E-04   1.1276482E+05   -1.7662589E+00
   3.5503824E-04   1.1185101E+05   -1.7656852E+00
   3.5667785E-04   1.1094490E+05   -1.7651113E+00
   3.5832502E-04   1.1004642E+05   -1.7645373E+00
   3.5997981E-04   1.0915551E+05   -1.7639631E+00
   3.6164223E-04   1.0827210E+05   -1.7633888E+00
   3.6331233E-04   1.0739612E+05   -1.7628143E+00
   3.6499015E-04   1.0652751E+05   -1.7622397E+00
   3.6667571E-04   1.0566620E+05   -1.7616649E+00
   3.6836906E-04   1.0481214E+05   -1.7610901E+00
   3.7007022E-04   1.0396525E+05   -1.7605151E+00
   3.7177925E-04   1.0312548E+05   -1.7599400E+00
   3.7349616E-04   1.0229277E+05   -1.7593648E+00
   3.7522101E-04   1.0146705E+05   -1.7587895E+00
   3.7695382E-04   1.0064826E+05   -1.7582141E+00
   3.7869463E-04   9.9836339E+04   -1.7576386E+00
   3.8044348E-04   9.9031233E+04   -1.7570630E+00
   3.8220041E-04   9.8232881E+04   -1.7564874E+00
   3.8396545E-04   9.7441223E+04   -1.7559117E+00
   3.8573864E-04   9.6656201E+04   -1.7553359E+00
   3.8752002E-04   9.5877758E+04   -1.7547600E+00
   3.8930963E-04   9.5105836E+04   -1.7541842E+00
   3.9110750E-04   9.4340380E+04   -1.7536082E+00
   3.9291368E-04   9.3581333E+04   -1.7530322E+00
   3.9472820E-04   9.2828639E+04   -1.7524562E+00
   3.9655109E-04   9.2082244E+04   -1.7518802E+00
   3.9838241E-04   9.1342093E+04   -1.7513042E+00
   4.0022218E-04   9.0608131E+04   -1.7507281E+00
   4.0207045E-04   8.9880306E+04   -1.7501520E+00
   4.0392725E-04   8.9158564E+04   -1.7495759E+00
   4.0579263E-04   8.8442852E+04   -1.7489999E+00
   4.0766662E-04   8.7733118E+04   -1.7484238E+00
   4.0954927E-04   8.7029311E+04   -1.7478477E+00
   4.1144061E-04   8.6331379E+04   -1.7472717E+00
   4.1334068E-04   8.5639271E+04   -1.7466957E+00
   4.1524953E-04   8.4952937E+04   -1.7461197E+00
   4.1716720E-04   8.4272328E+04   -1.7455438E+00
   4.1909372E-04   8.3597392E+04   -1.7449679E+00
   4.2102914E-04   8.2928083E+04   -1.7443921E+00
   4.2297350E-04   8.2264350E+04   -1.7438163E+00
   4.2492683E-04   8.1606146E+04   -1.7432406E+00
   4.2688919E-04   8.0953424E+04   -1.7426650E+00
   4.2886061E-04   8.0306135E+04   -1.7420895E+00
   4.3084113E-04   7.9664233E+04   -1.7415140E+00
   4.3283080E-04   7.9027671E+04   -1.7409386E+00
   4.3482966E-04   7.8396404E+04   -1.7403633E+00
   4.3683775E-04   7.7770385E+04   -1.7397881E+00
   4.3885511E-04   7.7149569E+04   -1.7392130E+00
   4.4088179E-04   7.6533913E+04   -1.7386381E+00
   4.4291783E-04   7.5923370E+04   -1.7380632E+00
   4.4496327E-04   7.5317897E+04   -1.7374885E+00
   4.4701816E-04   7.4717450E+04   -1.7369139E+00
   4.4908253E-04   7.4121987E+04   -1.7363394E+00
   4.5115644E-04   7.3531464E+04   -1.7357651E+00
   4.5323993E-04   7.2945838E+04   -1.7351910E+00
   4.5533304E-04   7.2365068E+04   -1.7346170E+00
   4.5743582E-04   7.1789112E+04   -1.7340431E+00
   4.5954830E-04   7.1217928E+04   -1.7334694E+00
   4.6167054E-04   7.0651475E+04   -1.7328959E+00
   4.6380259E-04   7.0089713E+04   -1.7323226E+00
   4.6594448E-04   6.9532602E+04   -1.7317495E+00
   4.6809626E-04   6.8980100E+04   -1.7311765E+00
   4.7025797E-04   6.8432169E+04   -1.7306038E+00
   4.7242967E-04   6.7888770E+04   -1.7300312E+00
   4.7461140E-04   6.7349864E+04   -1.7294589E+00
   4.7680321E-04   6.6815411E+04   -1.7288868E+00
   4.7900514E-04   6.6285374E+04   -1.7283149E+00
   4.8121723E-04   6.5759716E+04   -1.7277432E+00
   4.8343954E-04   6.5238397E+04   -1.7271717E+00
   4.8567212E-04   6.4721382E+04   -1.7266005E+00
   4.8791500E-04   6.4208634E+04   -1.7260296E+00
   4.9016825E-04   6.3700115E+04   -1.7254589E+00
   4.9243189E-04   6.3195789E+04   -1.7248884E+00
   4.9470600E-04   6.2695621E+04   -1.7243182E+00
   4.9699060E-04   6.2199575E+04   -1.7237483E+00
   4.9928575E-04   6.1707616E+04   -1.7231787E+00
   5.0159151E-04   6.1219708E+04   -1.7226093E+00
   5.0390791E-04   6.0735817E+04   -1.7220402E+00
   5.0623501E-04   6.0255909E+04   -1.7214715E+00
   5.0857286E-04   5.9779950E+04   -1.7209030E+00
   5.1092150E-04   5.9307906E+04   -1.7203348E+00
   5.1328099E-04   5.8839743E+04   -1.7197669E+00
   5.1565137E-04   5.8375428E+04   -1.7191994E+00
   5.1803270E-04   5.7914929E+04   -1.7186321E+00
   5.2042503E-04   5.7458213E+04   -1.7180652E+00
   5.2282841E-04   5.7005247E+04   -1.7174986E+00
   5.2524289E-04   5.6556000E+04   -1.7169324E+00
   5.2766851E-04   5.6110439E+04   -1.7163665E+00
   5.3010534E-04   5.5668534E+04   -1.7158009E+00
   5.3255342E-04   5.5230253E+04   -1.7152357E+00
   5.3501281E-04   5.4795565E+04   -1.7146709E+00
   5.3748356E-04   5.4364439E+04   -1.7141064E+00
   5.3996571E-04   5.3936846E+04   -1.7135423E+00
   5.4245933E-04   5.3512756E+04   -1.7129786E+00
   5.4496446E-04   5.3092137E+04   -1.7124153E+00
   5.4748117E-04   5.2674962E+04   -1.7118523E+00
   5.5000949E-04   5.2261200E+04   -1.7112898E+00
   5.5254949E-04   5.1850822E+04   -1.7107276E+00
   5.5510123E-04   5.1443800E+04   -1.7101659E+00
   5.5766474E-04   5.1040105E+04   -1.7096046E+00
   5.6024010E-04   5.0639709E+04   -1.7090436E+00
   5.6282734E-04   5.0242584E+04   -1.7084831E+00
   5.6542654E-04   4.9848701E+04   -1.7079231E+00
   5.6803774E-04   4.9458035E+04   -1.7073634E+00
   5.7066099E-04   4.9070556E+04   -1.7068042E+00
   5.7329637E-04   4.8686238E+04   -1.7062455E+00
   5.7594391E-04   4.8305055E+04   -1.7056872E+00
   5.7860368E-04   4.7926980E+04   -1.7051293E+00
   5.8127573E-04   4.7551985E+04   -1.7045719E+00
   5.8396012E-04   4.7180046E+04   -1.7040150E+00
   5.8665691E-04   4.6811136E+04   -1.7034585E+00
   5.8936616E-04   4.6445230E+04   -1.7029025E+00
   5.9208791E-04   4.6082302E+04   -1.7023470E+00
   5.9482223E-04   4.5722327E+04   -1.7017920E+00
   5.9756919E-04   4.5365280E+04   -1.7012375E+00
   6.0032882E-04   4.5011136E+04   -1.7006835E+00
   6.0310120E-04   4.4659870E+04   -1.7001299E+00
   6.0588639E-04   4.4311459E+04   -1.6995769E+00
   6.0868443E-04   4.3965877E+04   -1.6990244E+00
   6.1149540E-04   4.3623102E+04   -1.6984724E+00
   6.1431935E-04   4.3283110E+04   -1.6979209E+00
   6.1715634E-04   4.2945876E+04   -1.6973700E+00
   6.2000644E-04   4.2611378E+04   -1.6968196E+00
   6.2286969E-04   4.2279593E+04   -1.6962697E+00
