#        a       HoverH0(a)       dlogHdloga_of_a(a)
   1.0000000E-04   1.1915059E+06   -1.8626155E+00
   1.0046181E-04   1.1813254E+06   -1.8621560E+00
   1.0092575E-04   1.1712344E+06   -1.8616955E+00
   1.0139184E-04   1.1612321E+06   -1.8612340E+00
   1.0186008E-04   1.1513177E+06   -1.8607716E+00
   1.0233048E-04   1.1414903E+06   -1.8603083E+00
   1.0280305E-04   1.1317493E+06   -1.8598440E+00
   1.0327781E-04   1.1220937E+06   -1.8593787E+00
   1.0375475E-04   1.1125230E+06   -1.8589126E+00
   1.0423390E-04   1.1030362E+06   -1.8584455E+00
   1.0471527E-04   1.0936327E+06   -1.8579774E+00
   1.0519885E-04   1.0843117E+06   -1.8575084E+00
   1.0568467E-04   1.0750725E+06   -1.8570385E+00
   1.0617274E-04   1.0659143E+06   -1.8565677E+00
   1.0666305E-04   1.0568364E+06   -1.8560959E+00
   1.0715563E-04   1.0478381E+06   -1.8556233E+00
   1.0765049E-04   1.0389187E+06   -1.8551497E+00
   1.0814763E-04   1.0300774E+06   -1.8546751E+00
   1.0864707E-04   1.0213137E+06   -1.8541997E+00
   1.0914881E-04   1.0126267E+06   -1.8537233E+00
   1.0965287E-04   1.0040158E+06   -1.8532461E+00
   1.1015926E-04   9.9548029E+05   -1.8527679E+00
   1.1066799E-04   9.8701956E+05   -1.8522888E+00
   1.1117906E-04   9.7863289E+05   -1.8518088E+00
   1.1169250E-04   9.7031963E+05   -1.8513279E+00
   1.1220831E-04   9.6207912E+05   -1.8508462E+00
   1.1272650E-04   9.5391072E+05   -1.8503635E+00
   1.1324708E-04   9.4581377E+05   -1.8498799E+00
   1.1377007E-04   9.3778765E+05   -1.8493954E+00
   1.1429547E-04   9.2983171E+05   -1.8489101E+00
   1.1482330E-04   9.2194533E+05   -1.8484238E+00
   1.1535356E-04   9.1412789E+05   -1.8479367E+00
   1.1588628E-04   9.0637877E+05   -1.8474487E+00
   1.1642145E-04   8.9869737E+05   -1.8469598E+00
   1.1695910E-04   8.9108307E+05   -1.8464701E+00
   1.1749923E-04   8.8353528E+05   -1.8459794E+00
   1.1804185E-04   8.7605340E+05   -1.8454879E+00
   1.1858698E-04   8.6863685E+05   -1.8449956E+00
   1.1913463E-04   8.6128505E+05   -1.8445023E+00
   1.1968481E-04   8.5399740E+05   -1.8440083E+00
   1.2023752E-04   8.4677335E+05   -1.8435133E+00
   1.2079279E-04   8.3961233E+05   -1.8430175E+00
   1.2135063E-04   8.3251377E+05   -1.8425209E+00
   1.2191104E-04   8.2547712E+05   -1.8420234E+00
   1.2247403E-04   8.1850182E+05   -1.8415250E+00
   1.2303963E-04   8.1158733E+05   -1.8410259E+00
   1.2360784E-04   8.0473310E+05   -1.8405258E+00
   1.2417868E-04   7.9793859E+05   -1.8400250E+00
   1.2475215E-04   7.9120329E+05   -1.8395233E+00
   1.2532826E-04   7.8452664E+05   -1.8390208E+00
   1.2590704E-04   7.7790815E+05   -1.8385174E+00
   1.2648850E-04   7.7134727E+05   -1.8380133E+00
   1.2707263E-04   7.6484351E+05   -1.8375083E+00
   1.2765947E-04   7.5839636E+05   -1.8370025E+00
   1.2824901E-04   7.5200530E+05   -1.8364959E+00
   1.2884128E-04   7.4566985E+05   -1.8359885E+00
   1.2943628E-04   7.3938950E+05   -1.8354803E+00
   1.3003403E-04   7.3316376E+05   -1.8349712E+00
   1.3063454E-04   7.2699215E+05   -1.8344614E+00
   1.3123783E-04   7.2087419E+05   -1.8339508E+00
   1.3184390E-04   7.1480939E+05   -1.8334394E+00
   1.3245277E-04   7.0879729E+05   -1.8329272E+00
   1.3306445E-04   7.0283741E+05   -1.8324142E+00
   1.3367895E-04   6.9692930E+05   -1.8319005E+00
   1.3429630E-04   6.9107249E+05   -1.8313859E+00
   1.3491649E-04   6.8526652E+05   -1.8308706E+00
   1.3553955E-04   6.7951095E+05   -1.8303546E+00
   1.3616548E-04   6.7380532E+05   -1.8298377E+00
   1.3679431E-04   6.6814919E+05   -1.8293201E+00
   1.3742604E-04   6.6254212E+05   -1.8288018E+00
   1.3806069E-04   6.5698368E+05   -1.8282827E+00
   1.3869827E-04   6.5147343E+05   -1.8277628E+00
   1.3933879E-04   6.4601094E+05   -1.8272422E+00
   1.3998227E-04   6.4059580E+05   -1.8267209E+00
   1.4062872E-04   6.3522757E+05   -1.8261988E+00
   1.4127816E-04   6.2990584E+05   -1.8256759E+00
   1.4193060E-04   6.2463020E+05   -1.8251524E+00
   1.4258605E-04   6.1940024E+05   -1.8246281E+00
   1.4324453E-04   6.1421556E+05   -1.8241031E+00
   1.4390605E-04   6.0907575E+05   -1.8235774E+00
   1.4457062E-04   6.0398042E+05   -1.8230510E+00
   1.4523826E-04   5.9892916E+05   -1.8225238E+00
   1.4590899E-04   5.9392160E+05   -1.8219960E+00
   1.4658281E-04   5.8895733E+05   -1.8214675E+00
   1.4725974E-04   5.8403598E+05   -1.8209382E+00
   1.4793981E-04   5.7915717E+05   -1.8204083E+00
   1.4862301E-04   5.7432051E+05   -1.8198777E+00
   1.4930936E-04   5.6952564E+05   -1.8193464E+00
   1.4999889E-04   5.6477219E+05   -1.8188144E+00
   1.5069160E-04   5.6005978E+05   -1.8182817E+00
   1.5138751E-04   5.5538806E+05   -1.8177484E+00
   1.5208663E-04   5.5075666E+05   -1.8172144E+00
   1.5278899E-04   5.4616522E+05   -1.8166797E+00
   1.5349458E-04   5.4161340E+05   -1.8161444E+00
   1.5420343E-04   5.3710084E+05   -1.8156084E+00
   1.5491556E-04   5.3262719E+05   -1.8150718E+00
   1.5563098E-04   5.2819212E+05   -1.8145346E+00
   1.5634970E-04   5.2379527E+05   -1.8139966E+00
   1.5707174E-04   5.1943630E+05   -1.8134581E+00
   1.5779711E-04   5.1511490E+05   -1.8129189E+00
   1.5852584E-04   5.1083071E+05   -1.8123791E+00
   1.5925792E-04   5.0658341E+05   -1.8118387E+00
   1.5999339E-04   5.0237268E+05   -1.8112977E+00
   1.6073226E-04   4.9819820E+05   -1.8107561E+00
   1.6147454E-04   4.9405963E+05   -1.8102138E+00
   1.6222024E-04   4.8995667E+05   -1.8096710E+00
   1.6296939E-04   4.8588900E+05   -1.8091275E+00
   1.6372200E-04   4.8185630E+05   -1.8085835E+00
   1.6447809E-04   4.7785828E+05   -1.8080388E+00
   1.6523767E-04   4.7389461E+05   -1.8074936E+00
   1.6600075E-04   4.6996501E+05   -1.8069478E+00
   1.6676736E-04   4.6606916E+05   -1.8064015E+00
   1.6753751E-04   4.6220677E+05   -1.8058545E+00
   1.6831122E-04   4.5837755E+05   -1.8053070E+00
   1.6908849E-04   4.5458119E+05   -1.8047590E+00
   1.6986936E-04   4.5081742E+05   -1.8042104E+00
   1.7065384E-04   4.4708594E+05   -1.8036612E+00
   1.7144193E-04   4.4338647E+05   -1.8031115E+00
   1.7223367E-04   4.3971872E+05   -1.8025613E+00
   1.7302906E-04   4.3608242E+05   -1.8020105E+00
   1.7382813E-04   4.3247729E+05   -1.8014592E+00
   1.7463089E-04   4.2890306E+05   -1.8009073E+00
   1.7543735E-04   4.2535944E+05   -1.8003550E+00
   1.7624754E-04   4.2184618E+05   -1.7998021E+00
   1.7706147E-04   4.1836300E+05   -1.7992488E+00
   1.7787916E-04   4.1490964E+05   -1.7986949E+00
   1.7870062E-04   4.1148584E+05   -1.7981405E+00
   1.7952588E-04   4.0809133E+05   -1.7975857E+00
   1.8035495E-04   4.0472586E+05   -1.7970303E+00
   1.8118785E-04   4.0138917E+05   -1.7964745E+00
   1.8202459E-04   3.9808101E+05   -1.7959182E+00
   1.8286520E-04   3.9480112E+05   -1.7953614E+00
   1.8370969E-04   3.9154927E+05   -1.7948042E+00
   1.8455808E-04   3.8832520E+05   -1.7942465E+00
   1.8541039E-04   3.8512866E+05   -1.7936883E+00
   1.8626663E-04   3.8195943E+05   -1.7931297E+00
   1.8712683E-04   3.7881724E+05   -1.7925707E+00
   1.8799100E-04   3.7570188E+05   -1.7920112E+00
   1.8885917E-04   3.7261309E+05   -1.7914513E+00
   1.8973134E-04   3.6955065E+05   -1.7908909E+00
   1.9060754E-04   3.6651433E+05   -1.7903301E+00
   1.9148778E-04   3.6350390E+05   -1.7897690E+00
   1.9237209E-04   3.6051912E+05   -1.7892074E+00
   1.9326049E-04   3.5755978E+05   -1.7886453E+00
   1.9415299E-04   3.5462565E+05   -1.7880829E+00
   1.9504960E-04   3.5171651E+05   -1.7875201E+00
   1.9595036E-04   3.4883214E+05   -1.7869569E+00
   1.9685528E-04   3.4597232E+05   -1.7863934E+00
   1.9776438E-04   3.4313683E+05   -1.7858294E+00
   1.9867768E-04   3.4032547E+05   -1.7852651E+00
   1.9959519E-04   3.3753803E+05   -1.7847004E+00
   2.0051694E-04   3.3477428E+05   -1.7841353E+00
   2.0144295E-04   3.3203403E+05   -1.7835699E+00
   2.0237324E-04   3.2931707E+05   -1.7830041E+00
   2.0330782E-04   3.2662319E+05   -1.7824380E+00
   2.0424671E-04   3.2395219E+05   -1.7818716E+00
   2.0518995E-04   3.2130387E+05   -1.7813048E+00
   2.0613754E-04   3.1867804E+05   -1.7807377E+00
   2.0708950E-04   3.1607449E+05   -1.7801702E+00
   2.0804586E-04   3.1349303E+05   -1.7796025E+00
   2.0900664E-04   3.1093347E+05   -1.7790344E+00
   2.0997185E-04   3.0839562E+05   -1.7784661E+00
   2.1094152E-04   3.0587928E+05   -1.7778974E+00
   2.1191567E-04   3.0338426E+05   -1.7773285E+00
   2.1289432E-04   3.0091039E+05   -1.7767592E+00
   2.1387749E-04   2.9845747E+05   -1.7761897E+00
   2.1486520E-04   2.9602533E+05   -1.7756199E+00
   2.1585747E-04   2.9361377E+05   -1.7750499E+00
   2.1685432E-04   2.9122263E+05   -1.7744795E+00
   2.1785578E-04   2.8885172E+05   -1.7739089E+00
   2.1886186E-04   2.8650086E+05   -1.7733381E+00
   2.1987259E-04   2.8416989E+05   -1.7727670E+00
   2.2088798E-04   2.8185862E+05   -1.7721957E+00
   2.2190807E-04   2.7956688E+05   -1.7716241E+00
   2.2293286E-04   2.7729451E+05   -1.7710523E+00
   2.2396239E-04   2.7504134E+05   -1.7704803E+00
   2.2499667E-04   2.7280719E+05   -1.7699081E+00
   2.2603573E-04   2.7059191E+05   -1.7693357E+00
   2.2707958E-04   2.6839532E+05   -1.7687630E+00
   2.2812826E-04   2.6621726E+05   -1.7681902E+00
   2.2918178E-04   2.6405758E+05   -1.7676172E+00
   2.3024017E-04   2.6191611E+05   -1.7670439E+00
   2.3130344E-04   2.5979269E+05   -1.7664706E+00
   2.3237162E-04   2.5768716E+05   -1.7658970E+00
   2.3344474E-04   2.5559938E+05   -1.7653232E+00
   2.3452281E-04   2.5352919E+05   -1.7647493E+00
   2.3560586E-04   2.5147642E+05   -1.7641753E+00
   2.3669392E-04   2.4944094E+05   -1.7636011E+00
   2.3778699E-04   2.4742258E+05   -1.7630267E+00
   2.3888512E-04   2.4542121E+05   -1.7624522E+00
   2.3998831E-04   2.4343667E+05   -1.7618776E+00
   2.4109661E-04   2.4146882E+05   -1.7613028E+00
   2.4221001E-04   2.3951751E+05   -1.7607280E+00
   2.4332857E-04   2.3758260E+05   -1.7601530E+00
   2.4445228E-04   2.3566394E+05   -1.7595779E+00
   2.4558119E-04   2.3376140E+05   -1.7590027E+00
   2.4671531E-04   2.3187483E+05   -1.7584274E+00
   2.4785467E-04   2.3000409E+05   -1.7578520E+00
   2.4899928E-04   2.2814906E+05   -1.7572766E+00
   2.5014919E-04   2.2630958E+05   -1.7567010E+00
   2.5130440E-04   2.2448553E+05   -1.7561254E+00
   2.5246495E-04   2.2267678E+05   -1.7555497E+00
   2.5363086E-04   2.2088318E+05   -1.7549740E+00
   2.5480216E-04   2.1910461E+05   -1.7543982E+00
   2.5597886E-04   2.1734094E+05   -1.7538224E+00
   2.5716100E-04   2.1559204E+05   -1.7532465E+00
   2.5834859E-04   2.1385778E+05   -1.7526706E+00
   2.5954168E-04   2.1213803E+05   -1.7520946E+00
   2.6074027E-04   2.1043267E+05   -1.7515187E+00
   2.6194439E-04   2.0874157E+05   -1.7509427E+00
   2.6315408E-04   2.0706462E+05   -1.7503667E+00
   2.6436935E-04   2.0540168E+05   -1.7497907E+00
   2.6559024E-04   2.0375263E+05   -1.7492147E+00
   2.6681676E-04   2.0211736E+05   -1.7486387E+00
   2.6804895E-04   2.0049575E+05   -1.7480627E+00
   2.6928683E-04   1.9888768E+05   -1.7474868E+00
   2.7053042E-04   1.9729302E+05   -1.7469109E+00
   2.7177976E-04   1.9571168E+05   -1.7463350E+00
   2.7303487E-04   1.9414352E+05   -1.7457591E+00
   2.7429577E-04   1.9258844E+05   -1.7451833E+00
   2.7556250E-04   1.9104632E+05   -1.7446075E+00
   2.7683507E-04   1.8951705E+05   -1.7440318E+00
   2.7811353E-04   1.8800052E+05   -1.7434562E+00
   2.7939788E-04   1.8649662E+05   -1.7428806E+00
   2.8068817E-04   1.8500525E+05   -1.7423051E+00
   2.8198442E-04   1.8352628E+05   -1.7417297E+00
   2.8328665E-04   1.8205962E+05   -1.7411544E+00
   2.8459490E-04   1.8060516E+05   -1.7405792E+00
   2.8590919E-04   1.7916280E+05   -1.7400040E+00
   2.8722955E-04   1.7773243E+05   -1.7394290E+00
   2.8855600E-04   1.7631394E+05   -1.7388541E+00
   2.8988859E-04   1.7490723E+05   -1.7382793E+00
   2.9122732E-04   1.7351221E+05   -1.7377046E+00
   2.9257224E-04   1.7212877E+05   -1.7371300E+00
   2.9392337E-04   1.7075682E+05   -1.7365556E+00
   2.9528074E-04   1.6939624E+05   -1.7359814E+00
   2.9664438E-04   1.6804696E+05   -1.7354072E+00
   2.9801431E-04   1.6670886E+05   -1.7348333E+00
   2.9939057E-04   1.6538185E+05   -1.7342595E+00
   3.0077319E-04   1.6406584E+05   -1.7336858E+00
   3.0216219E-04   1.6276073E+05   -1.7331124E+00
   3.0355761E-04   1.6146643E+05   -1.7325391E+00
   3.0495947E-04   1.6018285E+05   -1.7319660E+00
   3.0636780E-04   1.5890989E+05   -1.7313930E+00
   3.0778264E-04   1.5764746E+05   -1.7308203E+00
   3.0920401E-04   1.5639547E+05   -1.7302478E+00
   3.1063195E-04   1.5515384E+05   -1.7296755E+00
   3.1206648E-04   1.5392247E+05   -1.7291034E+00
   3.1350764E-04   1.5270127E+05   -1.7285315E+00
   3.1495545E-04   1.5149016E+05   -1.7279598E+00
   3.1640994E-04   1.5028905E+05   -1.7273884E+00
   3.1787116E-04   1.4909786E+05   -1.7268172E+00
   3.1933912E-04   1.4791650E+05   -1.7262463E+00
   3.2081386E-04   1.4674489E+05   -1.7256756E+00
   3.2229541E-04   1.4558294E+05   -1.7251052E+00
   3.2378381E-04   1.4443056E+05   -1.7245350E+00
   3.2527908E-04   1.4328769E+05   -1.7239651E+00
   3.2678125E-04   1.4215423E+05   -1.7233954E+00
   3.2829036E-04   1.4103011E+05   -1.7228261E+00
   3.2980644E-04   1.3991525E+05   -1.7222570E+00
   3.3132952E-04   1.3880956E+05   -1.7216882E+00
   3.3285963E-04   1.3771297E+05   -1.7211197E+00
   3.3439681E-04   1.3662540E+05   -1.7205516E+00
   3.3594109E-04   1.3554678E+05   -1.7199837E+00
   3.3749250E-04   1.3447702E+05   -1.7194161E+00
   3.3905108E-04   1.3341605E+05   -1.7188489E+00
   3.4061685E-04   1.3236380E+05   -1.7182820E+00
   3.4218986E-04   1.3132020E+05   -1.7177154E+00
   3.4377013E-04   1.3028516E+05   -1.7171491E+00
   3.4535769E-04   1.2925861E+05   -1.7165832E+00
   3.4695259E-04   1.2824049E+05   -1.7160177E+00
   3.4855485E-04   1.2723072E+05   -1.7154524E+00
   3.5016452E-04   1.2622923E+05   -1.7148876E+00
   3.5178161E-04   1.2523595E+05   -1.7143231E+00
   3.5340618E-04   1.2425080E+05   -1.7137590E+00
   3.5503824E-04   1.2327373E+05   -1.7131953E+00
   3.5667785E-04   1.2230466E+05   -1.7126319E+00
   3.5832502E-04   1.2134352E+05   -1.7120689E+00
   3.5997981E-04   1.2039025E+05   -1.7115064E+00
   3.6164223E-04   1.1944477E+05   -1.7109442E+00
   3.6331233E-04   1.1850703E+05   -1.7103824E+00
   3.6499015E-04   1.1757695E+05   -1.7098210E+00
   3.6667571E-04   1.1665447E+05   -1.7092601E+00
   3.6836906E-04   1.1573953E+05   -1.7086996E+00
   3.7007022E-04   1.1483207E+05   -1.7081395E+00
   3.7177925E-04   1.1393201E+05   -1.7075798E+00
   3.7349616E-04   1.1303929E+05   -1.7070205E+00
   3.7522101E-04   1.1215387E+05   -1.7064618E+00
   3.7695382E-04   1.1127566E+05   -1.7059034E+00
   3.7869463E-04   1.1040461E+05   -1.7053455E+00
   3.8044348E-04   1.0954067E+05   -1.7047881E+00
   3.8220041E-04   1.0868376E+05   -1.7042311E+00
   3.8396545E-04   1.0783383E+05   -1.7036746E+00
   3.8573864E-04   1.0699083E+05   -1.7031186E+00
   3.8752002E-04   1.0615469E+05   -1.7025630E+00
   3.8930963E-04   1.0532535E+05   -1.7020080E+00
   3.9110750E-04   1.0450275E+05   -1.7014534E+00
   3.9291368E-04   1.0368685E+05   -1.7008993E+00
   3.9472820E-04   1.0287758E+05   -1.7003457E+00
   3.9655109E-04   1.0207488E+05   -1.6997927E+00
   3.9838241E-04   1.0127871E+05   -1.6992401E+00
   4.0022218E-04   1.0048900E+05   -1.6986881E+00
   4.0207045E-04   9.9705704E+04   -1.6981365E+00
   4.0392725E-04   9.8928764E+04   -1.6975855E+00
   4.0579263E-04   9.8158127E+04   -1.6970351E+00
   4.0766662E-04   9.7393741E+04   -1.6964851E+00
   4.0954927E-04   9.6635551E+04   -1.6959357E+00
   4.1144061E-04   9.5883507E+04   -1.6953869E+00
   4.1334068E-04   9.5137556E+04   -1.6948386E+00
   4.1524953E-04   9.4397646E+04   -1.6942909E+00
   4.1716720E-04   9.3663727E+04   -1.6937437E+00
   4.1909372E-04   9.2935748E+04   -1.6931971E+00
   4.2102914E-04   9.2213660E+04   -1.6926511E+00
   4.2297350E-04   9.1497411E+04   -1.6921056E+00
   4.2492683E-04   9.0786954E+04   -1.6915607E+00
   4.2688919E-04   9.0082240E+04   -1.6910164E+00
   4.2886061E-04   8.9383221E+04   -1.6904727E+00
   4.3084113E-04   8.8689847E+04   -1.6899296E+00
   4.3283080E-04   8.8002072E+04   -1.6893871E+00
   4.3482966E-04   8.7319849E+04   -1.6888452E+00
   4.3683775E-04   8.6643131E+04   -1.6883039E+00
   4.3885511E-04   8.5971872E+04   -1.6877632E+00
   4.4088179E-04   8.5306026E+04   -1.6872232E+00
   4.4291783E-04   8.4645547E+04   -1.6866837E+00
   4.4496327E-04   8.3990390E+04   -1.6861449E+00
   4.4701816E-04   8.3340511E+04   -1.6856068E+00
   4.4908253E-04   8.2695866E+04   -1.6850692E+00
   4.5115644E-04   8.2056409E+04   -1.6845323E+00
   4.5323993E-04   8.1422099E+04   -1.6839961E+00
   4.5533304E-04   8.0792892E+04   -1.6834605E+00
   4.5743582E-04   8.0168745E+04   -1.6829255E+00
   4.5954830E-04   7.9549616E+04   -1.6823912E+00
   4.6167054E-04   7.8935462E+04   -1.6818576E+00
   4.6380259E-04   7.8326242E+04   -1.6813247E+00
   4.6594448E-04   7.7721915E+04   -1.6807924E+00
   4.6809626E-04   7.7122439E+04   -1.6802608E+00
   4.7025797E-04   7.6527775E+04   -1.6797299E+00
   4.7242967E-04   7.5937881E+04   -1.6791997E+00
   4.7461140E-04   7.5352719E+04   -1.6786701E+00
   4.7680321E-04   7.4772248E+04   -1.6781413E+00
   4.7900514E-04   7.4196429E+04   -1.6776131E+00
   4.8121723E-04   7.3625223E+04   -1.6770857E+00
   4.8343954E-04   7.3058593E+04   -1.6765590E+00
   4.8567212E-04   7.2496499E+04   -1.6760329E+00
   4.8791500E-04   7.1938904E+04   -1.6755076E+00
   4.9016825E-04   7.1385771E+04   -1.6749830E+00
   4.9243189E-04   7.0837061E+04   -1.6744592E+00
   4.9470600E-04   7.0292739E+04   -1.6739360E+00
   4.9699060E-04   6.9752767E+04   -1.6734136E+00
   4.9928575E-04   6.9217110E+04   -1.6728920E+00
   5.0159151E-04   6.8685731E+04   -1.6723710E+00
   5.0390791E-04   6.8158595E+04   -1.6718509E+00
   5.0623501E-04   6.7635667E+04   -1.6713314E+00
   5.0857286E-04   6.7116911E+04   -1.6708127E+00
   5.1092150E-04   6.6602293E+04   -1.6702948E+00
   5.1328099E-04   6.6091778E+04   -1.6697776E+00
   5.1565137E-04   6.5585333E+04   -1.6692612E+00
   5.1803270E-04   6.5082923E+04   -1.6687456E+00
   5.2042503E-04   6.4584516E+04   -1.6682307E+00
   5.2282841E-04   6.4090077E+04   -1.6677166E+00
   5.2524289E-04   6.3599574E+04   -1.6672033E+00
   5.2766851E-04   6.3112973E+04   -1.6666908E+00
   5.3010534E-04   6.2630244E+04   -1.6661790E+00
   5.3255342E-04   6.2151353E+04   -1.6656680E+00
   5.3501281E-04   6.1676270E+04   -1.6651579E+00
   5.3748356E-04   6.1204961E+04   -1.6646485E+00
   5.3996571E-04   6.0737396E+04   -1.6641399E+00
   5.4245933E-04   6.0273545E+04   -1.6636322E+00
   5.4496446E-04   5.9813376E+04   -1.6631252E+00
   5.4748117E-04   5.9356858E+04   -1.6626190E+00
   5.5000949E-04   5.8903963E+04   -1.6621137E+00
   5.5254949E-04   5.8454658E+04   -1.6616092E+00
   5.5510123E-04   5.8008916E+04   -1.6611055E+00
   5.5766474E-04   5.7566706E+04   -1.6606026E+00
   5.6024010E-04   5.7128000E+04   -1.6601005E+00
   5.6282734E-04   5.6692767E+04   -1.6595993E+00
   5.6542654E-04   5.6260981E+04   -1.6590989E+00
   5.6803774E-04   5.5832611E+04   -1.6585994E+00
   5.7066099E-04   5.5407631E+04   -1.6581007E+00
   5.7329637E-04   5.4986011E+04   -1.6576028E+00
   5.7594391E-04   5.4567725E+04   -1.6571058E+00
   5.7860368E-04   5.4152745E+04   -1.6566096E+00
   5.8127573E-04   5.3741044E+04   -1.6561143E+00
   5.8396012E-04   5.3332594E+04   -1.6556198E+00
   5.8665691E-04   5.2927369E+04   -1.6551262E+00
   5.8936616E-04   5.2525342E+04   -1.6546334E+00
   5.9208791E-04   5.2126487E+04   -1.6541416E+00
   5.9482223E-04   5.1730779E+04   -1.6536505E+00
   5.9756919E-04   5.1338190E+04   -1.6531604E+00
   6.0032882E-04   5.0948695E+04   -1.6526711E+00
   6.0310120E-04   5.0562269E+04   -1.6521827E+00
   6.0588639E-04   5.0178887E+04   -1.6516952E+00
   6.0868443E-04   4.9798524E+04   -1.6512086E+00
   6.1149540E-04   4.9421154E+04   -1.6507228E+00
   6.1431935E-04   4.9046755E+04   -1.6502379E+00
   6.1715634E-04   4.8675300E+04   -1.6497540E+00
   6.2000644E-04   4.8306765E+04   -1.6492709E+00
   6.2286969E-04   4.7941128E+04   -1.6487887E+00
