#        a       HoverH0(a)       dlogHdloga_of_a(a)
   1.0000000E-04   1.1051829E+06   -1.8885525E+00
   1.0046181E-04   1.0956089E+06   -1.8881529E+00
   1.0092575E-04   1.0861199E+06   -1.8877523E+00
   1.0139184E-04   1.0767150E+06   -1.8873507E+00
   1.0186008E-04   1.0673936E+06   -1.8869481E+00
   1.0233048E-04   1.0581548E+06   -1.8865445E+00
   1.0280305E-04   1.0489979E+06   -1.8861398E+00
   1.0327781E-04   1.0399222E+06   -1.8857342E+00
   1.0375475E-04   1.0309270E+06   -1.8853275E+00
   1.0423390E-04   1.0220115E+06   -1.8849198E+00
   1.0471527E-04   1.0131750E+06   -1.8845111E+00
   1.0519885E-04   1.0044168E+06   -1.8841013E+00
   1.0568467E-04   9.9573619E+05   -1.8836906E+00
   1.0617274E-04   9.8713247E+05   -1.8832788E+00
   1.0666305E-04   9.7860495E+05   -1.8828661E+00
   1.0715563E-04   9.7015294E+05   -1.8824523E+00
   1.0765049E-04   9.6177577E+05   -1.8820375E+00
   1.0814763E-04   9.5347276E+05   -1.8816217E+00
   1.0864707E-04   9.4524325E+05   -1.8812049E+00
   1.0914881E-04   9.3708656E+05   -1.8807870E+00
   1.0965287E-04   9.2900205E+05   -1.8803682E+00
   1.1015926E-04   9.2098907E+05   -1.8799484E+00
   1.1066799E-04   9.1304697E+05   -1.8795275E+00
   1.1117906E-04   9.0517511E+05   -1.8791057E+00
   1.1169250E-04   8.9737287E+05   -1.8786828E+00
   1.1220831E-04   8.8963961E+05   -1.8782590E+00
   1.1272650E-04   8.8197473E+05   -1.8778341E+00
   1.1324708E-04   8.7437759E+05   -1.8774082E+00
   1.1377007E-04   8.6684760E+05   -1.8769814E+00
   1.1429547E-04   8.5938415E+05   -1.8765535E+00
   1.1482330E-04   8.5198664E+05   -1.8761246E+00
   1.1535356E-04   8.4465448E+05   -1.8756948E+00
   1.1588628E-04   8.3738708E+05   -1.8752639E+00
   1.1642145E-04   8.3018385E+05   -1.8748320E+00
   1.1695910E-04   8.2304423E+05   -1.8743992E+00
   1.1749923E-04   8.1596764E+05   -1.8739653E+00
   1.1804185E-04   8.0895351E+05   -1.8735305E+00
   1.1858698E-04   8.0200129E+05   -1.8730947E+00
   1.1913463E-04   7.9511041E+05   -1.8726579E+00
   1.1968481E-04   7.8828032E+05   -1.8722201E+00
   1.2023752E-04   7.8151049E+05   -1.8717813E+00
   1.2079279E-04   7.7480036E+05   -1.8713415E+00
   1.2135063E-04   7.6814941E+05   -1.8709007E+00
   1.2191104E-04   7.6155710E+05   -1.8704590E+00
   1.2247403E-04   7.5502290E+05   -1.8700162E+00
   1.2303963E-04   7.4854630E+05   -1.8695725E+00
   1.2360784E-04   7.4212677E+05   -1.8691278E+00
   1.2417868E-04   7.3576380E+05   -1.8686821E+00
   1.2475215E-04   7.2945689E+05   -1.8682355E+00
   1.2532826E-04   7.2320553E+05   -1.8677879E+00
   1.2590704E-04   7.1700922E+05   -1.8673393E+00
   1.2648850E-04   7.1086747E+05   -1.8668897E+00
   1.2707263E-04   7.0477979E+05   -1.8664392E+00
   1.2765947E-04   6.9874570E+05   -1.8659877E+00
   1.2824901E-04   6.9276472E+05   -1.8655352E+00
   1.2884128E-04   6.8683636E+05   -1.8650818E+00
   1.2943628E-04   6.8096016E+05   -1.8646274E+00
   1.3003403E-04   6.7513565E+05   -1.8641720E+00
   1.3063454E-04   6.6936236E+05   -1.8637157E+00
   1.3123783E-04   6.6363984E+05   -1.8632584E+00
   1.3184390E-04   6.5796763E+05   -1.8628002E+00
   1.3245277E-04   6.5234527E+05   -1.8623410E+00
   1.3306445E-04   6.4677233E+05   -1.8618809E+00
   1.3367895E-04   6.4124837E+05   -1.8614198E+00
   1.3429630E-04   6.3577293E+05   -1.8609578E+00
   1.3491649E-04   6.3034559E+05   -1.8604948E+00
   1.3553955E-04   6.2496591E+05   -1.8600309E+00
   1.3616548E-04   6.1963347E+05   -1.8595660E+00
   1.3679431E-04   6.1434785E+05   -1.8591002E+00
   1.3742604E-04   6.0910863E+05   -1.8586335E+00
   1.3806069E-04   6.0391539E+05   -1.8581658E+00
   1.3869827E-04   5.9876771E+05   -1.8576972E+00
   1.3933879E-04   5.9366520E+05   -1.8572276E+00
   1.3998227E-04   5.8860744E+05   -1.8567571E+00
   1.4062872E-04   5.8359404E+05   -1.8562858E+00
   1.4127816E-04   5.7862459E+05   -1.8558134E+00
   1.4193060E-04   5.7369872E+05   -1.8553402E+00
   1.4258605E-04   5.6881602E+05   -1.8548660E+00
   1.4324453E-04   5.6397610E+05   -1.8543909E+00
   1.4390605E-04   5.5917860E+05   -1.8539149E+00
   1.4457062E-04   5.5442312E+05   -1.8534380E+00
   1.4523826E-04   5.4970930E+05   -1.8529602E+00
   1.4590899E-04   5.4503675E+05   -1.8524815E+00
   1.4658281E-04   5.4040512E+05   -1.8520018E+00
   1.4725974E-04   5.3581402E+05   -1.8515213E+00
   1.4793981E-04   5.3126311E+05   -1.8510399E+00
   1.4862301E-04   5.2675202E+05   -1.8505575E+00
   1.4930936E-04   5.2228040E+05   -1.8500743E+00
   1.4999889E-04   5.1784789E+05   -1.8495902E+00
   1.5069160E-04   5.1345415E+05   -1.8491052E+00
   1.5138751E-04   5.0909882E+05   -1.8486193E+00
   1.5208663E-04   5.0478157E+05   -1.8481325E+00
   1.5278899E-04   5.0050205E+05   -1.8476448E+00
   1.5349458E-04   4.9625994E+05   -1.8471563E+00
   1.5420343E-04   4.9205488E+05   -1.8466669E+00
   1.5491556E-04   4.8788656E+05   -1.8461766E+00
   1.5563098E-04   4.8375464E+05   -1.8456854E+00
   1.5634970E-04   4.7965881E+05   -1.8451934E+00
   1.5707174E-04   4.7559873E+05   -1.8447005E+00
   1.5779711E-04   4.7157408E+05   -1.8442067E+00
   1.5852584E-04   4.6758456E+05   -1.8437121E+00
   1.5925792E-04   4.6362985E+05   -1.8432167E+00
   1.5999339E-04   4.5970964E+05   -1.8427203E+00
   1.6073226E-04   4.5582362E+05   -1.8422232E+00
   1.6147454E-04   4.5197148E+05   -1.8417252E+00
   1.6222024E-04   4.4815293E+05   -1.8412263E+00
   1.6296939E-04   4.4436766E+05   -1.8407266E+00
   1.6372200E-04   4.4061538E+05   -1.8402261E+00
   1.6447809E-04   4.3689579E+05   -1.8397247E+00
   1.6523767E-04   4.3320860E+05   -1.8392225E+00
   1.6600075E-04   4.2955353E+05   -1.8387195E+00
   1.6676736E-04   4.2593028E+05   -1.8382156E+00
   1.6753751E-04   4.2233857E+05   -1.8377110E+00
   1.6831122E-04   4.1877813E+05   -1.8372055E+00
   1.6908849E-04   4.1524867E+05   -1.8366992E+00
   1.6986936E-04   4.1174992E+05   -1.8361921E+00
   1.7065384E-04   4.0828160E+05   -1.8356842E+00
   1.7144193E-04   4.0484344E+05   -1.8351755E+00
   1.7223367E-04   4.0143518E+05   -1.8346659E+00
   1.7302906E-04   3.9805655E+05   -1.8341556E+00
   1.7382813E-04   3.9470729E+05   -1.8336445E+00
   1.7463089E-04   3.9138712E+05   -1.8331326E+00
   1.7543735E-04   3.8809580E+05   -1.8326200E+00
   1.7624754E-04   3.8483307E+05   -1.8321065E+00
   1.7706147E-04   3.8159867E+05   -1.8315923E+00
   1.7787916E-04   3.7839235E+05   -1.8310772E+00
   1.7870062E-04   3.7521387E+05   -1.8305615E+00
   1.7952588E-04   3.7206297E+05   -1.8300449E+00
   1.8035495E-04   3.6893940E+05   -1.8295276E+00
   1.8118785E-04   3.6584294E+05   -1.8290095E+00
   1.8202459E-04   3.6277332E+05   -1.8284907E+00
   1.8286520E-04   3.5973033E+05   -1.8279711E+00
   1.8370969E-04   3.5671371E+05   -1.8274508E+00
   1.8455808E-04   3.5372324E+05   -1.8269297E+00
   1.8541039E-04   3.5075868E+05   -1.8264079E+00
   1.8626663E-04   3.4781981E+05   -1.8258854E+00
   1.8712683E-04   3.4490638E+05   -1.8253621E+00
   1.8799100E-04   3.4201819E+05   -1.8248381E+00
   1.8885917E-04   3.3915501E+05   -1.8243134E+00
   1.8973134E-04   3.3631660E+05   -1.8237879E+00
   1.9060754E-04   3.3350276E+05   -1.8232618E+00
   1.9148778E-04   3.3071326E+05   -1.8227349E+00
   1.9237209E-04   3.2794789E+05   -1.8222073E+00
   1.9326049E-04   3.2520644E+05   -1.8216790E+00
   1.9415299E-04   3.2248868E+05   -1.8211501E+00
   1.9504960E-04   3.1979443E+05   -1.8206204E+00
   1.9595036E-04   3.1712345E+05   -1.8200900E+00
   1.9685528E-04   3.1447555E+05   -1.8195590E+00
   1.9776438E-04   3.1185053E+05   -1.8190272E+00
   1.9867768E-04   3.0924817E+05   -1.8184948E+00
   1.9959519E-04   3.0666829E+05   -1.8179617E+00
   2.0051694E-04   3.0411067E+05   -1.8174280E+00
   2.0144295E-04   3.0157513E+05   -1.8168936E+00
   2.0237324E-04   2.9906146E+05   -1.8163585E+00
   2.0330782E-04   2.9656948E+05   -1.8158228E+00
   2.0424671E-04   2.9409898E+05   -1.8152864E+00
   2.0518995E-04   2.9164979E+05   -1.8147494E+00
   2.0613754E-04   2.8922171E+05   -1.8142117E+00
   2.0708950E-04   2.8681456E+05   -1.8136734E+00
   2.0804586E-04   2.8442815E+05   -1.8131345E+00
   2.0900664E-04   2.8206229E+05   -1.8125949E+00
   2.0997185E-04   2.7971681E+05   -1.8120547E+00
   2.1094152E-04   2.7739152E+05   -1.8115139E+00
   2.1191567E-04   2.7508625E+05   -1.8109725E+00
   2.1289432E-04   2.7280082E+05   -1.8104304E+00
   2.1387749E-04   2.7053505E+05   -1.8098878E+00
   2.1486520E-04   2.6828877E+05   -1.8093446E+00
   2.1585747E-04   2.6606181E+05   -1.8088007E+00
   2.1685432E-04   2.6385400E+05   -1.8082563E+00
   2.1785578E-04   2.6166516E+05   -1.8077113E+00
   2.1886186E-04   2.5949513E+05   -1.8071657E+00
   2.1987259E-04   2.5734375E+05   -1.8066196E+00
   2.2088798E-04   2.5521084E+05   -1.8060728E+00
   2.2190807E-04   2.5309625E+05   -1.8055255E+00
   2.2293286E-04   2.5099982E+05   -1.8049777E+00
   2.2396239E-04   2.4892138E+05   -1.8044293E+00
   2.2499667E-04   2.4686077E+05   -1.8038803E+00
   2.2603573E-04   2.4481784E+05   -1.8033308E+00
   2.2707958E-04   2.4279244E+05   -1.8027807E+00
   2.2812826E-04   2.4078439E+05   -1.8022302E+00
   2.2918178E-04   2.3879357E+05   -1.8016790E+00
   2.3024017E-04   2.3681980E+05   -1.8011274E+00
   2.3130344E-04   2.3486295E+05   -1.8005752E+00
   2.3237162E-04   2.3292286E+05   -1.8000226E+00
   2.3344474E-04   2.3099938E+05   -1.7994694E+00
   2.3452281E-04   2.2909237E+05   -1.7989157E+00
   2.3560586E-04   2.2720169E+05   -1.7983615E+00
   2.3669392E-04   2.2532718E+05   -1.7978068E+00
   2.3778699E-04   2.2346872E+05   -1.7972516E+00
   2.3888512E-04   2.2162614E+05   -1.7966960E+00
   2.3998831E-04   2.1979933E+05   -1.7961398E+00
   2.4109661E-04   2.1798812E+05   -1.7955832E+00
   2.4221001E-04   2.1619240E+05   -1.7950261E+00
   2.4332857E-04   2.1441203E+05   -1.7944686E+00
   2.4445228E-04   2.1264685E+05   -1.7939106E+00
   2.4558119E-04   2.1089676E+05   -1.7933521E+00
   2.4671531E-04   2.0916161E+05   -1.7927932E+00
   2.4785467E-04   2.0744126E+05   -1.7922339E+00
   2.4899928E-04   2.0573560E+05   -1.7916741E+00
   2.5014919E-04   2.0404449E+05   -1.7911139E+00
   2.5130440E-04   2.0236780E+05   -1.7905533E+00
   2.5246495E-04   2.0070541E+05   -1.7899922E+00
   2.5363086E-04   1.9905718E+05   -1.7894307E+00
   2.5480216E-04   1.9742301E+05   -1.7888689E+00
   2.5597886E-04   1.9580276E+05   -1.7883066E+00
   2.5716100E-04   1.9419631E+05   -1.7877439E+00
   2.5834859E-04   1.9260353E+05   -1.7871808E+00
   2.5954168E-04   1.9102432E+05   -1.7866174E+00
   2.6074027E-04   1.8945855E+05   -1.7860535E+00
   2.6194439E-04   1.8790610E+05   -1.7854893E+00
   2.6315408E-04   1.8636685E+05   -1.7849247E+00
   2.6436935E-04   1.8484070E+05   -1.7843598E+00
   2.6559024E-04   1.8332752E+05   -1.7837945E+00
   2.6681676E-04   1.8182720E+05   -1.7832288E+00
   2.6804895E-04   1.8033963E+05   -1.7826628E+00
   2.6928683E-04   1.7886470E+05   -1.7820965E+00
   2.7053042E-04   1.7740229E+05   -1.7815298E+00
   2.7177976E-04   1.7595230E+05   -1.7809628E+00
   2.7303487E-04   1.7451462E+05   -1.7803954E+00
   2.7429577E-04   1.7308914E+05   -1.7798278E+00
   2.7556250E-04   1.7167575E+05   -1.7792598E+00
   2.7683507E-04   1.7027434E+05   -1.7786916E+00
   2.7811353E-04   1.6888482E+05   -1.7781230E+00
   2.7939788E-04   1.6750708E+05   -1.7775541E+00
   2.8068817E-04   1.6614101E+05   -1.7769849E+00
   2.8198442E-04   1.6478652E+05   -1.7764155E+00
   2.8328665E-04   1.6344349E+05   -1.7758458E+00
   2.8459490E-04   1.6211184E+05   -1.7752758E+00
   2.8590919E-04   1.6079146E+05   -1.7747055E+00
   2.8722955E-04   1.5948225E+05   -1.7741350E+00
   2.8855600E-04   1.5818412E+05   -1.7735642E+00
   2.8988859E-04   1.5689697E+05   -1.7729932E+00
   2.9122732E-04   1.5562070E+05   -1.7724219E+00
   2.9257224E-04   1.5435522E+05   -1.7718504E+00
   2.9392337E-04   1.5310043E+05   -1.7712787E+00
   2.9528074E-04   1.5185625E+05   -1.7707068E+00
   2.9664438E-04   1.5062257E+05   -1.7701346E+00
   2.9801431E-04   1.4939931E+05   -1.7695622E+00
   2.9939057E-04   1.4818637E+05   -1.7689896E+00
   3.0077319E-04   1.4698367E+05   -1.7684168E+00
   3.0216219E-04   1.4579111E+05   -1.7678438E+00
   3.0355761E-04   1.4460862E+05   -1.7672706E+00
   3.0495947E-04   1.4343609E+05   -1.7666973E+00
   3.0636780E-04   1.4227345E+05   -1.7661237E+00
   3.0778264E-04   1.4112060E+05   -1.7655500E+00
   3.0920401E-04   1.3997746E+05   -1.7649761E+00
   3.1063195E-04   1.3884395E+05   -1.7644021E+00
   3.1206648E-04   1.3771999E+05   -1.7638279E+00
   3.1350764E-04   1.3660548E+05   -1.7632536E+00
   3.1495545E-04   1.3550035E+05   -1.7626791E+00
   3.1640994E-04   1.3440452E+05   -1.7621045E+00
   3.1787116E-04   1.3331791E+05   -1.7615297E+00
   3.1933912E-04   1.3224043E+05   -1.7609549E+00
   3.2081386E-04   1.3117200E+05   -1.7603799E+00
   3.2229541E-04   1.3011255E+05   -1.7598048E+00
   3.2378381E-04   1.2906200E+05   -1.7592296E+00
   3.2527908E-04   1.2802028E+05   -1.7586543E+00
   3.2678125E-04   1.2698729E+05   -1.7580789E+00
   3.2829036E-04   1.2596298E+05   -1.7575034E+00
   3.2980644E-04   1.2494726E+05   -1.7569279E+00
   3.3132952E-04   1.2394006E+05   -1.7563523E+00
   3.3285963E-04   1.2294130E+05   -1.7557766E+00
   3.3439681E-04   1.2195092E+05   -1.7552008E+00
   3.3594109E-04   1.2096884E+05   -1.7546250E+00
   3.3749250E-04   1.1999498E+05   -1.7540491E+00
   3.3905108E-04   1.1902928E+05   -1.7534732E+00
   3.4061685E-04   1.1807166E+05   -1.7528973E+00
   3.4218986E-04   1.1712206E+05   -1.7523213E+00
   3.4377013E-04   1.1618040E+05   -1.7517453E+00
   3.4535769E-04   1.1524662E+05   -1.7511693E+00
   3.4695259E-04   1.1432065E+05   -1.7505932E+00
   3.4855485E-04   1.1340242E+05   -1.7500172E+00
   3.5016452E-04   1.1249187E+05   -1.7494412E+00
   3.5178161E-04   1.1158892E+05   -1.7488651E+00
   3.5340618E-04   1.1069351E+05   -1.7482891E+00
   3.5503824E-04   1.0980558E+05   -1.7477131E+00
   3.5667785E-04   1.0892506E+05   -1.7471371E+00
   3.5832502E-04   1.0805189E+05   -1.7465611E+00
   3.5997981E-04   1.0718600E+05   -1.7459852E+00
   3.6164223E-04   1.0632734E+05   -1.7454093E+00
   3.6331233E-04   1.0547583E+05   -1.7448335E+00
   3.6499015E-04   1.0463142E+05   -1.7442577E+00
   3.6667571E-04   1.0379404E+05   -1.7436820E+00
   3.6836906E-04   1.0296364E+05   -1.7431064E+00
   3.7007022E-04   1.0214016E+05   -1.7425308E+00
   3.7177925E-04   1.0132352E+05   -1.7419553E+00
   3.7349616E-04   1.0051369E+05   -1.7413799E+00
   3.7522101E-04   9.9710589E+04   -1.7408046E+00
   3.7695382E-04   9.8914169E+04   -1.7402293E+00
   3.7869463E-04   9.8124370E+04   -1.7396542E+00
   3.8044348E-04   9.7341136E+04   -1.7390792E+00
   3.8220041E-04   9.6564409E+04   -1.7385043E+00
   3.8396545E-04   9.5794134E+04   -1.7379295E+00
   3.8573864E-04   9.5030254E+04   -1.7373549E+00
   3.8752002E-04   9.4272716E+04   -1.7367803E+00
   3.8930963E-04   9.3521464E+04   -1.7362060E+00
   3.9110750E-04   9.2776443E+04   -1.7356317E+00
   3.9291368E-04   9.2037602E+04   -1.7350576E+00
   3.9472820E-04   9.1304886E+04   -1.7344837E+00
   3.9655109E-04   9.0578242E+04   -1.7339099E+00
   3.9838241E-04   8.9857619E+04   -1.7333364E+00
   4.0022218E-04   8.9142965E+04   -1.7327629E+00
   4.0207045E-04   8.8434228E+04   -1.7321897E+00
   4.0392725E-04   8.7731357E+04   -1.7316166E+00
   4.0579263E-04   8.7034303E+04   -1.7310438E+00
   4.0766662E-04   8.6343015E+04   -1.7304711E+00
   4.0954927E-04   8.5657444E+04   -1.7298987E+00
   4.1144061E-04   8.4977540E+04   -1.7293264E+00
   4.1334068E-04   8.4303255E+04   -1.7287544E+00
   4.1524953E-04   8.3634541E+04   -1.7281826E+00
   4.1716720E-04   8.2971350E+04   -1.7276110E+00
   4.1909372E-04   8.2313634E+04   -1.7270397E+00
   4.2102914E-04   8.1661347E+04   -1.7264686E+00
   4.2297350E-04   8.1014442E+04   -1.7258977E+00
   4.2492683E-04   8.0372873E+04   -1.7253271E+00
   4.2688919E-04   7.9736595E+04   -1.7247568E+00
   4.2886061E-04   7.9105561E+04   -1.7241867E+00
   4.3084113E-04   7.8479728E+04   -1.7236169E+00
   4.3283080E-04   7.7859050E+04   -1.7230474E+00
   4.3482966E-04   7.7243484E+04   -1.7224782E+00
   4.3683775E-04   7.6632985E+04   -1.7219092E+00
   4.3885511E-04   7.6027511E+04   -1.7213405E+00
   4.4088179E-04   7.5427018E+04   -1.7207722E+00
   4.4291783E-04   7.4831463E+04   -1.7202041E+00
   4.4496327E-04   7.4240806E+04   -1.7196363E+00
   4.4701816E-04   7.3655003E+04   -1.7190689E+00
   4.4908253E-04   7.3074013E+04   -1.7185018E+00
   4.5115644E-04   7.2497796E+04   -1.7179350E+00
   4.5323993E-04   7.1926310E+04   -1.7173686E+00
   4.5533304E-04   7.1359516E+04   -1.7168025E+00
   4.5743582E-04   7.0797372E+04   -1.7162367E+00
   4.5954830E-04   7.0239840E+04   -1.7156713E+00
   4.6167054E-04   6.9686880E+04   -1.7151062E+00
   4.6380259E-04   6.9138453E+04   -1.7145415E+00
   4.6594448E-04   6.8594520E+04   -1.7139772E+00
   4.6809626E-04   6.8055044E+04   -1.7134132E+00
   4.7025797E-04   6.7519986E+04   -1.7128497E+00
   4.7242967E-04   6.6989308E+04   -1.7122865E+00
   4.7461140E-04   6.6462974E+04   -1.7117237E+00
   4.7680321E-04   6.5940946E+04   -1.7111613E+00
   4.7900514E-04   6.5423187E+04   -1.7105993E+00
   4.8121723E-04   6.4909662E+04   -1.7100377E+00
   4.8343954E-04   6.4400335E+04   -1.7094765E+00
   4.8567212E-04   6.3895169E+04   -1.7089157E+00
   4.8791500E-04   6.3394130E+04   -1.7083554E+00
   4.9016825E-04   6.2897182E+04   -1.7077955E+00
   4.9243189E-04   6.2404290E+04   -1.7072360E+00
   4.9470600E-04   6.1915420E+04   -1.7066769E+00
   4.9699060E-04   6.1430539E+04   -1.7061183E+00
   4.9928575E-04   6.0949611E+04   -1.7055602E+00
   5.0159151E-04   6.0472604E+04   -1.7050025E+00
   5.0390791E-04   5.9999484E+04   -1.7044453E+00
   5.0623501E-04   5.9530218E+04   -1.7038885E+00
   5.0857286E-04   5.9064774E+04   -1.7033322E+00
   5.1092150E-04   5.8603120E+04   -1.7027764E+00
   5.1328099E-04   5.8145223E+04   -1.7022211E+00
   5.1565137E-04   5.7691051E+04   -1.7016662E+00
   5.1803270E-04   5.7240572E+04   -1.7011119E+00
   5.2042503E-04   5.6793757E+04   -1.7005580E+00
   5.2282841E-04   5.6350573E+04   -1.7000047E+00
   5.2524289E-04   5.5910989E+04   -1.6994518E+00
   5.2766851E-04   5.5474976E+04   -1.6988995E+00
   5.3010534E-04   5.5042503E+04   -1.6983477E+00
   5.3255342E-04   5.4613541E+04   -1.6977964E+00
   5.3501281E-04   5.4188059E+04   -1.6972457E+00
   5.3748356E-04   5.3766028E+04   -1.6966954E+00
   5.3996571E-04   5.3347419E+04   -1.6961458E+00
   5.4245933E-04   5.2932204E+04   -1.6955966E+00
   5.4496446E-04   5.2520353E+04   -1.6950480E+00
   5.4748117E-04   5.2111838E+04   -1.6945000E+00
   5.5000949E-04   5.1706632E+04   -1.6939525E+00
   5.5254949E-04   5.1304705E+04   -1.6934056E+00
   5.5510123E-04   5.0906031E+04   -1.6928593E+00
   5.5766474E-04   5.0510582E+04   -1.6923135E+00
   5.6024010E-04   5.0118331E+04   -1.6917683E+00
   5.6282734E-04   4.9729250E+04   -1.6912237E+00
   5.6542654E-04   4.9343314E+04   -1.6906797E+00
   5.6803774E-04   4.8960496E+04   -1.6901362E+00
   5.7066099E-04   4.8580769E+04   -1.6895934E+00
   5.7329637E-04   4.8204108E+04   -1.6890512E+00
   5.7594391E-04   4.7830487E+04   -1.6885096E+00
   5.7860368E-04   4.7459880E+04   -1.6879685E+00
   5.8127573E-04   4.7092262E+04   -1.6874282E+00
   5.8396012E-04   4.6727608E+04   -1.6868884E+00
   5.8665691E-04   4.6365892E+04   -1.6863492E+00
   5.8936616E-04   4.6007091E+04   -1.6858107E+00
   5.9208791E-04   4.5651180E+04   -1.6852729E+00
   5.9482223E-04   4.5298134E+04   -1.6847356E+00
   5.9756919E-04   4.4947930E+04   -1.6841990E+00
   6.0032882E-04   4.4600543E+04   -1.6836631E+00
   6.0310120E-04   4.4255950E+04   -1.6831278E+00
   6.0588639E-04   4.3914128E+04   -1.6825932E+00
   6.0868443E-04   4.3575054E+04   -1.6820592E+00
   6.1149540E-04   4.3238703E+04   -1.6815259E+00
   6.1431935E-04   4.2905055E+04   -1.6809932E+00
   6.1715634E-04   4.2574085E+04   -1.6804613E+00
   6.2000644E-04   4.2245772E+04   -1.6799300E+00
   6.2286969E-04   4.1920094E+04   -1.6793994E+00
