#        a       HoverH0(a)       dlogHdloga_of_a(a)
   1.0000000E-04   1.0666171E+06   -1.8682027E+00
   1.0046181E-04   1.0574765E+06   -1.8677550E+00
   1.0092575E-04   1.0484164E+06   -1.8673063E+00
   1.0139184E-04   1.0394361E+06   -1.8668567E+00
   1.0186008E-04   1.0305348E+06   -1.8664061E+00
   1.0233048E-04   1.0217118E+06   -1.8659545E+00
   1.0280305E-04   1.0129665E+06   -1.8655020E+00
   1.0327781E-04   1.0042982E+06   -1.8650485E+00
   1.0375475E-04   9.9570611E+05   -1.8645940E+00
   1.0423390E-04   9.8718960E+05   -1.8641386E+00
   1.0471527E-04   9.7874800E+05   -1.8636822E+00
   1.0519885E-04   9.7038062E+05   -1.8632249E+00
   1.0568467E-04   9.6208680E+05   -1.8627666E+00
   1.0617274E-04   9.5386589E+05   -1.8623074E+00
   1.0666305E-04   9.4571723E+05   -1.8618472E+00
   1.0715563E-04   9.3764017E+05   -1.8613860E+00
   1.0765049E-04   9.2963408E+05   -1.8609239E+00
   1.0814763E-04   9.2169830E+05   -1.8604609E+00
   1.0864707E-04   9.1383223E+05   -1.8599969E+00
   1.0914881E-04   9.0603522E+05   -1.8595320E+00
   1.0965287E-04   8.9830667E+05   -1.8590661E+00
   1.1015926E-04   8.9064595E+05   -1.8585993E+00
   1.1066799E-04   8.8305246E+05   -1.8581316E+00
   1.1117906E-04   8.7552561E+05   -1.8576629E+00
   1.1169250E-04   8.6806478E+05   -1.8571933E+00
   1.1220831E-04   8.6066940E+05   -1.8567228E+00
   1.1272650E-04   8.5333887E+05   -1.8562513E+00
   1.1324708E-04   8.4607262E+05   -1.8557789E+00
   1.1377007E-04   8.3887008E+05   -1.8553056E+00
   1.1429547E-04   8.3173066E+05   -1.8548314E+00
   1.1482330E-04   8.2465381E+05   -1.8543563E+00
   1.1535356E-04   8.1763896E+05   -1.8538802E+00
   1.1588628E-04   8.1068556E+05   -1.8534032E+00
   1.1642145E-04   8.0379307E+05   -1.8529254E+00
   1.1695910E-04   7.9696093E+05   -1.8524466E+00
   1.1749923E-04   7.9018861E+05   -1.8519669E+00
   1.1804185E-04   7.8347557E+05   -1.8514863E+00
   1.1858698E-04   7.7682128E+05   -1.8510048E+00
   1.1913463E-04   7.7022522E+05   -1.8505224E+00
   1.1968481E-04   7.6368686E+05   -1.8500391E+00
   1.2023752E-04   7.5720570E+05   -1.8495550E+00
   1.2079279E-04   7.5078122E+05   -1.8490699E+00
   1.2135063E-04   7.4441291E+05   -1.8485839E+00
   1.2191104E-04   7.3810028E+05   -1.8480971E+00
   1.2247403E-04   7.3184281E+05   -1.8476094E+00
   1.2303963E-04   7.2564003E+05   -1.8471208E+00
   1.2360784E-04   7.1949144E+05   -1.8466313E+00
   1.2417868E-04   7.1339657E+05   -1.8461410E+00
   1.2475215E-04   7.0735492E+05   -1.8456498E+00
   1.2532826E-04   7.0136602E+05   -1.8451577E+00
   1.2590704E-04   6.9542941E+05   -1.8446647E+00
   1.2648850E-04   6.8954462E+05   -1.8441709E+00
   1.2707263E-04   6.8371118E+05   -1.8436763E+00
   1.2765947E-04   6.7792863E+05   -1.8431808E+00
   1.2824901E-04   6.7219653E+05   -1.8426844E+00
   1.2884128E-04   6.6651443E+05   -1.8421872E+00
   1.2943628E-04   6.6088187E+05   -1.8416891E+00
   1.3003403E-04   6.5529841E+05   -1.8411902E+00
   1.3063454E-04   6.4976362E+05   -1.8406905E+00
   1.3123783E-04   6.4427706E+05   -1.8401899E+00
   1.3184390E-04   6.3883831E+05   -1.8396885E+00
   1.3245277E-04   6.3344693E+05   -1.8391862E+00
   1.3306445E-04   6.2810251E+05   -1.8386831E+00
   1.3367895E-04   6.2280462E+05   -1.8381792E+00
   1.3429630E-04   6.1755285E+05   -1.8376745E+00
   1.3491649E-04   6.1234679E+05   -1.8371690E+00
   1.3553955E-04   6.0718604E+05   -1.8366627E+00
   1.3616548E-04   6.0207019E+05   -1.8361555E+00
   1.3679431E-04   5.9699884E+05   -1.8356475E+00
   1.3742604E-04   5.9197159E+05   -1.8351388E+00
   1.3806069E-04   5.8698805E+05   -1.8346292E+00
   1.3869827E-04   5.8204783E+05   -1.8341189E+00
   1.3933879E-04   5.7715055E+05   -1.8336077E+00
   1.3998227E-04   5.7229582E+05   -1.8330958E+00
   1.4062872E-04   5.6748327E+05   -1.8325831E+00
   1.4127816E-04   5.6271252E+05   -1.8320696E+00
   1.4193060E-04   5.5798319E+05   -1.8315553E+00
   1.4258605E-04   5.5329493E+05   -1.8310402E+00
   1.4324453E-04   5.4864736E+05   -1.8305244E+00
   1.4390605E-04   5.4404012E+05   -1.8300078E+00
   1.4457062E-04   5.3947286E+05   -1.8294905E+00
   1.4523826E-04   5.3494522E+05   -1.8289723E+00
   1.4590899E-04   5.3045684E+05   -1.8284535E+00
   1.4658281E-04   5.2600738E+05   -1.8279339E+00
   1.4725974E-04   5.2159649E+05   -1.8274135E+00
   1.4793981E-04   5.1722383E+05   -1.8268924E+00
   1.4862301E-04   5.1288906E+05   -1.8263705E+00
   1.4930936E-04   5.0859184E+05   -1.8258480E+00
   1.4999889E-04   5.0433185E+05   -1.8253247E+00
   1.5069160E-04   5.0010874E+05   -1.8248006E+00
   1.5138751E-04   4.9592219E+05   -1.8242759E+00
   1.5208663E-04   4.9177187E+05   -1.8237504E+00
   1.5278899E-04   4.8765748E+05   -1.8232242E+00
   1.5349458E-04   4.8357868E+05   -1.8226973E+00
   1.5420343E-04   4.7953516E+05   -1.8221697E+00
   1.5491556E-04   4.7552660E+05   -1.8216413E+00
   1.5563098E-04   4.7155271E+05   -1.8211123E+00
   1.5634970E-04   4.6761316E+05   -1.8205826E+00
   1.5707174E-04   4.6370766E+05   -1.8200522E+00
   1.5779711E-04   4.5983590E+05   -1.8195211E+00
   1.5852584E-04   4.5599759E+05   -1.8189894E+00
   1.5925792E-04   4.5219242E+05   -1.8184569E+00
   1.5999339E-04   4.4842011E+05   -1.8179238E+00
   1.6073226E-04   4.4468036E+05   -1.8173900E+00
   1.6147454E-04   4.4097288E+05   -1.8168556E+00
   1.6222024E-04   4.3729739E+05   -1.8163205E+00
   1.6296939E-04   4.3365361E+05   -1.8157847E+00
   1.6372200E-04   4.3004125E+05   -1.8152483E+00
   1.6447809E-04   4.2646004E+05   -1.8147112E+00
   1.6523767E-04   4.2290970E+05   -1.8141736E+00
   1.6600075E-04   4.1938995E+05   -1.8136352E+00
   1.6676736E-04   4.1590053E+05   -1.8130963E+00
   1.6753751E-04   4.1244117E+05   -1.8125567E+00
   1.6831122E-04   4.0901160E+05   -1.8120164E+00
   1.6908849E-04   4.0561155E+05   -1.8114756E+00
   1.6986936E-04   4.0224078E+05   -1.8109342E+00
   1.7065384E-04   3.9889901E+05   -1.8103921E+00
   1.7144193E-04   3.9558599E+05   -1.8098495E+00
   1.7223367E-04   3.9230147E+05   -1.8093062E+00
   1.7302906E-04   3.8904520E+05   -1.8087623E+00
   1.7382813E-04   3.8581692E+05   -1.8082179E+00
   1.7463089E-04   3.8261639E+05   -1.8076729E+00
   1.7543735E-04   3.7944336E+05   -1.8071273E+00
   1.7624754E-04   3.7629760E+05   -1.8065811E+00
   1.7706147E-04   3.7317885E+05   -1.8060343E+00
   1.7787916E-04   3.7008688E+05   -1.8054870E+00
   1.7870062E-04   3.6702146E+05   -1.8049391E+00
   1.7952588E-04   3.6398235E+05   -1.8043907E+00
   1.8035495E-04   3.6096932E+05   -1.8038417E+00
   1.8118785E-04   3.5798213E+05   -1.8032922E+00
   1.8202459E-04   3.5502057E+05   -1.8027421E+00
   1.8286520E-04   3.5208439E+05   -1.8021915E+00
   1.8370969E-04   3.4917339E+05   -1.8016404E+00
   1.8455808E-04   3.4628734E+05   -1.8010887E+00
   1.8541039E-04   3.4342601E+05   -1.8005366E+00
   1.8626663E-04   3.4058919E+05   -1.7999839E+00
   1.8712683E-04   3.3777667E+05   -1.7994307E+00
   1.8799100E-04   3.3498822E+05   -1.7988769E+00
   1.8885917E-04   3.3222365E+05   -1.7983227E+00
   1.8973134E-04   3.2948272E+05   -1.7977680E+00
   1.9060754E-04   3.2676525E+05   -1.7972128E+00
   1.9148778E-04   3.2407102E+05   -1.7966572E+00
   1.9237209E-04   3.2139983E+05   -1.7961010E+00
   1.9326049E-04   3.1875147E+05   -1.7955444E+00
   1.9415299E-04   3.1612575E+05   -1.7949873E+00
   1.9504960E-04   3.1352246E+05   -1.7944298E+00
   1.9595036E-04   3.1094141E+05   -1.7938717E+00
   1.9685528E-04   3.0838240E+05   -1.7933133E+00
   1.9776438E-04   3.0584524E+05   -1.7927544E+00
   1.9867768E-04   3.0332973E+05   -1.7921950E+00
   1.9959519E-04   3.0083569E+05   -1.7916352E+00
   2.0051694E-04   2.9836293E+05   -1.7910750E+00
   2.0144295E-04   2.9591125E+05   -1.7905144E+00
   2.0237324E-04   2.9348048E+05   -1.7899533E+00
   2.0330782E-04   2.9107043E+05   -1.7893918E+00
   2.0424671E-04   2.8868091E+05   -1.7888300E+00
   2.0518995E-04   2.8631176E+05   -1.7882677E+00
   2.0613754E-04   2.8396278E+05   -1.7877050E+00
   2.0708950E-04   2.8163381E+05   -1.7871419E+00
   2.0804586E-04   2.7932466E+05   -1.7865785E+00
   2.0900664E-04   2.7703516E+05   -1.7860146E+00
   2.0997185E-04   2.7476515E+05   -1.7854504E+00
   2.1094152E-04   2.7251444E+05   -1.7848858E+00
   2.1191567E-04   2.7028288E+05   -1.7843209E+00
   2.1289432E-04   2.6807028E+05   -1.7837556E+00
   2.1387749E-04   2.6587649E+05   -1.7831899E+00
   2.1486520E-04   2.6370134E+05   -1.7826239E+00
   2.1585747E-04   2.6154467E+05   -1.7820576E+00
   2.1685432E-04   2.5940632E+05   -1.7814909E+00
   2.1785578E-04   2.5728611E+05   -1.7809239E+00
   2.1886186E-04   2.5518391E+05   -1.7803566E+00
   2.1987259E-04   2.5309954E+05   -1.7797889E+00
   2.2088798E-04   2.5103286E+05   -1.7792210E+00
   2.2190807E-04   2.4898370E+05   -1.7786527E+00
   2.2293286E-04   2.4695192E+05   -1.7780841E+00
   2.2396239E-04   2.4493736E+05   -1.7775153E+00
   2.2499667E-04   2.4293986E+05   -1.7769461E+00
   2.2603573E-04   2.4095930E+05   -1.7763767E+00
   2.2707958E-04   2.3899550E+05   -1.7758070E+00
   2.2812826E-04   2.3704833E+05   -1.7752370E+00
   2.2918178E-04   2.3511765E+05   -1.7746667E+00
   2.3024017E-04   2.3320330E+05   -1.7740962E+00
   2.3130344E-04   2.3130514E+05   -1.7735255E+00
   2.3237162E-04   2.2942304E+05   -1.7729544E+00
   2.3344474E-04   2.2755685E+05   -1.7723832E+00
   2.3452281E-04   2.2570644E+05   -1.7718117E+00
   2.3560586E-04   2.2387167E+05   -1.7712400E+00
   2.3669392E-04   2.2205239E+05   -1.7706680E+00
   2.3778699E-04   2.2024848E+05   -1.7700959E+00
   2.3888512E-04   2.1845980E+05   -1.7695235E+00
   2.3998831E-04   2.1668621E+05   -1.7689509E+00
   2.4109661E-04   2.1492760E+05   -1.7683782E+00
   2.4221001E-04   2.1318382E+05   -1.7678052E+00
   2.4332857E-04   2.1145474E+05   -1.7672320E+00
   2.4445228E-04   2.0974024E+05   -1.7666587E+00
   2.4558119E-04   2.0804020E+05   -1.7660852E+00
   2.4671531E-04   2.0635447E+05   -1.7655115E+00
   2.4785467E-04   2.0468295E+05   -1.7649376E+00
   2.4899928E-04   2.0302551E+05   -1.7643636E+00
   2.5014919E-04   2.0138202E+05   -1.7637894E+00
   2.5130440E-04   1.9975236E+05   -1.7632151E+00
   2.5246495E-04   1.9813642E+05   -1.7626407E+00
   2.5363086E-04   1.9653406E+05   -1.7620661E+00
   2.5480216E-04   1.9494519E+05   -1.7614914E+00
   2.5597886E-04   1.9336967E+05   -1.7609165E+00
   2.5716100E-04   1.9180739E+05   -1.7603416E+00
   2.5834859E-04   1.9025823E+05   -1.7597665E+00
   2.5954168E-04   1.8872209E+05   -1.7591913E+00
   2.6074027E-04   1.8719885E+05   -1.7586161E+00
   2.6194439E-04   1.8568839E+05   -1.7580407E+00
   2.6315408E-04   1.8419061E+05   -1.7574653E+00
   2.6436935E-04   1.8270540E+05   -1.7568897E+00
   2.6559024E-04   1.8123264E+05   -1.7563141E+00
   2.6681676E-04   1.7977223E+05   -1.7557385E+00
   2.6804895E-04   1.7832406E+05   -1.7551627E+00
   2.6928683E-04   1.7688803E+05   -1.7545870E+00
   2.7053042E-04   1.7546403E+05   -1.7540111E+00
   2.7177976E-04   1.7405195E+05   -1.7534353E+00
   2.7303487E-04   1.7265169E+05   -1.7528594E+00
   2.7429577E-04   1.7126316E+05   -1.7522834E+00
   2.7556250E-04   1.6988624E+05   -1.7517074E+00
   2.7683507E-04   1.6852084E+05   -1.7511315E+00
   2.7811353E-04   1.6716685E+05   -1.7505555E+00
   2.7939788E-04   1.6582419E+05   -1.7499795E+00
   2.8068817E-04   1.6449275E+05   -1.7494035E+00
   2.8198442E-04   1.6317243E+05   -1.7488275E+00
   2.8328665E-04   1.6186313E+05   -1.7482515E+00
   2.8459490E-04   1.6056477E+05   -1.7476755E+00
   2.8590919E-04   1.5927725E+05   -1.7470996E+00
   2.8722955E-04   1.5800047E+05   -1.7465237E+00
   2.8855600E-04   1.5673434E+05   -1.7459478E+00
   2.8988859E-04   1.5547877E+05   -1.7453719E+00
   2.9122732E-04   1.5423366E+05   -1.7447962E+00
   2.9257224E-04   1.5299894E+05   -1.7442204E+00
   2.9392337E-04   1.5177450E+05   -1.7436448E+00
   2.9528074E-04   1.5056026E+05   -1.7430691E+00
   2.9664438E-04   1.4935612E+05   -1.7424936E+00
   2.9801431E-04   1.4816202E+05   -1.7419182E+00
   2.9939057E-04   1.4697785E+05   -1.7413428E+00
   3.0077319E-04   1.4580353E+05   -1.7407675E+00
   3.0216219E-04   1.4463897E+05   -1.7401924E+00
   3.0355761E-04   1.4348410E+05   -1.7396173E+00
   3.0495947E-04   1.4233883E+05   -1.7390423E+00
   3.0636780E-04   1.4120307E+05   -1.7384675E+00
   3.0778264E-04   1.4007674E+05   -1.7378927E+00
   3.0920401E-04   1.3895977E+05   -1.7373181E+00
   3.1063195E-04   1.3785207E+05   -1.7367437E+00
   3.1206648E-04   1.3675356E+05   -1.7361693E+00
   3.1350764E-04   1.3566416E+05   -1.7355952E+00
   3.1495545E-04   1.3458380E+05   -1.7350211E+00
   3.1640994E-04   1.3351239E+05   -1.7344473E+00
   3.1787116E-04   1.3244986E+05   -1.7338736E+00
   3.1933912E-04   1.3139614E+05   -1.7333000E+00
   3.2081386E-04   1.3035114E+05   -1.7327267E+00
   3.2229541E-04   1.2931480E+05   -1.7321535E+00
   3.2378381E-04   1.2828704E+05   -1.7315805E+00
   3.2527908E-04   1.2726777E+05   -1.7310077E+00
   3.2678125E-04   1.2625694E+05   -1.7304351E+00
   3.2829036E-04   1.2525447E+05   -1.7298627E+00
   3.2980644E-04   1.2426029E+05   -1.7292905E+00
   3.3132952E-04   1.2327432E+05   -1.7287186E+00
   3.3285963E-04   1.2229650E+05   -1.7281468E+00
   3.3439681E-04   1.2132675E+05   -1.7275753E+00
   3.3594109E-04   1.2036501E+05   -1.7270040E+00
   3.3749250E-04   1.1941121E+05   -1.7264330E+00
   3.3905108E-04   1.1846528E+05   -1.7258622E+00
   3.4061685E-04   1.1752715E+05   -1.7252917E+00
   3.4218986E-04   1.1659675E+05   -1.7247214E+00
   3.4377013E-04   1.1567403E+05   -1.7241514E+00
   3.4535769E-04   1.1475891E+05   -1.7235817E+00
   3.4695259E-04   1.1385133E+05   -1.7230122E+00
   3.4855485E-04   1.1295122E+05   -1.7224431E+00
   3.5016452E-04   1.1205852E+05   -1.7218742E+00
   3.5178161E-04   1.1117316E+05   -1.7213056E+00
   3.5340618E-04   1.1029510E+05   -1.7207373E+00
   3.5503824E-04   1.0942425E+05   -1.7201693E+00
   3.5667785E-04   1.0856056E+05   -1.7196016E+00
   3.5832502E-04   1.0770397E+05   -1.7190343E+00
   3.5997981E-04   1.0685442E+05   -1.7184672E+00
   3.6164223E-04   1.0601185E+05   -1.7179005E+00
   3.6331233E-04   1.0517620E+05   -1.7173341E+00
   3.6499015E-04   1.0434740E+05   -1.7167681E+00
   3.6667571E-04   1.0352541E+05   -1.7162024E+00
   3.6836906E-04   1.0271016E+05   -1.7156371E+00
   3.7007022E-04   1.0190159E+05   -1.7150721E+00
   3.7177925E-04   1.0109966E+05   -1.7145075E+00
   3.7349616E-04   1.0030429E+05   -1.7139432E+00
   3.7522101E-04   9.9515443E+04   -1.7133794E+00
   3.7695382E-04   9.8733054E+04   -1.7128159E+00
   3.7869463E-04   9.7957071E+04   -1.7122528E+00
   3.8044348E-04   9.7187438E+04   -1.7116900E+00
   3.8220041E-04   9.6424102E+04   -1.7111277E+00
   3.8396545E-04   9.5667010E+04   -1.7105658E+00
   3.8573864E-04   9.4916107E+04   -1.7100043E+00
   3.8752002E-04   9.4171342E+04   -1.7094432E+00
   3.8930963E-04   9.3432663E+04   -1.7088825E+00
   3.9110750E-04   9.2700016E+04   -1.7083223E+00
   3.9291368E-04   9.1973353E+04   -1.7077624E+00
   3.9472820E-04   9.1252620E+04   -1.7072030E+00
   3.9655109E-04   9.0537769E+04   -1.7066441E+00
   3.9838241E-04   8.9828749E+04   -1.7060856E+00
   4.0022218E-04   8.9125510E+04   -1.7055275E+00
   4.0207045E-04   8.8428005E+04   -1.7049699E+00
   4.0392725E-04   8.7736184E+04   -1.7044128E+00
   4.0579263E-04   8.7049998E+04   -1.7038561E+00
   4.0766662E-04   8.6369401E+04   -1.7032999E+00
   4.0954927E-04   8.5694344E+04   -1.7027442E+00
   4.1144061E-04   8.5024781E+04   -1.7021890E+00
   4.1334068E-04   8.4360665E+04   -1.7016342E+00
   4.1524953E-04   8.3701951E+04   -1.7010800E+00
   4.1716720E-04   8.3048592E+04   -1.7005262E+00
   4.1909372E-04   8.2400543E+04   -1.6999730E+00
   4.2102914E-04   8.1757759E+04   -1.6994202E+00
   4.2297350E-04   8.1120196E+04   -1.6988680E+00
   4.2492683E-04   8.0487809E+04   -1.6983163E+00
   4.2688919E-04   7.9860555E+04   -1.6977651E+00
   4.2886061E-04   7.9238391E+04   -1.6972145E+00
   4.3084113E-04   7.8621273E+04   -1.6966643E+00
   4.3283080E-04   7.8009159E+04   -1.6961148E+00
   4.3482966E-04   7.7402007E+04   -1.6955657E+00
   4.3683775E-04   7.6799774E+04   -1.6950172E+00
   4.3885511E-04   7.6202419E+04   -1.6944693E+00
   4.4088179E-04   7.5609902E+04   -1.6939219E+00
   4.4291783E-04   7.5022180E+04   -1.6933751E+00
   4.4496327E-04   7.4439215E+04   -1.6928289E+00
   4.4701816E-04   7.3860965E+04   -1.6922832E+00
   4.4908253E-04   7.3287391E+04   -1.6917381E+00
   4.5115644E-04   7.2718454E+04   -1.6911936E+00
   4.5323993E-04   7.2154115E+04   -1.6906497E+00
   4.5533304E-04   7.1594335E+04   -1.6901064E+00
   4.5743582E-04   7.1039075E+04   -1.6895637E+00
   4.5954830E-04   7.0488298E+04   -1.6890216E+00
   4.6167054E-04   6.9941965E+04   -1.6884801E+00
   4.6380259E-04   6.9400040E+04   -1.6879392E+00
   4.6594448E-04   6.8862486E+04   -1.6873989E+00
   4.6809626E-04   6.8329265E+04   -1.6868592E+00
   4.7025797E-04   6.7800342E+04   -1.6863202E+00
   4.7242967E-04   6.7275680E+04   -1.6857818E+00
   4.7461140E-04   6.6755243E+04   -1.6852441E+00
   4.7680321E-04   6.6238997E+04   -1.6847069E+00
   4.7900514E-04   6.5726905E+04   -1.6841705E+00
   4.8121723E-04   6.5218933E+04   -1.6836346E+00
   4.8343954E-04   6.4715048E+04   -1.6830995E+00
   4.8567212E-04   6.4215213E+04   -1.6825650E+00
   4.8791500E-04   6.3719396E+04   -1.6820311E+00
   4.9016825E-04   6.3227562E+04   -1.6814979E+00
   4.9243189E-04   6.2739679E+04   -1.6809654E+00
   4.9470600E-04   6.2255713E+04   -1.6804336E+00
   4.9699060E-04   6.1775632E+04   -1.6799024E+00
   4.9928575E-04   6.1299402E+04   -1.6793719E+00
   5.0159151E-04   6.0826993E+04   -1.6788422E+00
   5.0390791E-04   6.0358371E+04   -1.6783131E+00
   5.0623501E-04   5.9893506E+04   -1.6777847E+00
   5.0857286E-04   5.9432365E+04   -1.6772570E+00
   5.1092150E-04   5.8974918E+04   -1.6767300E+00
   5.1328099E-04   5.8521135E+04   -1.6762037E+00
   5.1565137E-04   5.8070983E+04   -1.6756782E+00
   5.1803270E-04   5.7624434E+04   -1.6751533E+00
   5.2042503E-04   5.7181457E+04   -1.6746292E+00
   5.2282841E-04   5.6742022E+04   -1.6741058E+00
   5.2524289E-04   5.6306099E+04   -1.6735832E+00
   5.2766851E-04   5.5873660E+04   -1.6730612E+00
   5.3010534E-04   5.5444676E+04   -1.6725401E+00
   5.3255342E-04   5.5019117E+04   -1.6720196E+00
   5.3501281E-04   5.4596955E+04   -1.6714999E+00
   5.3748356E-04   5.4178162E+04   -1.6709810E+00
   5.3996571E-04   5.3762710E+04   -1.6704628E+00
   5.4245933E-04   5.3350571E+04   -1.6699453E+00
   5.4496446E-04   5.2941718E+04   -1.6694287E+00
   5.4748117E-04   5.2536123E+04   -1.6689128E+00
   5.5000949E-04   5.2133759E+04   -1.6683976E+00
   5.5254949E-04   5.1734600E+04   -1.6678832E+00
   5.5510123E-04   5.1338618E+04   -1.6673697E+00
   5.5766474E-04   5.0945787E+04   -1.6668568E+00
   5.6024010E-04   5.0556082E+04   -1.6663448E+00
   5.6282734E-04   5.0169476E+04   -1.6658336E+00
   5.6542654E-04   4.9785943E+04   -1.6653231E+00
   5.6803774E-04   4.9405459E+04   -1.6648135E+00
   5.7066099E-04   4.9027997E+04   -1.6643046E+00
   5.7329637E-04   4.8653534E+04   -1.6637966E+00
   5.7594391E-04   4.8282043E+04   -1.6632893E+00
   5.7860368E-04   4.7913501E+04   -1.6627829E+00
   5.8127573E-04   4.7547882E+04   -1.6622773E+00
   5.8396012E-04   4.7185164E+04   -1.6617725E+00
   5.8665691E-04   4.6825321E+04   -1.6612685E+00
   5.8936616E-04   4.6468330E+04   -1.6607653E+00
   5.9208791E-04   4.6114168E+04   -1.6602630E+00
   5.9482223E-04   4.5762811E+04   -1.6597614E+00
   5.9756919E-04   4.5414236E+04   -1.6592608E+00
   6.0032882E-04   4.5068420E+04   -1.6587609E+00
   6.0310120E-04   4.4725340E+04   -1.6582619E+00
   6.0588639E-04   4.4384973E+04   -1.6577637E+00
   6.0868443E-04   4.4047298E+04   -1.6572664E+00
   6.1149540E-04   4.3712292E+04   -1.6567700E+00
   6.1431935E-04   4.3379933E+04   -1.6562743E+00
   6.1715634E-04   4.3050200E+04   -1.6557796E+00
   6.2000644E-04   4.2723070E+04   -1.6552857E+00
   6.2286969E-04   4.2398522E+04   -1.6547926E+00
