#        a       HoverH0(a)       dlogHdloga_of_a(a)
   1.0000000E-04   1.1457771E+06   -1.8912526E+00
   1.0046181E-04   1.1358373E+06   -1.8908600E+00
   1.0092575E-04   1.1259858E+06   -1.8904664E+00
   1.0139184E-04   1.1162217E+06   -1.8900717E+00
   1.0186008E-04   1.1065444E+06   -1.8896761E+00
   1.0233048E-04   1.0969529E+06   -1.8892794E+00
   1.0280305E-04   1.0874466E+06   -1.8888817E+00
   1.0327781E-04   1.0780246E+06   -1.8884830E+00
   1.0375475E-04   1.0686863E+06   -1.8880832E+00
   1.0423390E-04   1.0594307E+06   -1.8876825E+00
   1.0471527E-04   1.0502573E+06   -1.8872807E+00
   1.0519885E-04   1.0411653E+06   -1.8868779E+00
   1.0568467E-04   1.0321538E+06   -1.8864741E+00
   1.0617274E-04   1.0232223E+06   -1.8860693E+00
   1.0666305E-04   1.0143700E+06   -1.8856634E+00
   1.0715563E-04   1.0055961E+06   -1.8852565E+00
   1.0765049E-04   9.9689998E+05   -1.8848487E+00
   1.0814763E-04   9.8828092E+05   -1.8844398E+00
   1.0864707E-04   9.7973824E+05   -1.8840299E+00
   1.0914881E-04   9.7127123E+05   -1.8836190E+00
   1.0965287E-04   9.6287922E+05   -1.8832070E+00
   1.1015926E-04   9.5456153E+05   -1.8827941E+00
   1.1066799E-04   9.4631750E+05   -1.8823801E+00
   1.1117906E-04   9.3814646E+05   -1.8819651E+00
   1.1169250E-04   9.3004775E+05   -1.8815492E+00
   1.1220831E-04   9.2202072E+05   -1.8811322E+00
   1.1272650E-04   9.1406473E+05   -1.8807142E+00
   1.1324708E-04   9.0617914E+05   -1.8802952E+00
   1.1377007E-04   8.9836332E+05   -1.8798752E+00
   1.1429547E-04   8.9061663E+05   -1.8794541E+00
   1.1482330E-04   8.8293846E+05   -1.8790321E+00
   1.1535356E-04   8.7532819E+05   -1.8786091E+00
   1.1588628E-04   8.6778520E+05   -1.8781850E+00
   1.1642145E-04   8.6030890E+05   -1.8777600E+00
   1.1695910E-04   8.5289868E+05   -1.8773340E+00
   1.1749923E-04   8.4555395E+05   -1.8769069E+00
   1.1804185E-04   8.3827412E+05   -1.8764789E+00
   1.1858698E-04   8.3105861E+05   -1.8760498E+00
   1.1913463E-04   8.2390684E+05   -1.8756198E+00
   1.1968481E-04   8.1681823E+05   -1.8751888E+00
   1.2023752E-04   8.0979222E+05   -1.8747567E+00
   1.2079279E-04   8.0282825E+05   -1.8743237E+00
   1.2135063E-04   7.9592575E+05   -1.8738897E+00
   1.2191104E-04   7.8908418E+05   -1.8734547E+00
   1.2247403E-04   7.8230299E+05   -1.8730187E+00
   1.2303963E-04   7.7558164E+05   -1.8725817E+00
   1.2360784E-04   7.6891958E+05   -1.8721437E+00
   1.2417868E-04   7.6231628E+05   -1.8717047E+00
   1.2475215E-04   7.5577123E+05   -1.8712648E+00
   1.2532826E-04   7.4928389E+05   -1.8708238E+00
   1.2590704E-04   7.4285374E+05   -1.8703819E+00
   1.2648850E-04   7.3648028E+05   -1.8699390E+00
   1.2707263E-04   7.3016299E+05   -1.8694951E+00
   1.2765947E-04   7.2390138E+05   -1.8690502E+00
   1.2824901E-04   7.1769493E+05   -1.8686044E+00
   1.2884128E-04   7.1154316E+05   -1.8681576E+00
   1.2943628E-04   7.0544557E+05   -1.8677098E+00
   1.3003403E-04   6.9940168E+05   -1.8672610E+00
   1.3063454E-04   6.9341101E+05   -1.8668113E+00
   1.3123783E-04   6.8747307E+05   -1.8663606E+00
   1.3184390E-04   6.8158740E+05   -1.8659089E+00
   1.3245277E-04   6.7575353E+05   -1.8654563E+00
   1.3306445E-04   6.6997099E+05   -1.8650027E+00
   1.3367895E-04   6.6423932E+05   -1.8645481E+00
   1.3429630E-04   6.5855807E+05   -1.8640926E+00
   1.3491649E-04   6.5292678E+05   -1.8636361E+00
   1.3553955E-04   6.4734501E+05   -1.8631787E+00
   1.3616548E-04   6.4181231E+05   -1.8627203E+00
   1.3679431E-04   6.3632824E+05   -1.8622609E+00
   1.3742604E-04   6.3089236E+05   -1.8618006E+00
   1.3806069E-04   6.2550426E+05   -1.8613393E+00
   1.3869827E-04   6.2016348E+05   -1.8608771E+00
   1.3933879E-04   6.1486962E+05   -1.8604140E+00
   1.3998227E-04   6.0962225E+05   -1.8599499E+00
   1.4062872E-04   6.0442096E+05   -1.8594849E+00
   1.4127816E-04   5.9926533E+05   -1.8590189E+00
   1.4193060E-04   5.9415495E+05   -1.8585520E+00
   1.4258605E-04   5.8908942E+05   -1.8580842E+00
   1.4324453E-04   5.8406834E+05   -1.8576154E+00
   1.4390605E-04   5.7909131E+05   -1.8571457E+00
   1.4457062E-04   5.7415793E+05   -1.8566750E+00
   1.4523826E-04   5.6926782E+05   -1.8562035E+00
   1.4590899E-04   5.6442058E+05   -1.8557310E+00
   1.4658281E-04   5.5961584E+05   -1.8552576E+00
   1.4725974E-04   5.5485321E+05   -1.8547833E+00
   1.4793981E-04   5.5013231E+05   -1.8543080E+00
   1.4862301E-04   5.4545278E+05   -1.8538319E+00
   1.4930936E-04   5.4081424E+05   -1.8533548E+00
   1.4999889E-04   5.3621633E+05   -1.8528768E+00
   1.5069160E-04   5.3165867E+05   -1.8523979E+00
   1.5138751E-04   5.2714092E+05   -1.8519181E+00
   1.5208663E-04   5.2266272E+05   -1.8514374E+00
   1.5278899E-04   5.1822371E+05   -1.8509558E+00
   1.5349458E-04   5.1382354E+05   -1.8504733E+00
   1.5420343E-04   5.0946187E+05   -1.8499900E+00
   1.5491556E-04   5.0513835E+05   -1.8495057E+00
   1.5563098E-04   5.0085263E+05   -1.8490205E+00
   1.5634970E-04   4.9660439E+05   -1.8485345E+00
   1.5707174E-04   4.9239329E+05   -1.8480475E+00
   1.5779711E-04   4.8821899E+05   -1.8475597E+00
   1.5852584E-04   4.8408117E+05   -1.8470710E+00
   1.5925792E-04   4.7997950E+05   -1.8465814E+00
   1.5999339E-04   4.7591366E+05   -1.8460910E+00
   1.6073226E-04   4.7188333E+05   -1.8455997E+00
   1.6147454E-04   4.6788819E+05   -1.8451075E+00
   1.6222024E-04   4.6392792E+05   -1.8446144E+00
   1.6296939E-04   4.6000222E+05   -1.8441205E+00
   1.6372200E-04   4.5611078E+05   -1.8436258E+00
   1.6447809E-04   4.5225330E+05   -1.8431302E+00
   1.6523767E-04   4.4842946E+05   -1.8426337E+00
   1.6600075E-04   4.4463897E+05   -1.8421364E+00
   1.6676736E-04   4.4088153E+05   -1.8416382E+00
   1.6753751E-04   4.3715685E+05   -1.8411392E+00
   1.6831122E-04   4.3346463E+05   -1.8406393E+00
   1.6908849E-04   4.2980458E+05   -1.8401387E+00
   1.6986936E-04   4.2617643E+05   -1.8396372E+00
   1.7065384E-04   4.2257988E+05   -1.8391348E+00
   1.7144193E-04   4.1901465E+05   -1.8386316E+00
   1.7223367E-04   4.1548046E+05   -1.8381276E+00
   1.7302906E-04   4.1197704E+05   -1.8376228E+00
   1.7382813E-04   4.0850412E+05   -1.8371172E+00
   1.7463089E-04   4.0506141E+05   -1.8366108E+00
   1.7543735E-04   4.0164866E+05   -1.8361035E+00
   1.7624754E-04   3.9826559E+05   -1.8355955E+00
   1.7706147E-04   3.9491194E+05   -1.8350866E+00
   1.7787916E-04   3.9158746E+05   -1.8345769E+00
   1.7870062E-04   3.8829186E+05   -1.8340665E+00
   1.7952588E-04   3.8502492E+05   -1.8335553E+00
   1.8035495E-04   3.8178635E+05   -1.8330432E+00
   1.8118785E-04   3.7857593E+05   -1.8325304E+00
   1.8202459E-04   3.7539338E+05   -1.8320168E+00
   1.8286520E-04   3.7223847E+05   -1.8315024E+00
   1.8370969E-04   3.6911096E+05   -1.8309873E+00
   1.8455808E-04   3.6601059E+05   -1.8304714E+00
   1.8541039E-04   3.6293712E+05   -1.8299547E+00
   1.8626663E-04   3.5989032E+05   -1.8294372E+00
   1.8712683E-04   3.5686995E+05   -1.8289190E+00
   1.8799100E-04   3.5387578E+05   -1.8284001E+00
   1.8885917E-04   3.5090756E+05   -1.8278804E+00
   1.8973134E-04   3.4796508E+05   -1.8273599E+00
   1.9060754E-04   3.4504809E+05   -1.8268387E+00
   1.9148778E-04   3.4215638E+05   -1.8263168E+00
   1.9237209E-04   3.3928973E+05   -1.8257941E+00
   1.9326049E-04   3.3644790E+05   -1.8252707E+00
   1.9415299E-04   3.3363067E+05   -1.8247465E+00
   1.9504960E-04   3.3083784E+05   -1.8242217E+00
   1.9595036E-04   3.2806918E+05   -1.8236961E+00
   1.9685528E-04   3.2532448E+05   -1.8231698E+00
   1.9776438E-04   3.2260353E+05   -1.8226428E+00
   1.9867768E-04   3.1990611E+05   -1.8221151E+00
   1.9959519E-04   3.1723201E+05   -1.8215867E+00
   2.0051694E-04   3.1458104E+05   -1.8210576E+00
   2.0144295E-04   3.1195297E+05   -1.8205278E+00
   2.0237324E-04   3.0934762E+05   -1.8199973E+00
   2.0330782E-04   3.0676478E+05   -1.8194662E+00
   2.0424671E-04   3.0420425E+05   -1.8189343E+00
   2.0518995E-04   3.0166583E+05   -1.8184018E+00
   2.0613754E-04   2.9914933E+05   -1.8178686E+00
   2.0708950E-04   2.9665455E+05   -1.8173347E+00
   2.0804586E-04   2.9418130E+05   -1.8168002E+00
   2.0900664E-04   2.9172939E+05   -1.8162650E+00
   2.0997185E-04   2.8929862E+05   -1.8157291E+00
   2.1094152E-04   2.8688882E+05   -1.8151926E+00
   2.1191567E-04   2.8449980E+05   -1.8146555E+00
   2.1289432E-04   2.8213137E+05   -1.8141177E+00
   2.1387749E-04   2.7978335E+05   -1.8135793E+00
   2.1486520E-04   2.7745556E+05   -1.8130402E+00
   2.1585747E-04   2.7514782E+05   -1.8125006E+00
   2.1685432E-04   2.7285995E+05   -1.8119603E+00
   2.1785578E-04   2.7059179E+05   -1.8114193E+00
   2.1886186E-04   2.6834314E+05   -1.8108778E+00
   2.1987259E-04   2.6611385E+05   -1.8103357E+00
   2.2088798E-04   2.6390373E+05   -1.8097929E+00
   2.2190807E-04   2.6171263E+05   -1.8092496E+00
   2.2293286E-04   2.5954037E+05   -1.8087056E+00
   2.2396239E-04   2.5738678E+05   -1.8081611E+00
   2.2499667E-04   2.5525171E+05   -1.8076160E+00
   2.2603573E-04   2.5313498E+05   -1.8070703E+00
   2.2707958E-04   2.5103644E+05   -1.8065241E+00
   2.2812826E-04   2.4895592E+05   -1.8059772E+00
   2.2918178E-04   2.4689326E+05   -1.8054298E+00
   2.3024017E-04   2.4484831E+05   -1.8048819E+00
   2.3130344E-04   2.4282092E+05   -1.8043333E+00
   2.3237162E-04   2.4081092E+05   -1.8037843E+00
   2.3344474E-04   2.3881816E+05   -1.8032347E+00
   2.3452281E-04   2.3684250E+05   -1.8026845E+00
   2.3560586E-04   2.3488377E+05   -1.8021338E+00
   2.3669392E-04   2.3294183E+05   -1.8015826E+00
   2.3778699E-04   2.3101654E+05   -1.8010309E+00
   2.3888512E-04   2.2910774E+05   -1.8004786E+00
   2.3998831E-04   2.2721529E+05   -1.7999259E+00
   2.4109661E-04   2.2533905E+05   -1.7993726E+00
   2.4221001E-04   2.2347887E+05   -1.7988188E+00
   2.4332857E-04   2.2163461E+05   -1.7982645E+00
   2.4445228E-04   2.1980613E+05   -1.7977097E+00
   2.4558119E-04   2.1799330E+05   -1.7971545E+00
   2.4671531E-04   2.1619597E+05   -1.7965987E+00
   2.4785467E-04   2.1441401E+05   -1.7960425E+00
   2.4899928E-04   2.1264728E+05   -1.7954858E+00
   2.5014919E-04   2.1089565E+05   -1.7949286E+00
   2.5130440E-04   2.0915899E+05   -1.7943710E+00
   2.5246495E-04   2.0743716E+05   -1.7938129E+00
   2.5363086E-04   2.0573003E+05   -1.7932544E+00
   2.5480216E-04   2.0403748E+05   -1.7926954E+00
   2.5597886E-04   2.0235937E+05   -1.7921360E+00
   2.5716100E-04   2.0069558E+05   -1.7915761E+00
   2.5834859E-04   1.9904599E+05   -1.7910158E+00
   2.5954168E-04   1.9741046E+05   -1.7904551E+00
   2.6074027E-04   1.9578888E+05   -1.7898940E+00
   2.6194439E-04   1.9418112E+05   -1.7893324E+00
   2.6315408E-04   1.9258707E+05   -1.7887705E+00
   2.6436935E-04   1.9100659E+05   -1.7882081E+00
   2.6559024E-04   1.8943957E+05   -1.7876454E+00
   2.6681676E-04   1.8788590E+05   -1.7870822E+00
   2.6804895E-04   1.8634545E+05   -1.7865187E+00
   2.6928683E-04   1.8481812E+05   -1.7859548E+00
   2.7053042E-04   1.8330378E+05   -1.7853905E+00
   2.7177976E-04   1.8180231E+05   -1.7848259E+00
   2.7303487E-04   1.8031362E+05   -1.7842608E+00
   2.7429577E-04   1.7883758E+05   -1.7836955E+00
   2.7556250E-04   1.7737409E+05   -1.7831297E+00
   2.7683507E-04   1.7592303E+05   -1.7825637E+00
   2.7811353E-04   1.7448430E+05   -1.7819973E+00
   2.7939788E-04   1.7305779E+05   -1.7814305E+00
   2.8068817E-04   1.7164339E+05   -1.7808635E+00
   2.8198442E-04   1.7024099E+05   -1.7802961E+00
   2.8328665E-04   1.6885049E+05   -1.7797283E+00
   2.8459490E-04   1.6747179E+05   -1.7791603E+00
   2.8590919E-04   1.6610478E+05   -1.7785920E+00
   2.8722955E-04   1.6474936E+05   -1.7780234E+00
   2.8855600E-04   1.6340543E+05   -1.7774544E+00
   2.8988859E-04   1.6207288E+05   -1.7768852E+00
   2.9122732E-04   1.6075163E+05   -1.7763157E+00
   2.9257224E-04   1.5944156E+05   -1.7757459E+00
   2.9392337E-04   1.5814259E+05   -1.7751759E+00
   2.9528074E-04   1.5685461E+05   -1.7746056E+00
   2.9664438E-04   1.5557753E+05   -1.7740350E+00
   2.9801431E-04   1.5431125E+05   -1.7734642E+00
   2.9939057E-04   1.5305569E+05   -1.7728931E+00
   3.0077319E-04   1.5181073E+05   -1.7723218E+00
   3.0216219E-04   1.5057630E+05   -1.7717503E+00
   3.0355761E-04   1.4935231E+05   -1.7711785E+00
   3.0495947E-04   1.4813865E+05   -1.7706065E+00
   3.0636780E-04   1.4693524E+05   -1.7700343E+00
   3.0778264E-04   1.4574199E+05   -1.7694618E+00
   3.0920401E-04   1.4455881E+05   -1.7688892E+00
   3.1063195E-04   1.4338562E+05   -1.7683164E+00
   3.1206648E-04   1.4222232E+05   -1.7677433E+00
   3.1350764E-04   1.4106884E+05   -1.7671701E+00
   3.1495545E-04   1.3992508E+05   -1.7665967E+00
   3.1640994E-04   1.3879096E+05   -1.7660231E+00
   3.1787116E-04   1.3766639E+05   -1.7654494E+00
   3.1933912E-04   1.3655130E+05   -1.7648755E+00
   3.2081386E-04   1.3544560E+05   -1.7643014E+00
   3.2229541E-04   1.3434921E+05   -1.7637272E+00
   3.2378381E-04   1.3326204E+05   -1.7631528E+00
   3.2527908E-04   1.3218402E+05   -1.7625783E+00
   3.2678125E-04   1.3111507E+05   -1.7620037E+00
   3.2829036E-04   1.3005511E+05   -1.7614289E+00
   3.2980644E-04   1.2900406E+05   -1.7608540E+00
   3.3132952E-04   1.2796184E+05   -1.7602790E+00
   3.3285963E-04   1.2692838E+05   -1.7597039E+00
   3.3439681E-04   1.2590360E+05   -1.7591286E+00
   3.3594109E-04   1.2488742E+05   -1.7585533E+00
   3.3749250E-04   1.2387978E+05   -1.7579779E+00
   3.3905108E-04   1.2288059E+05   -1.7574024E+00
   3.4061685E-04   1.2188978E+05   -1.7568269E+00
   3.4218986E-04   1.2090728E+05   -1.7562512E+00
   3.4377013E-04   1.1993302E+05   -1.7556755E+00
   3.4535769E-04   1.1896693E+05   -1.7550997E+00
   3.4695259E-04   1.1800893E+05   -1.7545239E+00
   3.4855485E-04   1.1705895E+05   -1.7539480E+00
   3.5016452E-04   1.1611693E+05   -1.7533721E+00
   3.5178161E-04   1.1518280E+05   -1.7527961E+00
   3.5340618E-04   1.1425649E+05   -1.7522201E+00
   3.5503824E-04   1.1333792E+05   -1.7516441E+00
   3.5667785E-04   1.1242704E+05   -1.7510681E+00
   3.5832502E-04   1.1152378E+05   -1.7504921E+00
   3.5997981E-04   1.1062806E+05   -1.7499160E+00
   3.6164223E-04   1.0973984E+05   -1.7493400E+00
   3.6331233E-04   1.0885903E+05   -1.7487639E+00
   3.6499015E-04   1.0798558E+05   -1.7481879E+00
   3.6667571E-04   1.0711942E+05   -1.7476119E+00
   3.6836906E-04   1.0626049E+05   -1.7470359E+00
   3.7007022E-04   1.0540873E+05   -1.7464599E+00
   3.7177925E-04   1.0456407E+05   -1.7458840E+00
   3.7349616E-04   1.0372646E+05   -1.7453081E+00
   3.7522101E-04   1.0289582E+05   -1.7447323E+00
   3.7695382E-04   1.0207212E+05   -1.7441565E+00
   3.7869463E-04   1.0125527E+05   -1.7435808E+00
   3.8044348E-04   1.0044523E+05   -1.7430052E+00
   3.8220041E-04   9.9641929E+04   -1.7424296E+00
   3.8396545E-04   9.8845317E+04   -1.7418541E+00
   3.8573864E-04   9.8055334E+04   -1.7412787E+00
   3.8752002E-04   9.7271923E+04   -1.7407034E+00
   3.8930963E-04   9.6495026E+04   -1.7401282E+00
   3.9110750E-04   9.5724588E+04   -1.7395531E+00
   3.9291368E-04   9.4960553E+04   -1.7389780E+00
   3.9472820E-04   9.4202866E+04   -1.7384032E+00
   3.9655109E-04   9.3451471E+04   -1.7378284E+00
   3.9838241E-04   9.2706316E+04   -1.7372538E+00
   4.0022218E-04   9.1967345E+04   -1.7366793E+00
   4.0207045E-04   9.1234507E+04   -1.7361049E+00
   4.0392725E-04   9.0507748E+04   -1.7355307E+00
   4.0579263E-04   8.9787016E+04   -1.7349566E+00
   4.0766662E-04   8.9072258E+04   -1.7343827E+00
   4.0954927E-04   8.8363424E+04   -1.7338090E+00
   4.1144061E-04   8.7660462E+04   -1.7332354E+00
   4.1334068E-04   8.6963323E+04   -1.7326620E+00
   4.1524953E-04   8.6271955E+04   -1.7320888E+00
   4.1716720E-04   8.5586310E+04   -1.7315157E+00
   4.1909372E-04   8.4906339E+04   -1.7309429E+00
   4.2102914E-04   8.4231991E+04   -1.7303703E+00
   4.2297350E-04   8.3563220E+04   -1.7297979E+00
   4.2492683E-04   8.2899978E+04   -1.7292256E+00
   4.2688919E-04   8.2242216E+04   -1.7286536E+00
   4.2886061E-04   8.1589889E+04   -1.7280819E+00
   4.3084113E-04   8.0942949E+04   -1.7275103E+00
   4.3283080E-04   8.0301350E+04   -1.7269390E+00
   4.3482966E-04   7.9665046E+04   -1.7263680E+00
   4.3683775E-04   7.9033992E+04   -1.7257971E+00
   4.3885511E-04   7.8408143E+04   -1.7252266E+00
   4.4088179E-04   7.7787454E+04   -1.7246563E+00
   4.4291783E-04   7.7171882E+04   -1.7240862E+00
   4.4496327E-04   7.6561382E+04   -1.7235165E+00
   4.4701816E-04   7.5955911E+04   -1.7229470E+00
   4.4908253E-04   7.5355426E+04   -1.7223778E+00
   4.5115644E-04   7.4759884E+04   -1.7218089E+00
   4.5323993E-04   7.4169243E+04   -1.7212402E+00
   4.5533304E-04   7.3583461E+04   -1.7206719E+00
   4.5743582E-04   7.3002497E+04   -1.7201039E+00
   4.5954830E-04   7.2426310E+04   -1.7195362E+00
   4.6167054E-04   7.1854857E+04   -1.7189688E+00
   4.6380259E-04   7.1288100E+04   -1.7184017E+00
   4.6594448E-04   7.0725998E+04   -1.7178350E+00
   4.6809626E-04   7.0168512E+04   -1.7172686E+00
   4.7025797E-04   6.9615601E+04   -1.7167025E+00
   4.7242967E-04   6.9067227E+04   -1.7161368E+00
   4.7461140E-04   6.8523351E+04   -1.7155715E+00
   4.7680321E-04   6.7983935E+04   -1.7150065E+00
   4.7900514E-04   6.7448941E+04   -1.7144418E+00
   4.8121723E-04   6.6918331E+04   -1.7138775E+00
   4.8343954E-04   6.6392068E+04   -1.7133136E+00
   4.8567212E-04   6.5870115E+04   -1.7127501E+00
   4.8791500E-04   6.5352434E+04   -1.7121870E+00
   4.9016825E-04   6.4838991E+04   -1.7116243E+00
   4.9243189E-04   6.4329748E+04   -1.7110619E+00
   4.9470600E-04   6.3824669E+04   -1.7105000E+00
   4.9699060E-04   6.3323721E+04   -1.7099384E+00
   4.9928575E-04   6.2826866E+04   -1.7093773E+00
   5.0159151E-04   6.2334071E+04   -1.7088166E+00
   5.0390791E-04   6.1845301E+04   -1.7082563E+00
   5.0623501E-04   6.1360522E+04   -1.7076965E+00
   5.0857286E-04   6.0879700E+04   -1.7071371E+00
   5.1092150E-04   6.0402802E+04   -1.7065781E+00
   5.1328099E-04   5.9929793E+04   -1.7060196E+00
   5.1565137E-04   5.9460642E+04   -1.7054615E+00
   5.1803270E-04   5.8995315E+04   -1.7049039E+00
   5.2042503E-04   5.8533779E+04   -1.7043467E+00
   5.2282841E-04   5.8076004E+04   -1.7037900E+00
   5.2524289E-04   5.7621956E+04   -1.7032338E+00
   5.2766851E-04   5.7171605E+04   -1.7026780E+00
   5.3010534E-04   5.6724918E+04   -1.7021228E+00
   5.3255342E-04   5.6281865E+04   -1.7015680E+00
   5.3501281E-04   5.5842416E+04   -1.7010137E+00
   5.3748356E-04   5.5406539E+04   -1.7004600E+00
   5.3996571E-04   5.4974205E+04   -1.6999067E+00
   5.4245933E-04   5.4545383E+04   -1.6993539E+00
   5.4496446E-04   5.4120044E+04   -1.6988017E+00
   5.4748117E-04   5.3698158E+04   -1.6982500E+00
   5.5000949E-04   5.3279697E+04   -1.6976988E+00
   5.5254949E-04   5.2864630E+04   -1.6971481E+00
   5.5510123E-04   5.2452930E+04   -1.6965979E+00
   5.5766474E-04   5.2044568E+04   -1.6960483E+00
   5.6024010E-04   5.1639517E+04   -1.6954993E+00
   5.6282734E-04   5.1237747E+04   -1.6949508E+00
   5.6542654E-04   5.0839231E+04   -1.6944028E+00
   5.6803774E-04   5.0443942E+04   -1.6938554E+00
   5.7066099E-04   5.0051853E+04   -1.6933086E+00
   5.7329637E-04   4.9662936E+04   -1.6927624E+00
   5.7594391E-04   4.9277166E+04   -1.6922167E+00
   5.7860368E-04   4.8894515E+04   -1.6916716E+00
   5.8127573E-04   4.8514957E+04   -1.6911271E+00
   5.8396012E-04   4.8138466E+04   -1.6905831E+00
   5.8665691E-04   4.7765017E+04   -1.6900398E+00
   5.8936616E-04   4.7394583E+04   -1.6894970E+00
   5.9208791E-04   4.7027140E+04   -1.6889549E+00
   5.9482223E-04   4.6662662E+04   -1.6884134E+00
   5.9756919E-04   4.6301124E+04   -1.6878725E+00
   6.0032882E-04   4.5942502E+04   -1.6873322E+00
   6.0310120E-04   4.5586771E+04   -1.6867925E+00
   6.0588639E-04   4.5233906E+04   -1.6862535E+00
   6.0868443E-04   4.4883885E+04   -1.6857150E+00
   6.1149540E-04   4.4536682E+04   -1.6851773E+00
   6.1431935E-04   4.4192275E+04   -1.6846401E+00
   6.1715634E-04   4.3850639E+04   -1.6841036E+00
   6.2000644E-04   4.3511752E+04   -1.6835678E+00
   6.2286969E-04   4.3175591E+04   -1.6830326E+00
