#        a       HoverH0(a)       dlogHdloga_of_a(a)
   1.0000000E-04   1.1610157E+06   -1.8628417E+00
   1.0046181E-04   1.1510945E+06   -1.8623827E+00
   1.0092575E-04   1.1412606E+06   -1.8619226E+00
   1.0139184E-04   1.1315131E+06   -1.8614616E+00
   1.0186008E-04   1.1218512E+06   -1.8609997E+00
   1.0233048E-04   1.1122742E+06   -1.8605368E+00
   1.0280305E-04   1.1027813E+06   -1.8600730E+00
   1.0327781E-04   1.0933717E+06   -1.8596082E+00
   1.0375475E-04   1.0840448E+06   -1.8591425E+00
   1.0423390E-04   1.0747997E+06   -1.8586759E+00
   1.0471527E-04   1.0656358E+06   -1.8582083E+00
   1.0519885E-04   1.0565523E+06   -1.8577398E+00
   1.0568467E-04   1.0475485E+06   -1.8572703E+00
   1.0617274E-04   1.0386236E+06   -1.8567999E+00
   1.0666305E-04   1.0297771E+06   -1.8563286E+00
   1.0715563E-04   1.0210081E+06   -1.8558564E+00
   1.0765049E-04   1.0123160E+06   -1.8553832E+00
   1.0814763E-04   1.0037000E+06   -1.8549092E+00
   1.0864707E-04   9.9515960E+05   -1.8544342E+00
   1.0914881E-04   9.8669400E+05   -1.8539583E+00
   1.0965287E-04   9.7830257E+05   -1.8534815E+00
   1.1015926E-04   9.6998464E+05   -1.8530037E+00
   1.1066799E-04   9.6173954E+05   -1.8525251E+00
   1.1117906E-04   9.5356664E+05   -1.8520456E+00
   1.1169250E-04   9.4546528E+05   -1.8515651E+00
   1.1220831E-04   9.3743482E+05   -1.8510838E+00
   1.1272650E-04   9.2947464E+05   -1.8506015E+00
   1.1324708E-04   9.2158410E+05   -1.8501184E+00
   1.1377007E-04   9.1376258E+05   -1.8496344E+00
   1.1429547E-04   9.0600947E+05   -1.8491495E+00
   1.1482330E-04   8.9832415E+05   -1.8486636E+00
   1.1535356E-04   8.9070601E+05   -1.8481770E+00
   1.1588628E-04   8.8315447E+05   -1.8476894E+00
   1.1642145E-04   8.7566891E+05   -1.8472009E+00
   1.1695910E-04   8.6824876E+05   -1.8467116E+00
   1.1749923E-04   8.6089342E+05   -1.8462214E+00
   1.1804185E-04   8.5360233E+05   -1.8457303E+00
   1.1858698E-04   8.4637490E+05   -1.8452384E+00
   1.1913463E-04   8.3921057E+05   -1.8447456E+00
   1.1968481E-04   8.3210877E+05   -1.8442519E+00
   1.2023752E-04   8.2506895E+05   -1.8437574E+00
   1.2079279E-04   8.1809056E+05   -1.8432621E+00
   1.2135063E-04   8.1117305E+05   -1.8427658E+00
   1.2191104E-04   8.0431586E+05   -1.8422687E+00
   1.2247403E-04   7.9751847E+05   -1.8417708E+00
   1.2303963E-04   7.9078034E+05   -1.8412721E+00
   1.2360784E-04   7.8410095E+05   -1.8407724E+00
   1.2417868E-04   7.7747976E+05   -1.8402720E+00
   1.2475215E-04   7.7091627E+05   -1.8397707E+00
   1.2532826E-04   7.6440995E+05   -1.8392686E+00
   1.2590704E-04   7.5796029E+05   -1.8387657E+00
   1.2648850E-04   7.5156680E+05   -1.8382619E+00
   1.2707263E-04   7.4522897E+05   -1.8377574E+00
   1.2765947E-04   7.3894630E+05   -1.8372520E+00
   1.2824901E-04   7.3271831E+05   -1.8367458E+00
   1.2884128E-04   7.2654451E+05   -1.8362387E+00
   1.2943628E-04   7.2042441E+05   -1.8357309E+00
   1.3003403E-04   7.1435753E+05   -1.8352223E+00
   1.3063454E-04   7.0834341E+05   -1.8347129E+00
   1.3123783E-04   7.0238157E+05   -1.8342026E+00
   1.3184390E-04   6.9647154E+05   -1.8336916E+00
   1.3245277E-04   6.9061288E+05   -1.8331798E+00
   1.3306445E-04   6.8480511E+05   -1.8326672E+00
   1.3367895E-04   6.7904778E+05   -1.8321538E+00
   1.3429630E-04   6.7334046E+05   -1.8316397E+00
   1.3491649E-04   6.6768268E+05   -1.8311248E+00
   1.3553955E-04   6.6207402E+05   -1.8306091E+00
   1.3616548E-04   6.5651403E+05   -1.8300926E+00
   1.3679431E-04   6.5100229E+05   -1.8295754E+00
   1.3742604E-04   6.4553836E+05   -1.8290574E+00
   1.3806069E-04   6.4012181E+05   -1.8285387E+00
   1.3869827E-04   6.3475224E+05   -1.8280192E+00
   1.3933879E-04   6.2942921E+05   -1.8274989E+00
   1.3998227E-04   6.2415232E+05   -1.8269780E+00
   1.4062872E-04   6.1892115E+05   -1.8264562E+00
   1.4127816E-04   6.1373531E+05   -1.8259338E+00
   1.4193060E-04   6.0859438E+05   -1.8254106E+00
   1.4258605E-04   6.0349797E+05   -1.8248867E+00
   1.4324453E-04   5.9844568E+05   -1.8243620E+00
   1.4390605E-04   5.9343713E+05   -1.8238367E+00
   1.4457062E-04   5.8847192E+05   -1.8233106E+00
   1.4523826E-04   5.8354967E+05   -1.8227838E+00
   1.4590899E-04   5.7866999E+05   -1.8222563E+00
   1.4658281E-04   5.7383252E+05   -1.8217281E+00
   1.4725974E-04   5.6903687E+05   -1.8211992E+00
   1.4793981E-04   5.6428267E+05   -1.8206696E+00
   1.4862301E-04   5.5956956E+05   -1.8201393E+00
   1.4930936E-04   5.5489718E+05   -1.8196084E+00
   1.4999889E-04   5.5026515E+05   -1.8190767E+00
   1.5069160E-04   5.4567313E+05   -1.8185444E+00
   1.5138751E-04   5.4112076E+05   -1.8180114E+00
   1.5208663E-04   5.3660768E+05   -1.8174777E+00
   1.5278899E-04   5.3213355E+05   -1.8169434E+00
   1.5349458E-04   5.2769803E+05   -1.8164084E+00
   1.5420343E-04   5.2330078E+05   -1.8158727E+00
   1.5491556E-04   5.1894144E+05   -1.8153364E+00
   1.5563098E-04   5.1461969E+05   -1.8147995E+00
   1.5634970E-04   5.1033520E+05   -1.8142619E+00
   1.5707174E-04   5.0608763E+05   -1.8137237E+00
   1.5779711E-04   5.0187666E+05   -1.8131848E+00
   1.5852584E-04   4.9770197E+05   -1.8126453E+00
   1.5925792E-04   4.9356323E+05   -1.8121052E+00
   1.5999339E-04   4.8946012E+05   -1.8115645E+00
   1.6073226E-04   4.8539233E+05   -1.8110231E+00
   1.6147454E-04   4.8135955E+05   -1.8104812E+00
   1.6222024E-04   4.7736147E+05   -1.8099386E+00
   1.6296939E-04   4.7339778E+05   -1.8093955E+00
   1.6372200E-04   4.6946818E+05   -1.8088517E+00
   1.6447809E-04   4.6557236E+05   -1.8083074E+00
   1.6523767E-04   4.6171004E+05   -1.8077625E+00
   1.6600075E-04   4.5788090E+05   -1.8072170E+00
   1.6676736E-04   4.5408466E+05   -1.8066709E+00
   1.6753751E-04   4.5032103E+05   -1.8061242E+00
   1.6831122E-04   4.4658972E+05   -1.8055770E+00
   1.6908849E-04   4.4289044E+05   -1.8050292E+00
   1.6986936E-04   4.3922292E+05   -1.8044809E+00
   1.7065384E-04   4.3558686E+05   -1.8039320E+00
   1.7144193E-04   4.3198200E+05   -1.8033825E+00
   1.7223367E-04   4.2840806E+05   -1.8028326E+00
   1.7302906E-04   4.2486477E+05   -1.8022821E+00
   1.7382813E-04   4.2135185E+05   -1.8017310E+00
   1.7463089E-04   4.1786903E+05   -1.8011794E+00
   1.7543735E-04   4.1441606E+05   -1.8006274E+00
   1.7624754E-04   4.1099267E+05   -1.8000748E+00
   1.7706147E-04   4.0759860E+05   -1.7995216E+00
   1.7787916E-04   4.0423358E+05   -1.7989680E+00
   1.7870062E-04   4.0089737E+05   -1.7984139E+00
   1.7952588E-04   3.9758971E+05   -1.7978593E+00
   1.8035495E-04   3.9431035E+05   -1.7973042E+00
   1.8118785E-04   3.9105903E+05   -1.7967486E+00
   1.8202459E-04   3.8783552E+05   -1.7961925E+00
   1.8286520E-04   3.8463957E+05   -1.7956360E+00
   1.8370969E-04   3.8147093E+05   -1.7950790E+00
   1.8455808E-04   3.7832937E+05   -1.7945215E+00
   1.8541039E-04   3.7521464E+05   -1.7939635E+00
   1.8626663E-04   3.7212651E+05   -1.7934052E+00
   1.8712683E-04   3.6906475E+05   -1.7928463E+00
   1.8799100E-04   3.6602912E+05   -1.7922871E+00
   1.8885917E-04   3.6301940E+05   -1.7917273E+00
   1.8973134E-04   3.6003535E+05   -1.7911672E+00
   1.9060754E-04   3.5707675E+05   -1.7906066E+00
   1.9148778E-04   3.5414338E+05   -1.7900457E+00
   1.9237209E-04   3.5123502E+05   -1.7894842E+00
   1.9326049E-04   3.4835144E+05   -1.7889224E+00
   1.9415299E-04   3.4549243E+05   -1.7883602E+00
   1.9504960E-04   3.4265778E+05   -1.7877976E+00
   1.9595036E-04   3.3984726E+05   -1.7872346E+00
   1.9685528E-04   3.3706067E+05   -1.7866712E+00
   1.9776438E-04   3.3429780E+05   -1.7861074E+00
   1.9867768E-04   3.3155843E+05   -1.7855433E+00
   1.9959519E-04   3.2884237E+05   -1.7849788E+00
   2.0051694E-04   3.2614941E+05   -1.7844139E+00
   2.0144295E-04   3.2347934E+05   -1.7838487E+00
   2.0237324E-04   3.2083196E+05   -1.7832831E+00
   2.0330782E-04   3.1820708E+05   -1.7827171E+00
   2.0424671E-04   3.1560450E+05   -1.7821508E+00
   2.0518995E-04   3.1302403E+05   -1.7815842E+00
   2.0613754E-04   3.1046546E+05   -1.7810173E+00
   2.0708950E-04   3.0792861E+05   -1.7804500E+00
   2.0804586E-04   3.0541329E+05   -1.7798824E+00
   2.0900664E-04   3.0291931E+05   -1.7793145E+00
   2.0997185E-04   3.0044647E+05   -1.7787463E+00
   2.1094152E-04   2.9799461E+05   -1.7781778E+00
   2.1191567E-04   2.9556353E+05   -1.7776090E+00
   2.1289432E-04   2.9315305E+05   -1.7770399E+00
   2.1387749E-04   2.9076299E+05   -1.7764705E+00
   2.1486520E-04   2.8839318E+05   -1.7759008E+00
   2.1585747E-04   2.8604343E+05   -1.7753309E+00
   2.1685432E-04   2.8371357E+05   -1.7747607E+00
   2.1785578E-04   2.8140342E+05   -1.7741902E+00
   2.1886186E-04   2.7911282E+05   -1.7736195E+00
   2.1987259E-04   2.7684160E+05   -1.7730486E+00
   2.2088798E-04   2.7458958E+05   -1.7724774E+00
   2.2190807E-04   2.7235659E+05   -1.7719059E+00
   2.2293286E-04   2.7014248E+05   -1.7713342E+00
   2.2396239E-04   2.6794707E+05   -1.7707623E+00
   2.2499667E-04   2.6577020E+05   -1.7701902E+00
   2.2603573E-04   2.6361172E+05   -1.7696179E+00
   2.2707958E-04   2.6147145E+05   -1.7690453E+00
   2.2812826E-04   2.5934925E+05   -1.7684726E+00
   2.2918178E-04   2.5724494E+05   -1.7678997E+00
   2.3024017E-04   2.5515839E+05   -1.7673265E+00
   2.3130344E-04   2.5308943E+05   -1.7667532E+00
   2.3237162E-04   2.5103791E+05   -1.7661797E+00
   2.3344474E-04   2.4900367E+05   -1.7656061E+00
   2.3452281E-04   2.4698658E+05   -1.7650323E+00
   2.3560586E-04   2.4498647E+05   -1.7644583E+00
   2.3669392E-04   2.4300320E+05   -1.7638841E+00
   2.3778699E-04   2.4103662E+05   -1.7633099E+00
   2.3888512E-04   2.3908659E+05   -1.7627354E+00
   2.3998831E-04   2.3715297E+05   -1.7621609E+00
   2.4109661E-04   2.3523560E+05   -1.7615862E+00
   2.4221001E-04   2.3333436E+05   -1.7610114E+00
   2.4332857E-04   2.3144909E+05   -1.7604364E+00
   2.4445228E-04   2.2957967E+05   -1.7598614E+00
   2.4558119E-04   2.2772594E+05   -1.7592863E+00
   2.4671531E-04   2.2588779E+05   -1.7587110E+00
   2.4785467E-04   2.2406506E+05   -1.7581357E+00
   2.4899928E-04   2.2225764E+05   -1.7575602E+00
   2.5014919E-04   2.2046537E+05   -1.7569847E+00
   2.5130440E-04   2.1868814E+05   -1.7564092E+00
   2.5246495E-04   2.1692582E+05   -1.7558335E+00
   2.5363086E-04   2.1517826E+05   -1.7552578E+00
   2.5480216E-04   2.1344535E+05   -1.7546820E+00
   2.5597886E-04   2.1172696E+05   -1.7541062E+00
   2.5716100E-04   2.1002295E+05   -1.7535304E+00
   2.5834859E-04   2.0833322E+05   -1.7529545E+00
   2.5954168E-04   2.0665763E+05   -1.7523785E+00
   2.6074027E-04   2.0499605E+05   -1.7518026E+00
   2.6194439E-04   2.0334838E+05   -1.7512266E+00
   2.6315408E-04   2.0171449E+05   -1.7506506E+00
   2.6436935E-04   2.0009425E+05   -1.7500746E+00
   2.6559024E-04   1.9848756E+05   -1.7494986E+00
   2.6681676E-04   1.9689429E+05   -1.7489226E+00
   2.6804895E-04   1.9531433E+05   -1.7483467E+00
   2.6928683E-04   1.9374756E+05   -1.7477707E+00
   2.7053042E-04   1.9219387E+05   -1.7471948E+00
   2.7177976E-04   1.9065314E+05   -1.7466188E+00
   2.7303487E-04   1.8912527E+05   -1.7460430E+00
   2.7429577E-04   1.8761013E+05   -1.7454671E+00
   2.7556250E-04   1.8610764E+05   -1.7448913E+00
   2.7683507E-04   1.8461766E+05   -1.7443156E+00
   2.7811353E-04   1.8314010E+05   -1.7437399E+00
   2.7939788E-04   1.8167484E+05   -1.7431643E+00
   2.8068817E-04   1.8022179E+05   -1.7425888E+00
   2.8198442E-04   1.7878083E+05   -1.7420133E+00
   2.8328665E-04   1.7735186E+05   -1.7414380E+00
   2.8459490E-04   1.7593478E+05   -1.7408627E+00
   2.8590919E-04   1.7452949E+05   -1.7402875E+00
   2.8722955E-04   1.7313588E+05   -1.7397124E+00
   2.8855600E-04   1.7175385E+05   -1.7391374E+00
   2.8988859E-04   1.7038331E+05   -1.7385626E+00
   2.9122732E-04   1.6902415E+05   -1.7379878E+00
   2.9257224E-04   1.6767628E+05   -1.7374132E+00
   2.9392337E-04   1.6633959E+05   -1.7368388E+00
   2.9528074E-04   1.6501400E+05   -1.7362644E+00
   2.9664438E-04   1.6369940E+05   -1.7356902E+00
   2.9801431E-04   1.6239571E+05   -1.7351162E+00
   2.9939057E-04   1.6110283E+05   -1.7345423E+00
   3.0077319E-04   1.5982066E+05   -1.7339686E+00
   3.0216219E-04   1.5854911E+05   -1.7333950E+00
   3.0355761E-04   1.5728810E+05   -1.7328216E+00
   3.0495947E-04   1.5603753E+05   -1.7322484E+00
   3.0636780E-04   1.5479731E+05   -1.7316754E+00
   3.0778264E-04   1.5356735E+05   -1.7311026E+00
   3.0920401E-04   1.5234757E+05   -1.7305300E+00
   3.1063195E-04   1.5113788E+05   -1.7299576E+00
   3.1206648E-04   1.4993818E+05   -1.7293853E+00
   3.1350764E-04   1.4874840E+05   -1.7288134E+00
   3.1495545E-04   1.4756845E+05   -1.7282416E+00
   3.1640994E-04   1.4639825E+05   -1.7276701E+00
   3.1787116E-04   1.4523771E+05   -1.7270987E+00
   3.1933912E-04   1.4408675E+05   -1.7265277E+00
   3.2081386E-04   1.4294528E+05   -1.7259569E+00
   3.2229541E-04   1.4181323E+05   -1.7253863E+00
   3.2378381E-04   1.4069052E+05   -1.7248160E+00
   3.2527908E-04   1.3957706E+05   -1.7242460E+00
   3.2678125E-04   1.3847277E+05   -1.7236762E+00
   3.2829036E-04   1.3737759E+05   -1.7231067E+00
   3.2980644E-04   1.3629142E+05   -1.7225375E+00
   3.3132952E-04   1.3521420E+05   -1.7219686E+00
   3.3285963E-04   1.3414584E+05   -1.7213999E+00
   3.3439681E-04   1.3308627E+05   -1.7208316E+00
   3.3594109E-04   1.3203541E+05   -1.7202636E+00
   3.3749250E-04   1.3099320E+05   -1.7196958E+00
   3.3905108E-04   1.2995955E+05   -1.7191284E+00
   3.4061685E-04   1.2893440E+05   -1.7185614E+00
   3.4218986E-04   1.2791766E+05   -1.7179946E+00
   3.4377013E-04   1.2690928E+05   -1.7174282E+00
   3.4535769E-04   1.2590917E+05   -1.7168621E+00
   3.4695259E-04   1.2491727E+05   -1.7162964E+00
   3.4855485E-04   1.2393351E+05   -1.7157310E+00
   3.5016452E-04   1.2295782E+05   -1.7151660E+00
   3.5178161E-04   1.2199012E+05   -1.7146013E+00
   3.5340618E-04   1.2103035E+05   -1.7140370E+00
   3.5503824E-04   1.2007845E+05   -1.7134731E+00
   3.5667785E-04   1.1913434E+05   -1.7129095E+00
   3.5832502E-04   1.1819797E+05   -1.7123464E+00
   3.5997981E-04   1.1726926E+05   -1.7117836E+00
   3.6164223E-04   1.1634814E+05   -1.7112212E+00
   3.6331233E-04   1.1543456E+05   -1.7106592E+00
   3.6499015E-04   1.1452845E+05   -1.7100977E+00
   3.6667571E-04   1.1362975E+05   -1.7095365E+00
   3.6836906E-04   1.1273839E+05   -1.7089758E+00
   3.7007022E-04   1.1185431E+05   -1.7084155E+00
   3.7177925E-04   1.1097745E+05   -1.7078556E+00
   3.7349616E-04   1.1010775E+05   -1.7072961E+00
   3.7522101E-04   1.0924514E+05   -1.7067371E+00
   3.7695382E-04   1.0838958E+05   -1.7061786E+00
   3.7869463E-04   1.0754099E+05   -1.7056204E+00
   3.8044348E-04   1.0669931E+05   -1.7050628E+00
   3.8220041E-04   1.0586450E+05   -1.7045056E+00
   3.8396545E-04   1.0503649E+05   -1.7039488E+00
   3.8573864E-04   1.0421522E+05   -1.7033926E+00
   3.8752002E-04   1.0340064E+05   -1.7028368E+00
   3.8930963E-04   1.0259268E+05   -1.7022815E+00
   3.9110750E-04   1.0179130E+05   -1.7017267E+00
   3.9291368E-04   1.0099644E+05   -1.7011723E+00
   3.9472820E-04   1.0020804E+05   -1.7006185E+00
   3.9655109E-04   9.9426053E+04   -1.7000652E+00
   3.9838241E-04   9.8650416E+04   -1.6995124E+00
   4.0022218E-04   9.7881079E+04   -1.6989601E+00
   4.0207045E-04   9.7117989E+04   -1.6984083E+00
   4.0392725E-04   9.6361093E+04   -1.6978570E+00
   4.0579263E-04   9.5610339E+04   -1.6973063E+00
   4.0766662E-04   9.4865674E+04   -1.6967561E+00
   4.0954927E-04   9.4127048E+04   -1.6962065E+00
   4.1144061E-04   9.3394409E+04   -1.6956573E+00
   4.1334068E-04   9.2667707E+04   -1.6951088E+00
   4.1524953E-04   9.1946891E+04   -1.6945608E+00
   4.1716720E-04   9.1231913E+04   -1.6940133E+00
   4.1909372E-04   9.0522722E+04   -1.6934664E+00
   4.2102914E-04   8.9819271E+04   -1.6929201E+00
   4.2297350E-04   8.9121510E+04   -1.6923744E+00
   4.2492683E-04   8.8429392E+04   -1.6918292E+00
   4.2688919E-04   8.7742870E+04   -1.6912846E+00
   4.2886061E-04   8.7061896E+04   -1.6907406E+00
   4.3084113E-04   8.6386423E+04   -1.6901972E+00
   4.3283080E-04   8.5716405E+04   -1.6896544E+00
   4.3482966E-04   8.5051797E+04   -1.6891122E+00
   4.3683775E-04   8.4392552E+04   -1.6885706E+00
   4.3885511E-04   8.3738626E+04   -1.6880296E+00
   4.4088179E-04   8.3089974E+04   -1.6874893E+00
   4.4291783E-04   8.2446552E+04   -1.6869495E+00
   4.4496327E-04   8.1808315E+04   -1.6864104E+00
   4.4701816E-04   8.1175221E+04   -1.6858719E+00
   4.4908253E-04   8.0547226E+04   -1.6853341E+00
   4.5115644E-04   7.9924287E+04   -1.6847968E+00
   4.5323993E-04   7.9306362E+04   -1.6842603E+00
   4.5533304E-04   7.8693409E+04   -1.6837244E+00
   4.5743582E-04   7.8085386E+04   -1.6831891E+00
   4.5954830E-04   7.7482252E+04   -1.6826545E+00
   4.6167054E-04   7.6883966E+04   -1.6821205E+00
   4.6380259E-04   7.6290487E+04   -1.6815873E+00
   4.6594448E-04   7.5701775E+04   -1.6810546E+00
   4.6809626E-04   7.5117790E+04   -1.6805227E+00
   4.7025797E-04   7.4538493E+04   -1.6799915E+00
   4.7242967E-04   7.3963844E+04   -1.6794609E+00
   4.7461140E-04   7.3393805E+04   -1.6789310E+00
   4.7680321E-04   7.2828337E+04   -1.6784018E+00
   4.7900514E-04   7.2267401E+04   -1.6778733E+00
   4.8121723E-04   7.1710960E+04   -1.6773455E+00
   4.8343954E-04   7.1158977E+04   -1.6768185E+00
   4.8567212E-04   7.0611414E+04   -1.6762921E+00
   4.8791500E-04   7.0068235E+04   -1.6757664E+00
   4.9016825E-04   6.9529402E+04   -1.6752415E+00
   4.9243189E-04   6.8994879E+04   -1.6747173E+00
   4.9470600E-04   6.8464631E+04   -1.6741938E+00
   4.9699060E-04   6.7938622E+04   -1.6736710E+00
   4.9928575E-04   6.7416816E+04   -1.6731490E+00
   5.0159151E-04   6.6899179E+04   -1.6726277E+00
   5.0390791E-04   6.6385676E+04   -1.6721071E+00
   5.0623501E-04   6.5876272E+04   -1.6715873E+00
   5.0857286E-04   6.5370933E+04   -1.6710682E+00
   5.1092150E-04   6.4869626E+04   -1.6705499E+00
   5.1328099E-04   6.4372317E+04   -1.6700324E+00
   5.1565137E-04   6.3878973E+04   -1.6695156E+00
   5.1803270E-04   6.3389560E+04   -1.6689996E+00
   5.2042503E-04   6.2904047E+04   -1.6684843E+00
   5.2282841E-04   6.2422400E+04   -1.6679699E+00
   5.2524289E-04   6.1944588E+04   -1.6674562E+00
   5.2766851E-04   6.1470579E+04   -1.6669432E+00
   5.3010534E-04   6.1000341E+04   -1.6664311E+00
   5.3255342E-04   6.0533842E+04   -1.6659197E+00
   5.3501281E-04   6.0071053E+04   -1.6654092E+00
   5.3748356E-04   5.9611942E+04   -1.6648994E+00
   5.3996571E-04   5.9156479E+04   -1.6643905E+00
   5.4245933E-04   5.8704633E+04   -1.6638823E+00
   5.4496446E-04   5.8256375E+04   -1.6633749E+00
   5.4748117E-04   5.7811675E+04   -1.6628684E+00
   5.5000949E-04   5.7370503E+04   -1.6623626E+00
   5.5254949E-04   5.6932830E+04   -1.6618577E+00
   5.5510123E-04   5.6498628E+04   -1.6613536E+00
   5.5766474E-04   5.6067867E+04   -1.6608503E+00
   5.6024010E-04   5.5640519E+04   -1.6603478E+00
   5.6282734E-04   5.5216557E+04   -1.6598462E+00
   5.6542654E-04   5.4795951E+04   -1.6593454E+00
   5.6803774E-04   5.4378674E+04   -1.6588454E+00
   5.7066099E-04   5.3964700E+04   -1.6583463E+00
   5.7329637E-04   5.3554000E+04   -1.6578480E+00
   5.7594391E-04   5.3146547E+04   -1.6573506E+00
   5.7860368E-04   5.2742316E+04   -1.6568540E+00
   5.8127573E-04   5.2341278E+04   -1.6563582E+00
   5.8396012E-04   5.1943409E+04   -1.6558633E+00
   5.8665691E-04   5.1548681E+04   -1.6553693E+00
   5.8936616E-04   5.1157069E+04   -1.6548761E+00
   5.9208791E-04   5.0768548E+04   -1.6543838E+00
   5.9482223E-04   5.0383091E+04   -1.6538924E+00
   5.9756919E-04   5.0000674E+04   -1.6534018E+00
   6.0032882E-04   4.9621272E+04   -1.6529121E+00
   6.0310120E-04   4.9244860E+04   -1.6524233E+00
   6.0588639E-04   4.8871413E+04   -1.6519353E+00
   6.0868443E-04   4.8500907E+04   -1.6514482E+00
   6.1149540E-04   4.8133317E+04   -1.6509620E+00
   6.1431935E-04   4.7768621E+04   -1.6504767E+00
   6.1715634E-04   4.7406794E+04   -1.6499923E+00
   6.2000644E-04   4.7047812E+04   -1.6495088E+00
   6.2286969E-04   4.6691653E+04   -1.6490262E+00
