#        a       HoverH0(a)       dlogHdloga_of_a(a)
   1.0000000E-04   1.0890134E+06   -1.8337627E+00
   1.0046181E-04   1.0798523E+06   -1.8332510E+00
   1.0092575E-04   1.0707708E+06   -1.8327385E+00
   1.0139184E-04   1.0617683E+06   -1.8322252E+00
   1.0186008E-04   1.0528439E+06   -1.8317112E+00
   1.0233048E-04   1.0439970E+06   -1.8311964E+00
   1.0280305E-04   1.0352268E+06   -1.8306808E+00
   1.0327781E-04   1.0265328E+06   -1.8301645E+00
   1.0375475E-04   1.0179143E+06   -1.8296474E+00
   1.0423390E-04   1.0093705E+06   -1.8291295E+00
   1.0471527E-04   1.0009008E+06   -1.8286109E+00
   1.0519885E-04   9.9250452E+05   -1.8280915E+00
   1.0568467E-04   9.8418106E+05   -1.8275714E+00
   1.0617274E-04   9.7592974E+05   -1.8270505E+00
   1.0666305E-04   9.6774992E+05   -1.8265289E+00
   1.0715563E-04   9.5964097E+05   -1.8260065E+00
   1.0765049E-04   9.5160226E+05   -1.8254835E+00
   1.0814763E-04   9.4363316E+05   -1.8249597E+00
   1.0864707E-04   9.3573306E+05   -1.8244351E+00
   1.0914881E-04   9.2790135E+05   -1.8239099E+00
   1.0965287E-04   9.2013741E+05   -1.8233839E+00
   1.1015926E-04   9.1244064E+05   -1.8228572E+00
   1.1066799E-04   9.0481046E+05   -1.8223298E+00
   1.1117906E-04   8.9724626E+05   -1.8218018E+00
   1.1169250E-04   8.8974746E+05   -1.8212730E+00
   1.1220831E-04   8.8231349E+05   -1.8207435E+00
   1.1272650E-04   8.7494377E+05   -1.8202133E+00
   1.1324708E-04   8.6763772E+05   -1.8196824E+00
   1.1377007E-04   8.6039479E+05   -1.8191509E+00
   1.1429547E-04   8.5321441E+05   -1.8186187E+00
   1.1482330E-04   8.4609603E+05   -1.8180858E+00
   1.1535356E-04   8.3903911E+05   -1.8175522E+00
   1.1588628E-04   8.3204308E+05   -1.8170180E+00
   1.1642145E-04   8.2510743E+05   -1.8164831E+00
   1.1695910E-04   8.1823160E+05   -1.8159475E+00
   1.1749923E-04   8.1141508E+05   -1.8154113E+00
   1.1804185E-04   8.0465733E+05   -1.8148745E+00
   1.1858698E-04   7.9795783E+05   -1.8143370E+00
   1.1913463E-04   7.9131608E+05   -1.8137989E+00
   1.1968481E-04   7.8473156E+05   -1.8132601E+00
   1.2023752E-04   7.7820375E+05   -1.8127207E+00
   1.2079279E-04   7.7173218E+05   -1.8121807E+00
   1.2135063E-04   7.6531632E+05   -1.8116401E+00
   1.2191104E-04   7.5895569E+05   -1.8110989E+00
   1.2247403E-04   7.5264981E+05   -1.8105570E+00
   1.2303963E-04   7.4639818E+05   -1.8100145E+00
   1.2360784E-04   7.4020033E+05   -1.8094715E+00
   1.2417868E-04   7.3405579E+05   -1.8089278E+00
   1.2475215E-04   7.2796407E+05   -1.8083836E+00
   1.2532826E-04   7.2192472E+05   -1.8078387E+00
   1.2590704E-04   7.1593727E+05   -1.8072933E+00
   1.2648850E-04   7.1000127E+05   -1.8067473E+00
   1.2707263E-04   7.0411625E+05   -1.8062008E+00
   1.2765947E-04   6.9828177E+05   -1.8056536E+00
   1.2824901E-04   6.9249739E+05   -1.8051060E+00
   1.2884128E-04   6.8676266E+05   -1.8045577E+00
   1.2943628E-04   6.8107714E+05   -1.8040089E+00
   1.3003403E-04   6.7544039E+05   -1.8034596E+00
   1.3063454E-04   6.6985200E+05   -1.8029097E+00
   1.3123783E-04   6.6431152E+05   -1.8023593E+00
   1.3184390E-04   6.5881854E+05   -1.8018083E+00
   1.3245277E-04   6.5337264E+05   -1.8012568E+00
   1.3306445E-04   6.4797341E+05   -1.8007048E+00
   1.3367895E-04   6.4262042E+05   -1.8001523E+00
   1.3429630E-04   6.3731328E+05   -1.7995993E+00
   1.3491649E-04   6.3205158E+05   -1.7990457E+00
   1.3553955E-04   6.2683493E+05   -1.7984917E+00
   1.3616548E-04   6.2166291E+05   -1.7979372E+00
   1.3679431E-04   6.1653515E+05   -1.7973821E+00
   1.3742604E-04   6.1145125E+05   -1.7968266E+00
   1.3806069E-04   6.0641082E+05   -1.7962706E+00
   1.3869827E-04   6.0141348E+05   -1.7957142E+00
   1.3933879E-04   5.9645886E+05   -1.7951572E+00
   1.3998227E-04   5.9154657E+05   -1.7945999E+00
   1.4062872E-04   5.8667624E+05   -1.7940420E+00
   1.4127816E-04   5.8184751E+05   -1.7934837E+00
   1.4193060E-04   5.7706001E+05   -1.7929249E+00
   1.4258605E-04   5.7231337E+05   -1.7923657E+00
   1.4324453E-04   5.6760724E+05   -1.7918061E+00
   1.4390605E-04   5.6294126E+05   -1.7912460E+00
   1.4457062E-04   5.5831508E+05   -1.7906856E+00
   1.4523826E-04   5.5372835E+05   -1.7901246E+00
   1.4590899E-04   5.4918072E+05   -1.7895633E+00
   1.4658281E-04   5.4467184E+05   -1.7890016E+00
   1.4725974E-04   5.4020139E+05   -1.7884394E+00
   1.4793981E-04   5.3576901E+05   -1.7878769E+00
   1.4862301E-04   5.3137438E+05   -1.7873140E+00
   1.4930936E-04   5.2701716E+05   -1.7867506E+00
   1.4999889E-04   5.2269703E+05   -1.7861869E+00
   1.5069160E-04   5.1841366E+05   -1.7856229E+00
   1.5138751E-04   5.1416673E+05   -1.7850584E+00
   1.5208663E-04   5.0995591E+05   -1.7844936E+00
   1.5278899E-04   5.0578090E+05   -1.7839284E+00
   1.5349458E-04   5.0164137E+05   -1.7833629E+00
   1.5420343E-04   4.9753702E+05   -1.7827970E+00
   1.5491556E-04   4.9346754E+05   -1.7822308E+00
   1.5563098E-04   4.8943262E+05   -1.7816643E+00
   1.5634970E-04   4.8543197E+05   -1.7810974E+00
   1.5707174E-04   4.8146527E+05   -1.7805302E+00
   1.5779711E-04   4.7753223E+05   -1.7799626E+00
   1.5852584E-04   4.7363256E+05   -1.7793948E+00
   1.5925792E-04   4.6976597E+05   -1.7788266E+00
   1.5999339E-04   4.6593216E+05   -1.7782582E+00
   1.6073226E-04   4.6213085E+05   -1.7776894E+00
   1.6147454E-04   4.5836175E+05   -1.7771204E+00
   1.6222024E-04   4.5462459E+05   -1.7765511E+00
   1.6296939E-04   4.5091908E+05   -1.7759815E+00
   1.6372200E-04   4.4724494E+05   -1.7754116E+00
   1.6447809E-04   4.4360191E+05   -1.7748415E+00
   1.6523767E-04   4.3998971E+05   -1.7742711E+00
   1.6600075E-04   4.3640808E+05   -1.7737004E+00
   1.6676736E-04   4.3285673E+05   -1.7731295E+00
   1.6753751E-04   4.2933541E+05   -1.7725583E+00
   1.6831122E-04   4.2584386E+05   -1.7719869E+00
   1.6908849E-04   4.2238182E+05   -1.7714153E+00
   1.6986936E-04   4.1894903E+05   -1.7708435E+00
   1.7065384E-04   4.1554523E+05   -1.7702714E+00
   1.7144193E-04   4.1217017E+05   -1.7696991E+00
   1.7223367E-04   4.0882360E+05   -1.7691266E+00
   1.7302906E-04   4.0550528E+05   -1.7685539E+00
   1.7382813E-04   4.0221495E+05   -1.7679811E+00
   1.7463089E-04   3.9895237E+05   -1.7674080E+00
   1.7543735E-04   3.9571730E+05   -1.7668347E+00
   1.7624754E-04   3.9250951E+05   -1.7662613E+00
   1.7706147E-04   3.8932874E+05   -1.7656877E+00
   1.7787916E-04   3.8617477E+05   -1.7651139E+00
   1.7870062E-04   3.8304736E+05   -1.7645399E+00
   1.7952588E-04   3.7994629E+05   -1.7639659E+00
   1.8035495E-04   3.7687131E+05   -1.7633916E+00
   1.8118785E-04   3.7382222E+05   -1.7628172E+00
   1.8202459E-04   3.7079877E+05   -1.7622427E+00
   1.8286520E-04   3.6780075E+05   -1.7616681E+00
   1.8370969E-04   3.6482794E+05   -1.7610933E+00
   1.8455808E-04   3.6188011E+05   -1.7605184E+00
   1.8541039E-04   3.5895705E+05   -1.7599434E+00
   1.8626663E-04   3.5605855E+05   -1.7593683E+00
   1.8712683E-04   3.5318439E+05   -1.7587931E+00
   1.8799100E-04   3.5033436E+05   -1.7582178E+00
   1.8885917E-04   3.4750824E+05   -1.7576424E+00
   1.8973134E-04   3.4470584E+05   -1.7570669E+00
   1.9060754E-04   3.4192695E+05   -1.7564914E+00
   1.9148778E-04   3.3917135E+05   -1.7559158E+00
   1.9237209E-04   3.3643886E+05   -1.7553401E+00
   1.9326049E-04   3.3372926E+05   -1.7547644E+00
   1.9415299E-04   3.3104237E+05   -1.7541886E+00
   1.9504960E-04   3.2837798E+05   -1.7536128E+00
   1.9595036E-04   3.2573590E+05   -1.7530369E+00
   1.9685528E-04   3.2311593E+05   -1.7524610E+00
   1.9776438E-04   3.2051789E+05   -1.7518851E+00
   1.9867768E-04   3.1794158E+05   -1.7513091E+00
   1.9959519E-04   3.1538681E+05   -1.7507332E+00
   2.0051694E-04   3.1285341E+05   -1.7501572E+00
   2.0144295E-04   3.1034118E+05   -1.7495812E+00
   2.0237324E-04   3.0784993E+05   -1.7490052E+00
   2.0330782E-04   3.0537950E+05   -1.7484293E+00
   2.0424671E-04   3.0292970E+05   -1.7478534E+00
   2.0518995E-04   3.0050034E+05   -1.7472774E+00
   2.0613754E-04   2.9809126E+05   -1.7467015E+00
   2.0708950E-04   2.9570228E+05   -1.7461257E+00
   2.0804586E-04   2.9333322E+05   -1.7455499E+00
   2.0900664E-04   2.9098391E+05   -1.7449741E+00
   2.0997185E-04   2.8865418E+05   -1.7443984E+00
   2.1094152E-04   2.8634387E+05   -1.7438228E+00
   2.1191567E-04   2.8405280E+05   -1.7432472E+00
   2.1289432E-04   2.8178081E+05   -1.7426716E+00
   2.1387749E-04   2.7952773E+05   -1.7420962E+00
   2.1486520E-04   2.7729341E+05   -1.7415209E+00
   2.1585747E-04   2.7507767E+05   -1.7409456E+00
   2.1685432E-04   2.7288036E+05   -1.7403704E+00
   2.1785578E-04   2.7070132E+05   -1.7397953E+00
   2.1886186E-04   2.6854039E+05   -1.7392204E+00
   2.1987259E-04   2.6639742E+05   -1.7386455E+00
   2.2088798E-04   2.6427224E+05   -1.7380708E+00
   2.2190807E-04   2.6216472E+05   -1.7374962E+00
   2.2293286E-04   2.6007469E+05   -1.7369217E+00
   2.2396239E-04   2.5800201E+05   -1.7363474E+00
   2.2499667E-04   2.5594652E+05   -1.7357732E+00
   2.2603573E-04   2.5390808E+05   -1.7351992E+00
   2.2707958E-04   2.5188654E+05   -1.7346253E+00
   2.2812826E-04   2.4988176E+05   -1.7340516E+00
   2.2918178E-04   2.4789358E+05   -1.7334780E+00
   2.3024017E-04   2.4592188E+05   -1.7329047E+00
   2.3130344E-04   2.4396650E+05   -1.7323315E+00
   2.3237162E-04   2.4202731E+05   -1.7317585E+00
   2.3344474E-04   2.4010417E+05   -1.7311857E+00
   2.3452281E-04   2.3819693E+05   -1.7306130E+00
   2.3560586E-04   2.3630547E+05   -1.7300406E+00
   2.3669392E-04   2.3442965E+05   -1.7294684E+00
   2.3778699E-04   2.3256933E+05   -1.7288964E+00
   2.3888512E-04   2.3072439E+05   -1.7283247E+00
   2.3998831E-04   2.2889468E+05   -1.7277531E+00
   2.4109661E-04   2.2708007E+05   -1.7271818E+00
   2.4221001E-04   2.2528045E+05   -1.7266108E+00
   2.4332857E-04   2.2349568E+05   -1.7260399E+00
   2.4445228E-04   2.2172563E+05   -1.7254694E+00
   2.4558119E-04   2.1997017E+05   -1.7248991E+00
   2.4671531E-04   2.1822919E+05   -1.7243290E+00
   2.4785467E-04   2.1650256E+05   -1.7237593E+00
   2.4899928E-04   2.1479015E+05   -1.7231898E+00
   2.5014919E-04   2.1309184E+05   -1.7226205E+00
   2.5130440E-04   2.1140752E+05   -1.7220516E+00
   2.5246495E-04   2.0973706E+05   -1.7214830E+00
   2.5363086E-04   2.0808034E+05   -1.7209146E+00
   2.5480216E-04   2.0643725E+05   -1.7203466E+00
   2.5597886E-04   2.0480767E+05   -1.7197789E+00
   2.5716100E-04   2.0319149E+05   -1.7192115E+00
   2.5834859E-04   2.0158859E+05   -1.7186444E+00
   2.5954168E-04   1.9999885E+05   -1.7180776E+00
   2.6074027E-04   1.9842217E+05   -1.7175112E+00
   2.6194439E-04   1.9685843E+05   -1.7169451E+00
   2.6315408E-04   1.9530752E+05   -1.7163793E+00
   2.6436935E-04   1.9376934E+05   -1.7158139E+00
   2.6559024E-04   1.9224377E+05   -1.7152489E+00
   2.6681676E-04   1.9073071E+05   -1.7146842E+00
   2.6804895E-04   1.8923006E+05   -1.7141199E+00
   2.6928683E-04   1.8774169E+05   -1.7135560E+00
   2.7053042E-04   1.8626552E+05   -1.7129924E+00
   2.7177976E-04   1.8480143E+05   -1.7124292E+00
   2.7303487E-04   1.8334933E+05   -1.7118664E+00
   2.7429577E-04   1.8190911E+05   -1.7113041E+00
   2.7556250E-04   1.8048066E+05   -1.7107421E+00
   2.7683507E-04   1.7906390E+05   -1.7101805E+00
   2.7811353E-04   1.7765872E+05   -1.7096193E+00
   2.7939788E-04   1.7626502E+05   -1.7090585E+00
   2.8068817E-04   1.7488271E+05   -1.7084982E+00
   2.8198442E-04   1.7351169E+05   -1.7079383E+00
   2.8328665E-04   1.7215186E+05   -1.7073788E+00
   2.8459490E-04   1.7080312E+05   -1.7068198E+00
   2.8590919E-04   1.6946539E+05   -1.7062612E+00
   2.8722955E-04   1.6813857E+05   -1.7057031E+00
   2.8855600E-04   1.6682256E+05   -1.7051454E+00
   2.8988859E-04   1.6551728E+05   -1.7045882E+00
   2.9122732E-04   1.6422264E+05   -1.7040314E+00
   2.9257224E-04   1.6293854E+05   -1.7034751E+00
   2.9392337E-04   1.6166489E+05   -1.7029193E+00
   2.9528074E-04   1.6040161E+05   -1.7023640E+00
   2.9664438E-04   1.5914861E+05   -1.7018091E+00
   2.9801431E-04   1.5790580E+05   -1.7012548E+00
   2.9939057E-04   1.5667310E+05   -1.7007009E+00
   3.0077319E-04   1.5545041E+05   -1.7001476E+00
   3.0216219E-04   1.5423766E+05   -1.6995947E+00
   3.0355761E-04   1.5303477E+05   -1.6990424E+00
   3.0495947E-04   1.5184163E+05   -1.6984906E+00
   3.0636780E-04   1.5065819E+05   -1.6979393E+00
   3.0778264E-04   1.4948435E+05   -1.6973885E+00
   3.0920401E-04   1.4832003E+05   -1.6968383E+00
   3.1063195E-04   1.4716515E+05   -1.6962886E+00
   3.1206648E-04   1.4601963E+05   -1.6957395E+00
   3.1350764E-04   1.4488339E+05   -1.6951909E+00
   3.1495545E-04   1.4375637E+05   -1.6946428E+00
   3.1640994E-04   1.4263846E+05   -1.6940954E+00
   3.1787116E-04   1.4152961E+05   -1.6935484E+00
   3.1933912E-04   1.4042973E+05   -1.6930021E+00
   3.2081386E-04   1.3933875E+05   -1.6924563E+00
   3.2229541E-04   1.3825660E+05   -1.6919111E+00
   3.2378381E-04   1.3718319E+05   -1.6913665E+00
   3.2527908E-04   1.3611845E+05   -1.6908224E+00
   3.2678125E-04   1.3506232E+05   -1.6902790E+00
   3.2829036E-04   1.3401472E+05   -1.6897362E+00
   3.2980644E-04   1.3297558E+05   -1.6891939E+00
   3.3132952E-04   1.3194482E+05   -1.6886523E+00
   3.3285963E-04   1.3092238E+05   -1.6881113E+00
   3.3439681E-04   1.2990819E+05   -1.6875709E+00
   3.3594109E-04   1.2890217E+05   -1.6870311E+00
   3.3749250E-04   1.2790427E+05   -1.6864919E+00
   3.3905108E-04   1.2691440E+05   -1.6859534E+00
   3.4061685E-04   1.2593250E+05   -1.6854155E+00
   3.4218986E-04   1.2495852E+05   -1.6848782E+00
   3.4377013E-04   1.2399237E+05   -1.6843416E+00
   3.4535769E-04   1.2303399E+05   -1.6838057E+00
   3.4695259E-04   1.2208333E+05   -1.6832704E+00
   3.4855485E-04   1.2114031E+05   -1.6827357E+00
   3.5016452E-04   1.2020487E+05   -1.6822017E+00
   3.5178161E-04   1.1927694E+05   -1.6816684E+00
   3.5340618E-04   1.1835647E+05   -1.6811358E+00
   3.5503824E-04   1.1744339E+05   -1.6806038E+00
   3.5667785E-04   1.1653764E+05   -1.6800725E+00
   3.5832502E-04   1.1563916E+05   -1.6795419E+00
   3.5997981E-04   1.1474789E+05   -1.6790119E+00
   3.6164223E-04   1.1386376E+05   -1.6784827E+00
   3.6331233E-04   1.1298672E+05   -1.6779542E+00
   3.6499015E-04   1.1211671E+05   -1.6774263E+00
   3.6667571E-04   1.1125367E+05   -1.6768992E+00
   3.6836906E-04   1.1039754E+05   -1.6763728E+00
   3.7007022E-04   1.0954827E+05   -1.6758471E+00
   3.7177925E-04   1.0870579E+05   -1.6753221E+00
   3.7349616E-04   1.0787005E+05   -1.6747978E+00
   3.7522101E-04   1.0704099E+05   -1.6742743E+00
   3.7695382E-04   1.0621856E+05   -1.6737515E+00
   3.7869463E-04   1.0540271E+05   -1.6732294E+00
   3.8044348E-04   1.0459337E+05   -1.6727080E+00
   3.8220041E-04   1.0379050E+05   -1.6721874E+00
   3.8396545E-04   1.0299403E+05   -1.6716676E+00
   3.8573864E-04   1.0220392E+05   -1.6711485E+00
   3.8752002E-04   1.0142012E+05   -1.6706301E+00
   3.8930963E-04   1.0064257E+05   -1.6701125E+00
   3.9110750E-04   9.9871214E+04   -1.6695957E+00
   3.9291368E-04   9.9106008E+04   -1.6690796E+00
   3.9472820E-04   9.8346899E+04   -1.6685643E+00
   3.9655109E-04   9.7593836E+04   -1.6680498E+00
   3.9838241E-04   9.6846768E+04   -1.6675360E+00
   4.0022218E-04   9.6105646E+04   -1.6670230E+00
   4.0207045E-04   9.5370422E+04   -1.6665109E+00
   4.0392725E-04   9.4641045E+04   -1.6659994E+00
   4.0579263E-04   9.3917467E+04   -1.6654888E+00
   4.0766662E-04   9.3199641E+04   -1.6649790E+00
   4.0954927E-04   9.2487518E+04   -1.6644700E+00
   4.1144061E-04   9.1781051E+04   -1.6639618E+00
   4.1334068E-04   9.1080194E+04   -1.6634544E+00
   4.1524953E-04   9.0384900E+04   -1.6629477E+00
   4.1716720E-04   8.9695123E+04   -1.6624420E+00
   4.1909372E-04   8.9010817E+04   -1.6619370E+00
   4.2102914E-04   8.8331937E+04   -1.6614328E+00
   4.2297350E-04   8.7658438E+04   -1.6609295E+00
   4.2492683E-04   8.6990276E+04   -1.6604269E+00
   4.2688919E-04   8.6327407E+04   -1.6599253E+00
   4.2886061E-04   8.5669787E+04   -1.6594244E+00
   4.3084113E-04   8.5017373E+04   -1.6589244E+00
   4.3283080E-04   8.4370121E+04   -1.6584252E+00
   4.3482966E-04   8.3727989E+04   -1.6579269E+00
   4.3683775E-04   8.3090935E+04   -1.6574294E+00
   4.3885511E-04   8.2458917E+04   -1.6569327E+00
   4.4088179E-04   8.1831893E+04   -1.6564369E+00
   4.4291783E-04   8.1209823E+04   -1.6559420E+00
   4.4496327E-04   8.0592665E+04   -1.6554479E+00
   4.4701816E-04   7.9980379E+04   -1.6549546E+00
   4.4908253E-04   7.9372925E+04   -1.6544623E+00
   4.5115644E-04   7.8770264E+04   -1.6539708E+00
   4.5323993E-04   7.8172354E+04   -1.6534801E+00
   4.5533304E-04   7.7579159E+04   -1.6529904E+00
   4.5743582E-04   7.6990639E+04   -1.6525015E+00
   4.5954830E-04   7.6406755E+04   -1.6520135E+00
   4.6167054E-04   7.5827470E+04   -1.6515263E+00
   4.6380259E-04   7.5252745E+04   -1.6510401E+00
   4.6594448E-04   7.4682544E+04   -1.6505547E+00
   4.6809626E-04   7.4116828E+04   -1.6500702E+00
   4.7025797E-04   7.3555562E+04   -1.6495867E+00
   4.7242967E-04   7.2998709E+04   -1.6491040E+00
   4.7461140E-04   7.2446232E+04   -1.6486222E+00
   4.7680321E-04   7.1898096E+04   -1.6481413E+00
   4.7900514E-04   7.1354265E+04   -1.6476613E+00
   4.8121723E-04   7.0814704E+04   -1.6471822E+00
   4.8343954E-04   7.0279378E+04   -1.6467040E+00
   4.8567212E-04   6.9748253E+04   -1.6462267E+00
   4.8791500E-04   6.9221293E+04   -1.6457503E+00
   4.9016825E-04   6.8698466E+04   -1.6452749E+00
   4.9243189E-04   6.8179737E+04   -1.6448004E+00
   4.9470600E-04   6.7665072E+04   -1.6443267E+00
   4.9699060E-04   6.7154438E+04   -1.6438540E+00
   4.9928575E-04   6.6647803E+04   -1.6433823E+00
   5.0159151E-04   6.6145134E+04   -1.6429114E+00
   5.0390791E-04   6.5646399E+04   -1.6424415E+00
   5.0623501E-04   6.5151565E+04   -1.6419725E+00
   5.0857286E-04   6.4660600E+04   -1.6415044E+00
   5.1092150E-04   6.4173473E+04   -1.6410373E+00
   5.1328099E-04   6.3690153E+04   -1.6405711E+00
   5.1565137E-04   6.3210610E+04   -1.6401059E+00
   5.1803270E-04   6.2734811E+04   -1.6396416E+00
   5.2042503E-04   6.2262726E+04   -1.6391782E+00
   5.2282841E-04   6.1794326E+04   -1.6387158E+00
   5.2524289E-04   6.1329580E+04   -1.6382543E+00
   5.2766851E-04   6.0868458E+04   -1.6377938E+00
   5.3010534E-04   6.0410932E+04   -1.6373342E+00
   5.3255342E-04   5.9956972E+04   -1.6368756E+00
   5.3501281E-04   5.9506548E+04   -1.6364179E+00
   5.3748356E-04   5.9059633E+04   -1.6359612E+00
   5.3996571E-04   5.8616197E+04   -1.6355054E+00
   5.4245933E-04   5.8176213E+04   -1.6350506E+00
   5.4496446E-04   5.7739652E+04   -1.6345968E+00
   5.4748117E-04   5.7306487E+04   -1.6341439E+00
   5.5000949E-04   5.6876690E+04   -1.6336920E+00
   5.5254949E-04   5.6450235E+04   -1.6332411E+00
   5.5510123E-04   5.6027092E+04   -1.6327911E+00
   5.5766474E-04   5.5607237E+04   -1.6323421E+00
   5.6024010E-04   5.5190642E+04   -1.6318941E+00
   5.6282734E-04   5.4777282E+04   -1.6314470E+00
   5.6542654E-04   5.4367129E+04   -1.6310010E+00
   5.6803774E-04   5.3960157E+04   -1.6305558E+00
   5.7066099E-04   5.3556342E+04   -1.6301117E+00
   5.7329637E-04   5.3155658E+04   -1.6296686E+00
   5.7594391E-04   5.2758079E+04   -1.6292264E+00
   5.7860368E-04   5.2363580E+04   -1.6287852E+00
   5.8127573E-04   5.1972137E+04   -1.6283450E+00
   5.8396012E-04   5.1583724E+04   -1.6279058E+00
   5.8665691E-04   5.1198318E+04   -1.6274676E+00
   5.8936616E-04   5.0815893E+04   -1.6270303E+00
   5.9208791E-04   5.0436427E+04   -1.6265941E+00
   5.9482223E-04   5.0059895E+04   -1.6261588E+00
   5.9756919E-04   4.9686273E+04   -1.6257246E+00
   6.0032882E-04   4.9315539E+04   -1.6252913E+00
   6.0310120E-04   4.8947668E+04   -1.6248590E+00
   6.0588639E-04   4.8582638E+04   -1.6244277E+00
   6.0868443E-04   4.8220426E+04   -1.6239974E+00
   6.1149540E-04   4.7861009E+04   -1.6235681E+00
   6.1431935E-04   4.7504365E+04   -1.6231398E+00
   6.1715634E-04   4.7150472E+04   -1.6227125E+00
   6.2000644E-04   4.6799307E+04   -1.6222862E+00
   6.2286969E-04   4.6450849E+04   -1.6218609E+00
