#        a       HoverH0(a)       dlogHdloga_of_a(a)
   1.0000000E-04   1.1768911E+06   -1.8704469E+00
   1.0046181E-04   1.1667933E+06   -1.8700042E+00
   1.0092575E-04   1.1567846E+06   -1.8695604E+00
   1.0139184E-04   1.1468641E+06   -1.8691157E+00
   1.0186008E-04   1.1370310E+06   -1.8686700E+00
   1.0233048E-04   1.1272845E+06   -1.8682234E+00
   1.0280305E-04   1.1176239E+06   -1.8677757E+00
   1.0327781E-04   1.1080483E+06   -1.8673271E+00
   1.0375475E-04   1.0985571E+06   -1.8668775E+00
   1.0423390E-04   1.0891494E+06   -1.8664270E+00
   1.0471527E-04   1.0798245E+06   -1.8659754E+00
   1.0519885E-04   1.0705817E+06   -1.8655230E+00
   1.0568467E-04   1.0614202E+06   -1.8650695E+00
   1.0617274E-04   1.0523394E+06   -1.8646151E+00
   1.0666305E-04   1.0433384E+06   -1.8641597E+00
   1.0715563E-04   1.0344165E+06   -1.8637034E+00
   1.0765049E-04   1.0255731E+06   -1.8632461E+00
   1.0814763E-04   1.0168075E+06   -1.8627878E+00
   1.0864707E-04   1.0081189E+06   -1.8623286E+00
   1.0914881E-04   9.9950666E+05   -1.8618685E+00
   1.0965287E-04   9.9097011E+05   -1.8614074E+00
   1.1015926E-04   9.8250856E+05   -1.8609453E+00
   1.1066799E-04   9.7412133E+05   -1.8604823E+00
   1.1117906E-04   9.6580776E+05   -1.8600184E+00
   1.1169250E-04   9.5756719E+05   -1.8595535E+00
   1.1220831E-04   9.4939896E+05   -1.8590877E+00
   1.1272650E-04   9.4130244E+05   -1.8586209E+00
   1.1324708E-04   9.3327697E+05   -1.8581532E+00
   1.1377007E-04   9.2532193E+05   -1.8576846E+00
   1.1429547E-04   9.1743667E+05   -1.8572150E+00
   1.1482330E-04   9.0962058E+05   -1.8567446E+00
   1.1535356E-04   9.0187304E+05   -1.8562731E+00
   1.1588628E-04   8.9419343E+05   -1.8558008E+00
   1.1642145E-04   8.8658114E+05   -1.8553275E+00
   1.1695910E-04   8.7903558E+05   -1.8548534E+00
   1.1749923E-04   8.7155614E+05   -1.8543783E+00
   1.1804185E-04   8.6414223E+05   -1.8539022E+00
   1.1858698E-04   8.5679327E+05   -1.8534253E+00
   1.1913463E-04   8.4950868E+05   -1.8529475E+00
   1.1968481E-04   8.4228787E+05   -1.8524687E+00
   1.2023752E-04   8.3513029E+05   -1.8519891E+00
   1.2079279E-04   8.2803537E+05   -1.8515085E+00
   1.2135063E-04   8.2100254E+05   -1.8510271E+00
   1.2191104E-04   8.1403125E+05   -1.8505447E+00
   1.2247403E-04   8.0712095E+05   -1.8500615E+00
   1.2303963E-04   8.0027109E+05   -1.8495774E+00
   1.2360784E-04   7.9348114E+05   -1.8490923E+00
   1.2417868E-04   7.8675056E+05   -1.8486064E+00
   1.2475215E-04   7.8007882E+05   -1.8481196E+00
   1.2532826E-04   7.7346539E+05   -1.8476319E+00
   1.2590704E-04   7.6690975E+05   -1.8471434E+00
   1.2648850E-04   7.6041139E+05   -1.8466540E+00
   1.2707263E-04   7.5396980E+05   -1.8461637E+00
   1.2765947E-04   7.4758446E+05   -1.8456725E+00
   1.2824901E-04   7.4125488E+05   -1.8451804E+00
   1.2884128E-04   7.3498056E+05   -1.8446875E+00
   1.2943628E-04   7.2876101E+05   -1.8441938E+00
   1.3003403E-04   7.2259573E+05   -1.8436991E+00
   1.3063454E-04   7.1648424E+05   -1.8432037E+00
   1.3123783E-04   7.1042607E+05   -1.8427073E+00
   1.3184390E-04   7.0442073E+05   -1.8422102E+00
   1.3245277E-04   6.9846776E+05   -1.8417121E+00
   1.3306445E-04   6.9256668E+05   -1.8412133E+00
   1.3367895E-04   6.8671704E+05   -1.8407135E+00
   1.3429630E-04   6.8091838E+05   -1.8402130E+00
   1.3491649E-04   6.7517024E+05   -1.8397116E+00
   1.3553955E-04   6.6947217E+05   -1.8392094E+00
   1.3616548E-04   6.6382373E+05   -1.8387064E+00
   1.3679431E-04   6.5822447E+05   -1.8382025E+00
   1.3742604E-04   6.5267396E+05   -1.8376978E+00
   1.3806069E-04   6.4717176E+05   -1.8371924E+00
   1.3869827E-04   6.4171744E+05   -1.8366860E+00
   1.3933879E-04   6.3631057E+05   -1.8361789E+00
   1.3998227E-04   6.3095074E+05   -1.8356710E+00
   1.4062872E-04   6.2563752E+05   -1.8351623E+00
   1.4127816E-04   6.2037049E+05   -1.8346528E+00
   1.4193060E-04   6.1514925E+05   -1.8341424E+00
   1.4258605E-04   6.0997339E+05   -1.8336313E+00
   1.4324453E-04   6.0484251E+05   -1.8331194E+00
   1.4390605E-04   5.9975620E+05   -1.8326067E+00
   1.4457062E-04   5.9471407E+05   -1.8320933E+00
   1.4523826E-04   5.8971573E+05   -1.8315790E+00
   1.4590899E-04   5.8476078E+05   -1.8310640E+00
   1.4658281E-04   5.7984884E+05   -1.8305482E+00
   1.4725974E-04   5.7497952E+05   -1.8300317E+00
   1.4793981E-04   5.7015246E+05   -1.8295143E+00
   1.4862301E-04   5.6536727E+05   -1.8289963E+00
   1.4930936E-04   5.6062358E+05   -1.8284774E+00
   1.4999889E-04   5.5592102E+05   -1.8279579E+00
   1.5069160E-04   5.5125922E+05   -1.8274375E+00
   1.5138751E-04   5.4663783E+05   -1.8269164E+00
   1.5208663E-04   5.4205649E+05   -1.8263946E+00
   1.5278899E-04   5.3751483E+05   -1.8258721E+00
   1.5349458E-04   5.3301251E+05   -1.8253488E+00
   1.5420343E-04   5.2854918E+05   -1.8248248E+00
   1.5491556E-04   5.2412450E+05   -1.8243001E+00
   1.5563098E-04   5.1973810E+05   -1.8237746E+00
   1.5634970E-04   5.1538967E+05   -1.8232485E+00
   1.5707174E-04   5.1107886E+05   -1.8227216E+00
   1.5779711E-04   5.0680533E+05   -1.8221940E+00
   1.5852584E-04   5.0256877E+05   -1.8216657E+00
   1.5925792E-04   4.9836883E+05   -1.8211367E+00
   1.5999339E-04   4.9420519E+05   -1.8206070E+00
   1.6073226E-04   4.9007754E+05   -1.8200767E+00
   1.6147454E-04   4.8598555E+05   -1.8195456E+00
   1.6222024E-04   4.8192890E+05   -1.8190139E+00
   1.6296939E-04   4.7790729E+05   -1.8184815E+00
   1.6372200E-04   4.7392041E+05   -1.8179484E+00
   1.6447809E-04   4.6996794E+05   -1.8174146E+00
   1.6523767E-04   4.6604958E+05   -1.8168802E+00
   1.6600075E-04   4.6216502E+05   -1.8163451E+00
   1.6676736E-04   4.5831398E+05   -1.8158094E+00
   1.6753751E-04   4.5449615E+05   -1.8152730E+00
   1.6831122E-04   4.5071123E+05   -1.8147360E+00
   1.6908849E-04   4.4695894E+05   -1.8141983E+00
   1.6986936E-04   4.4323899E+05   -1.8136600E+00
   1.7065384E-04   4.3955109E+05   -1.8131211E+00
   1.7144193E-04   4.3589496E+05   -1.8125815E+00
   1.7223367E-04   4.3227031E+05   -1.8120413E+00
   1.7302906E-04   4.2867687E+05   -1.8115005E+00
   1.7382813E-04   4.2511437E+05   -1.8109591E+00
   1.7463089E-04   4.2158252E+05   -1.8104171E+00
   1.7543735E-04   4.1808106E+05   -1.8098744E+00
   1.7624754E-04   4.1460972E+05   -1.8093312E+00
   1.7706147E-04   4.1116823E+05   -1.8087874E+00
   1.7787916E-04   4.0775633E+05   -1.8082430E+00
   1.7870062E-04   4.0437375E+05   -1.8076980E+00
   1.7952588E-04   4.0102025E+05   -1.8071524E+00
   1.8035495E-04   3.9769555E+05   -1.8066062E+00
   1.8118785E-04   3.9439941E+05   -1.8060595E+00
   1.8202459E-04   3.9113158E+05   -1.8055122E+00
   1.8286520E-04   3.8789180E+05   -1.8049644E+00
   1.8370969E-04   3.8467983E+05   -1.8044160E+00
   1.8455808E-04   3.8149541E+05   -1.8038670E+00
   1.8541039E-04   3.7833832E+05   -1.8033175E+00
   1.8626663E-04   3.7520831E+05   -1.8027674E+00
   1.8712683E-04   3.7210513E+05   -1.8022169E+00
   1.8799100E-04   3.6902856E+05   -1.8016657E+00
   1.8885917E-04   3.6597835E+05   -1.8011141E+00
   1.8973134E-04   3.6295427E+05   -1.8005620E+00
   1.9060754E-04   3.5995610E+05   -1.8000093E+00
   1.9148778E-04   3.5698361E+05   -1.7994561E+00
   1.9237209E-04   3.5403656E+05   -1.7989024E+00
   1.9326049E-04   3.5111474E+05   -1.7983482E+00
   1.9415299E-04   3.4821792E+05   -1.7977936E+00
   1.9504960E-04   3.4534589E+05   -1.7972384E+00
   1.9595036E-04   3.4249842E+05   -1.7966827E+00
   1.9685528E-04   3.3967530E+05   -1.7961266E+00
   1.9776438E-04   3.3687631E+05   -1.7955700E+00
   1.9867768E-04   3.3410125E+05   -1.7950129E+00
   1.9959519E-04   3.3134989E+05   -1.7944554E+00
   2.0051694E-04   3.2862204E+05   -1.7938974E+00
   2.0144295E-04   3.2591748E+05   -1.7933389E+00
   2.0237324E-04   3.2323601E+05   -1.7927801E+00
   2.0330782E-04   3.2057743E+05   -1.7922207E+00
   2.0424671E-04   3.1794154E+05   -1.7916610E+00
   2.0518995E-04   3.1532813E+05   -1.7911008E+00
   2.0613754E-04   3.1273701E+05   -1.7905401E+00
   2.0708950E-04   3.1016799E+05   -1.7899791E+00
   2.0804586E-04   3.0762086E+05   -1.7894176E+00
   2.0900664E-04   3.0509544E+05   -1.7888558E+00
   2.0997185E-04   3.0259154E+05   -1.7882935E+00
   2.1094152E-04   3.0010897E+05   -1.7877308E+00
   2.1191567E-04   2.9764753E+05   -1.7871678E+00
   2.1289432E-04   2.9520705E+05   -1.7866043E+00
   2.1387749E-04   2.9278734E+05   -1.7860405E+00
   2.1486520E-04   2.9038822E+05   -1.7854763E+00
   2.1585747E-04   2.8800950E+05   -1.7849117E+00
   2.1685432E-04   2.8565101E+05   -1.7843468E+00
   2.1785578E-04   2.8331258E+05   -1.7837815E+00
   2.1886186E-04   2.8099402E+05   -1.7832159E+00
   2.1987259E-04   2.7869516E+05   -1.7826499E+00
   2.2088798E-04   2.7641583E+05   -1.7820836E+00
   2.2190807E-04   2.7415586E+05   -1.7815169E+00
   2.2293286E-04   2.7191507E+05   -1.7809499E+00
   2.2396239E-04   2.6969330E+05   -1.7803826E+00
   2.2499667E-04   2.6749039E+05   -1.7798150E+00
   2.2603573E-04   2.6530617E+05   -1.7792470E+00
   2.2707958E-04   2.6314047E+05   -1.7786787E+00
   2.2812826E-04   2.6099313E+05   -1.7781102E+00
   2.2918178E-04   2.5886399E+05   -1.7775413E+00
   2.3024017E-04   2.5675289E+05   -1.7769722E+00
   2.3130344E-04   2.5465968E+05   -1.7764028E+00
   2.3237162E-04   2.5258420E+05   -1.7758331E+00
   2.3344474E-04   2.5052629E+05   -1.7752631E+00
   2.3452281E-04   2.4848580E+05   -1.7746929E+00
   2.3560586E-04   2.4646258E+05   -1.7741224E+00
   2.3669392E-04   2.4445647E+05   -1.7735516E+00
   2.3778699E-04   2.4246733E+05   -1.7729806E+00
   2.3888512E-04   2.4049501E+05   -1.7724094E+00
   2.3998831E-04   2.3853936E+05   -1.7718379E+00
   2.4109661E-04   2.3660024E+05   -1.7712662E+00
   2.4221001E-04   2.3467749E+05   -1.7706942E+00
   2.4332857E-04   2.3277099E+05   -1.7701221E+00
   2.4445228E-04   2.3088058E+05   -1.7695497E+00
   2.4558119E-04   2.2900613E+05   -1.7689771E+00
   2.4671531E-04   2.2714750E+05   -1.7684044E+00
   2.4785467E-04   2.2530455E+05   -1.7678314E+00
   2.4899928E-04   2.2347714E+05   -1.7672583E+00
   2.5014919E-04   2.2166513E+05   -1.7666849E+00
   2.5130440E-04   2.1986840E+05   -1.7661114E+00
   2.5246495E-04   2.1808681E+05   -1.7655377E+00
   2.5363086E-04   2.1632023E+05   -1.7649639E+00
   2.5480216E-04   2.1456853E+05   -1.7643898E+00
   2.5597886E-04   2.1283157E+05   -1.7638157E+00
   2.5716100E-04   2.1110923E+05   -1.7632414E+00
   2.5834859E-04   2.0940139E+05   -1.7626669E+00
   2.5954168E-04   2.0770791E+05   -1.7620923E+00
   2.6074027E-04   2.0602867E+05   -1.7615176E+00
   2.6194439E-04   2.0436355E+05   -1.7609428E+00
   2.6315408E-04   2.0271242E+05   -1.7603678E+00
   2.6436935E-04   2.0107517E+05   -1.7597928E+00
   2.6559024E-04   1.9945167E+05   -1.7592176E+00
   2.6681676E-04   1.9784180E+05   -1.7586423E+00
   2.6804895E-04   1.9624545E+05   -1.7580670E+00
   2.6928683E-04   1.9466249E+05   -1.7574915E+00
   2.7053042E-04   1.9309281E+05   -1.7569160E+00
   2.7177976E-04   1.9153630E+05   -1.7563404E+00
   2.7303487E-04   1.8999284E+05   -1.7557648E+00
   2.7429577E-04   1.8846231E+05   -1.7551890E+00
   2.7556250E-04   1.8694462E+05   -1.7546132E+00
   2.7683507E-04   1.8543963E+05   -1.7540374E+00
   2.7811353E-04   1.8394725E+05   -1.7534615E+00
   2.7939788E-04   1.8246736E+05   -1.7528856E+00
   2.8068817E-04   1.8099986E+05   -1.7523097E+00
   2.8198442E-04   1.7954464E+05   -1.7517337E+00
   2.8328665E-04   1.7810160E+05   -1.7511577E+00
   2.8459490E-04   1.7667061E+05   -1.7505817E+00
   2.8590919E-04   1.7525160E+05   -1.7500057E+00
   2.8722955E-04   1.7384444E+05   -1.7494297E+00
   2.8855600E-04   1.7244903E+05   -1.7488537E+00
   2.8988859E-04   1.7106528E+05   -1.7482777E+00
   2.9122732E-04   1.6969309E+05   -1.7477018E+00
   2.9257224E-04   1.6833235E+05   -1.7471258E+00
   2.9392337E-04   1.6698296E+05   -1.7465499E+00
   2.9528074E-04   1.6564483E+05   -1.7459740E+00
   2.9664438E-04   1.6431786E+05   -1.7453982E+00
   2.9801431E-04   1.6300195E+05   -1.7448224E+00
   2.9939057E-04   1.6169701E+05   -1.7442466E+00
   3.0077319E-04   1.6040294E+05   -1.7436710E+00
   3.0216219E-04   1.5911965E+05   -1.7430954E+00
   3.0355761E-04   1.5784704E+05   -1.7425198E+00
   3.0495947E-04   1.5658503E+05   -1.7419444E+00
   3.0636780E-04   1.5533352E+05   -1.7413690E+00
   3.0778264E-04   1.5409242E+05   -1.7407937E+00
   3.0920401E-04   1.5286165E+05   -1.7402185E+00
   3.1063195E-04   1.5164110E+05   -1.7396434E+00
   3.1206648E-04   1.5043070E+05   -1.7390685E+00
   3.1350764E-04   1.4923036E+05   -1.7384936E+00
   3.1495545E-04   1.4803998E+05   -1.7379189E+00
   3.1640994E-04   1.4685949E+05   -1.7373443E+00
   3.1787116E-04   1.4568880E+05   -1.7367698E+00
   3.1933912E-04   1.4452782E+05   -1.7361954E+00
   3.2081386E-04   1.4337648E+05   -1.7356213E+00
   3.2229541E-04   1.4223468E+05   -1.7350472E+00
   3.2378381E-04   1.4110235E+05   -1.7344733E+00
   3.2527908E-04   1.3997941E+05   -1.7338996E+00
   3.2678125E-04   1.3886576E+05   -1.7333261E+00
   3.2829036E-04   1.3776134E+05   -1.7327527E+00
   3.2980644E-04   1.3666607E+05   -1.7321795E+00
   3.3132952E-04   1.3557986E+05   -1.7316065E+00
   3.3285963E-04   1.3450264E+05   -1.7310337E+00
   3.3439681E-04   1.3343433E+05   -1.7304611E+00
   3.3594109E-04   1.3237486E+05   -1.7298887E+00
   3.3749250E-04   1.3132414E+05   -1.7293165E+00
   3.3905108E-04   1.3028211E+05   -1.7287445E+00
   3.4061685E-04   1.2924869E+05   -1.7281728E+00
   3.4218986E-04   1.2822380E+05   -1.7276012E+00
   3.4377013E-04   1.2720737E+05   -1.7270299E+00
   3.4535769E-04   1.2619933E+05   -1.7264589E+00
   3.4695259E-04   1.2519961E+05   -1.7258881E+00
   3.4855485E-04   1.2420814E+05   -1.7253176E+00
   3.5016452E-04   1.2322484E+05   -1.7247473E+00
   3.5178161E-04   1.2224965E+05   -1.7241772E+00
   3.5340618E-04   1.2128249E+05   -1.7236075E+00
   3.5503824E-04   1.2032330E+05   -1.7230380E+00
   3.5667785E-04   1.1937201E+05   -1.7224688E+00
   3.5832502E-04   1.1842855E+05   -1.7218999E+00
   3.5997981E-04   1.1749285E+05   -1.7213313E+00
   3.6164223E-04   1.1656486E+05   -1.7207630E+00
   3.6331233E-04   1.1564449E+05   -1.7201950E+00
   3.6499015E-04   1.1473170E+05   -1.7196273E+00
   3.6667571E-04   1.1382640E+05   -1.7190599E+00
   3.6836906E-04   1.1292855E+05   -1.7184928E+00
   3.7007022E-04   1.1203807E+05   -1.7179261E+00
   3.7177925E-04   1.1115490E+05   -1.7173597E+00
   3.7349616E-04   1.1027898E+05   -1.7167937E+00
   3.7522101E-04   1.0941024E+05   -1.7162280E+00
   3.7695382E-04   1.0854864E+05   -1.7156626E+00
   3.7869463E-04   1.0769410E+05   -1.7150976E+00
   3.8044348E-04   1.0684656E+05   -1.7145330E+00
   3.8220041E-04   1.0600597E+05   -1.7139687E+00
   3.8396545E-04   1.0517227E+05   -1.7134048E+00
   3.8573864E-04   1.0434540E+05   -1.7128413E+00
   3.8752002E-04   1.0352529E+05   -1.7122782E+00
   3.8930963E-04   1.0271190E+05   -1.7117154E+00
   3.9110750E-04   1.0190516E+05   -1.7111531E+00
   3.9291368E-04   1.0110502E+05   -1.7105911E+00
   3.9472820E-04   1.0031142E+05   -1.7100296E+00
   3.9655109E-04   9.9524310E+04   -1.7094685E+00
   3.9838241E-04   9.8743630E+04   -1.7089078E+00
   4.0022218E-04   9.7969327E+04   -1.7083475E+00
   4.0207045E-04   9.7201346E+04   -1.7077876E+00
   4.0392725E-04   9.6439635E+04   -1.7072282E+00
   4.0579263E-04   9.5684139E+04   -1.7066693E+00
   4.0766662E-04   9.4934806E+04   -1.7061107E+00
   4.0954927E-04   9.4191583E+04   -1.7055526E+00
   4.1144061E-04   9.3454419E+04   -1.7049950E+00
   4.1334068E-04   9.2723263E+04   -1.7044379E+00
   4.1524953E-04   9.1998062E+04   -1.7038812E+00
   4.1716720E-04   9.1278768E+04   -1.7033249E+00
   4.1909372E-04   9.0565330E+04   -1.7027692E+00
   4.2102914E-04   8.9857697E+04   -1.7022139E+00
   4.2297350E-04   8.9155822E+04   -1.7016592E+00
   4.2492683E-04   8.8459655E+04   -1.7011049E+00
   4.2688919E-04   8.7769148E+04   -1.7005511E+00
   4.2886061E-04   8.7084254E+04   -1.6999978E+00
   4.3084113E-04   8.6404924E+04   -1.6994450E+00
   4.3283080E-04   8.5731112E+04   -1.6988928E+00
   4.3482966E-04   8.5062770E+04   -1.6983410E+00
   4.3683775E-04   8.4399854E+04   -1.6977898E+00
   4.3885511E-04   8.3742316E+04   -1.6972391E+00
   4.4088179E-04   8.3090111E+04   -1.6966890E+00
   4.4291783E-04   8.2443195E+04   -1.6961394E+00
   4.4496327E-04   8.1801523E+04   -1.6955903E+00
   4.4701816E-04   8.1165050E+04   -1.6950418E+00
   4.4908253E-04   8.0533732E+04   -1.6944938E+00
   4.5115644E-04   7.9907527E+04   -1.6939464E+00
   4.5323993E-04   7.9286391E+04   -1.6933996E+00
   4.5533304E-04   7.8670282E+04   -1.6928533E+00
   4.5743582E-04   7.8059156E+04   -1.6923076E+00
   4.5954830E-04   7.7452972E+04   -1.6917625E+00
   4.6167054E-04   7.6851689E+04   -1.6912180E+00
   4.6380259E-04   7.6255265E+04   -1.6906740E+00
   4.6594448E-04   7.5663659E+04   -1.6901307E+00
   4.6809626E-04   7.5076830E+04   -1.6895879E+00
   4.7025797E-04   7.4494739E+04   -1.6890458E+00
   4.7242967E-04   7.3917346E+04   -1.6885042E+00
   4.7461140E-04   7.3344611E+04   -1.6879633E+00
   4.7680321E-04   7.2776494E+04   -1.6874230E+00
   4.7900514E-04   7.2212958E+04   -1.6868833E+00
   4.8121723E-04   7.1653964E+04   -1.6863442E+00
   4.8343954E-04   7.1099474E+04   -1.6858058E+00
   4.8567212E-04   7.0549449E+04   -1.6852680E+00
   4.8791500E-04   7.0003853E+04   -1.6847309E+00
   4.9016825E-04   6.9462648E+04   -1.6841944E+00
   4.9243189E-04   6.8925797E+04   -1.6836585E+00
   4.9470600E-04   6.8393264E+04   -1.6831233E+00
   4.9699060E-04   6.7865013E+04   -1.6825887E+00
   4.9928575E-04   6.7341007E+04   -1.6820548E+00
   5.0159151E-04   6.6821212E+04   -1.6815216E+00
   5.0390791E-04   6.6305592E+04   -1.6809891E+00
   5.0623501E-04   6.5794112E+04   -1.6804572E+00
   5.0857286E-04   6.5286737E+04   -1.6799260E+00
   5.1092150E-04   6.4783433E+04   -1.6793955E+00
   5.1328099E-04   6.4284167E+04   -1.6788657E+00
   5.1565137E-04   6.3788904E+04   -1.6783366E+00
   5.1803270E-04   6.3297611E+04   -1.6778081E+00
   5.2042503E-04   6.2810254E+04   -1.6772804E+00
   5.2282841E-04   6.2326801E+04   -1.6767534E+00
   5.2524289E-04   6.1847220E+04   -1.6762271E+00
   5.2766851E-04   6.1371477E+04   -1.6757015E+00
   5.3010534E-04   6.0899541E+04   -1.6751766E+00
   5.3255342E-04   6.0431381E+04   -1.6746524E+00
   5.3501281E-04   5.9966964E+04   -1.6741290E+00
   5.3748356E-04   5.9506259E+04   -1.6736063E+00
   5.3996571E-04   5.9049236E+04   -1.6730843E+00
   5.4245933E-04   5.8595864E+04   -1.6725631E+00
   5.4496446E-04   5.8146113E+04   -1.6720426E+00
   5.4748117E-04   5.7699951E+04   -1.6715229E+00
   5.5000949E-04   5.7257351E+04   -1.6710039E+00
   5.5254949E-04   5.6818281E+04   -1.6704856E+00
   5.5510123E-04   5.6382712E+04   -1.6699682E+00
   5.5766474E-04   5.5950616E+04   -1.6694515E+00
   5.6024010E-04   5.5521964E+04   -1.6689355E+00
   5.6282734E-04   5.5096726E+04   -1.6684203E+00
   5.6542654E-04   5.4674875E+04   -1.6679059E+00
   5.6803774E-04   5.4256382E+04   -1.6673923E+00
   5.7066099E-04   5.3841220E+04   -1.6668794E+00
   5.7329637E-04   5.3429360E+04   -1.6663674E+00
   5.7594391E-04   5.3020777E+04   -1.6658561E+00
   5.7860368E-04   5.2615441E+04   -1.6653456E+00
   5.8127573E-04   5.2213327E+04   -1.6648359E+00
   5.8396012E-04   5.1814408E+04   -1.6643270E+00
   5.8665691E-04   5.1418657E+04   -1.6638189E+00
   5.8936616E-04   5.1026049E+04   -1.6633116E+00
   5.9208791E-04   5.0636556E+04   -1.6628051E+00
   5.9482223E-04   5.0250153E+04   -1.6622995E+00
   5.9756919E-04   4.9866815E+04   -1.6617946E+00
   6.0032882E-04   4.9486517E+04   -1.6612906E+00
   6.0310120E-04   4.9109232E+04   -1.6607873E+00
   6.0588639E-04   4.8734937E+04   -1.6602850E+00
   6.0868443E-04   4.8363607E+04   -1.6597834E+00
   6.1149540E-04   4.7995217E+04   -1.6592827E+00
   6.1431935E-04   4.7629742E+04   -1.6587828E+00
   6.1715634E-04   4.7267160E+04   -1.6582837E+00
   6.2000644E-04   4.6907445E+04   -1.6577855E+00
   6.2286969E-04   4.6550575E+04   -1.6572881E+00
