#        a       HoverH0(a)       dlogHdloga_of_a(a)
   1.0000000E-04   1.0749349E+06   -1.8412201E+00
   1.0046181E-04   1.0658556E+06   -1.8407204E+00
   1.0092575E-04   1.0568554E+06   -1.8402199E+00
   1.0139184E-04   1.0479337E+06   -1.8397185E+00
   1.0186008E-04   1.0390897E+06   -1.8392163E+00
   1.0233048E-04   1.0303227E+06   -1.8387133E+00
   1.0280305E-04   1.0216320E+06   -1.8382095E+00
   1.0327781E-04   1.0130170E+06   -1.8377048E+00
   1.0375475E-04   1.0044770E+06   -1.8371994E+00
   1.0423390E-04   9.9601131E+05   -1.8366931E+00
   1.0471527E-04   9.8761926E+05   -1.8361860E+00
   1.0519885E-04   9.7930022E+05   -1.8356781E+00
   1.0568467E-04   9.7105352E+05   -1.8351694E+00
   1.0617274E-04   9.6287852E+05   -1.8346599E+00
   1.0666305E-04   9.5477459E+05   -1.8341496E+00
   1.0715563E-04   9.4674110E+05   -1.8336385E+00
   1.0765049E-04   9.3877742E+05   -1.8331266E+00
   1.0814763E-04   9.3088291E+05   -1.8326139E+00
   1.0864707E-04   9.2305698E+05   -1.8321005E+00
   1.0914881E-04   9.1529901E+05   -1.8315863E+00
   1.0965287E-04   9.0760839E+05   -1.8310713E+00
   1.1015926E-04   8.9998453E+05   -1.8305555E+00
   1.1066799E-04   8.9242683E+05   -1.8300390E+00
   1.1117906E-04   8.8493470E+05   -1.8295217E+00
   1.1169250E-04   8.7750757E+05   -1.8290036E+00
   1.1220831E-04   8.7014485E+05   -1.8284848E+00
   1.1272650E-04   8.6284596E+05   -1.8279653E+00
   1.1324708E-04   8.5561036E+05   -1.8274449E+00
   1.1377007E-04   8.4843746E+05   -1.8269239E+00
   1.1429547E-04   8.4132672E+05   -1.8264021E+00
   1.1482330E-04   8.3427758E+05   -1.8258796E+00
   1.1535356E-04   8.2728950E+05   -1.8253563E+00
   1.1588628E-04   8.2036193E+05   -1.8248323E+00
   1.1642145E-04   8.1349434E+05   -1.8243076E+00
   1.1695910E-04   8.0668618E+05   -1.8237822E+00
   1.1749923E-04   7.9993695E+05   -1.8232561E+00
   1.1804185E-04   7.9324610E+05   -1.8227292E+00
   1.1858698E-04   7.8661313E+05   -1.8222016E+00
   1.1913463E-04   7.8003752E+05   -1.8216734E+00
   1.1968481E-04   7.7351876E+05   -1.8211444E+00
   1.2023752E-04   7.6705635E+05   -1.8206148E+00
   1.2079279E-04   7.6064979E+05   -1.8200844E+00
   1.2135063E-04   7.5429858E+05   -1.8195534E+00
   1.2191104E-04   7.4800224E+05   -1.8190217E+00
   1.2247403E-04   7.4176027E+05   -1.8184893E+00
   1.2303963E-04   7.3557219E+05   -1.8179562E+00
   1.2360784E-04   7.2943753E+05   -1.8174225E+00
   1.2417868E-04   7.2335582E+05   -1.8168881E+00
   1.2475215E-04   7.1732657E+05   -1.8163530E+00
   1.2532826E-04   7.1134934E+05   -1.8158173E+00
   1.2590704E-04   7.0542365E+05   -1.8152810E+00
   1.2648850E-04   6.9954905E+05   -1.8147440E+00
   1.2707263E-04   6.9372510E+05   -1.8142063E+00
   1.2765947E-04   6.8795133E+05   -1.8136681E+00
   1.2824901E-04   6.8222732E+05   -1.8131291E+00
   1.2884128E-04   6.7655261E+05   -1.8125896E+00
   1.2943628E-04   6.7092677E+05   -1.8120494E+00
   1.3003403E-04   6.6534937E+05   -1.8115086E+00
   1.3063454E-04   6.5981998E+05   -1.8109673E+00
   1.3123783E-04   6.5433818E+05   -1.8104252E+00
   1.3184390E-04   6.4890354E+05   -1.8098826E+00
   1.3245277E-04   6.4351564E+05   -1.8093394E+00
   1.3306445E-04   6.3817408E+05   -1.8087956E+00
   1.3367895E-04   6.3287845E+05   -1.8082512E+00
   1.3429630E-04   6.2762833E+05   -1.8077063E+00
   1.3491649E-04   6.2242333E+05   -1.8071607E+00
   1.3553955E-04   6.1726305E+05   -1.8066146E+00
   1.3616548E-04   6.1214709E+05   -1.8060679E+00
   1.3679431E-04   6.0707507E+05   -1.8055206E+00
   1.3742604E-04   6.0204659E+05   -1.8049728E+00
   1.3806069E-04   5.9706126E+05   -1.8044244E+00
   1.3869827E-04   5.9211872E+05   -1.8038754E+00
   1.3933879E-04   5.8721858E+05   -1.8033260E+00
   1.3998227E-04   5.8236046E+05   -1.8027759E+00
   1.4062872E-04   5.7754400E+05   -1.8022254E+00
   1.4127816E-04   5.7276882E+05   -1.8016743E+00
   1.4193060E-04   5.6803458E+05   -1.8011227E+00
   1.4258605E-04   5.6334089E+05   -1.8005706E+00
   1.4324453E-04   5.5868741E+05   -1.8000179E+00
   1.4390605E-04   5.5407378E+05   -1.7994648E+00
   1.4457062E-04   5.4949966E+05   -1.7989111E+00
   1.4523826E-04   5.4496468E+05   -1.7983569E+00
   1.4590899E-04   5.4046852E+05   -1.7978023E+00
   1.4658281E-04   5.3601082E+05   -1.7972471E+00
   1.4725974E-04   5.3159124E+05   -1.7966915E+00
   1.4793981E-04   5.2720946E+05   -1.7961354E+00
   1.4862301E-04   5.2286513E+05   -1.7955788E+00
   1.4930936E-04   5.1855794E+05   -1.7950218E+00
   1.4999889E-04   5.1428754E+05   -1.7944643E+00
   1.5069160E-04   5.1005362E+05   -1.7939063E+00
   1.5138751E-04   5.0585586E+05   -1.7933479E+00
   1.5208663E-04   5.0169394E+05   -1.7927890E+00
   1.5278899E-04   4.9756755E+05   -1.7922297E+00
   1.5349458E-04   4.9347636E+05   -1.7916700E+00
   1.5420343E-04   4.8942008E+05   -1.7911098E+00
   1.5491556E-04   4.8539839E+05   -1.7905492E+00
   1.5563098E-04   4.8141099E+05   -1.7899882E+00
   1.5634970E-04   4.7745759E+05   -1.7894267E+00
   1.5707174E-04   4.7353787E+05   -1.7888649E+00
   1.5779711E-04   4.6965155E+05   -1.7883027E+00
   1.5852584E-04   4.6579833E+05   -1.7877400E+00
   1.5925792E-04   4.6197792E+05   -1.7871770E+00
   1.5999339E-04   4.5819004E+05   -1.7866136E+00
   1.6073226E-04   4.5443439E+05   -1.7860498E+00
   1.6147454E-04   4.5071070E+05   -1.7854856E+00
   1.6222024E-04   4.4701868E+05   -1.7849211E+00
   1.6296939E-04   4.4335807E+05   -1.7843562E+00
   1.6372200E-04   4.3972857E+05   -1.7837909E+00
   1.6447809E-04   4.3612992E+05   -1.7832253E+00
   1.6523767E-04   4.3256185E+05   -1.7826593E+00
   1.6600075E-04   4.2902409E+05   -1.7820930E+00
   1.6676736E-04   4.2551637E+05   -1.7815264E+00
   1.6753751E-04   4.2203844E+05   -1.7809594E+00
   1.6831122E-04   4.1859003E+05   -1.7803921E+00
   1.6908849E-04   4.1517087E+05   -1.7798245E+00
   1.6986936E-04   4.1178073E+05   -1.7792566E+00
   1.7065384E-04   4.0841933E+05   -1.7786884E+00
   1.7144193E-04   4.0508644E+05   -1.7781198E+00
   1.7223367E-04   4.0178179E+05   -1.7775510E+00
   1.7302906E-04   3.9850515E+05   -1.7769819E+00
   1.7382813E-04   3.9525627E+05   -1.7764125E+00
   1.7463089E-04   3.9203491E+05   -1.7758428E+00
   1.7543735E-04   3.8884082E+05   -1.7752729E+00
   1.7624754E-04   3.8567376E+05   -1.7747027E+00
   1.7706147E-04   3.8253351E+05   -1.7741322E+00
   1.7787916E-04   3.7941982E+05   -1.7735615E+00
   1.7870062E-04   3.7633247E+05   -1.7729905E+00
   1.7952588E-04   3.7327122E+05   -1.7724193E+00
   1.8035495E-04   3.7023585E+05   -1.7718478E+00
   1.8118785E-04   3.6722613E+05   -1.7712762E+00
   1.8202459E-04   3.6424183E+05   -1.7707043E+00
   1.8286520E-04   3.6128274E+05   -1.7701321E+00
   1.8370969E-04   3.5834863E+05   -1.7695598E+00
   1.8455808E-04   3.5543929E+05   -1.7689873E+00
   1.8541039E-04   3.5255450E+05   -1.7684145E+00
   1.8626663E-04   3.4969404E+05   -1.7678416E+00
   1.8712683E-04   3.4685771E+05   -1.7672684E+00
   1.8799100E-04   3.4404530E+05   -1.7666951E+00
   1.8885917E-04   3.4125659E+05   -1.7661216E+00
   1.8973134E-04   3.3849137E+05   -1.7655480E+00
   1.9060754E-04   3.3574946E+05   -1.7649742E+00
   1.9148778E-04   3.3303063E+05   -1.7644002E+00
   1.9237209E-04   3.3033469E+05   -1.7638260E+00
   1.9326049E-04   3.2766144E+05   -1.7632518E+00
   1.9415299E-04   3.2501069E+05   -1.7626773E+00
   1.9504960E-04   3.2238224E+05   -1.7621028E+00
   1.9595036E-04   3.1977589E+05   -1.7615281E+00
   1.9685528E-04   3.1719145E+05   -1.7609533E+00
   1.9776438E-04   3.1462873E+05   -1.7603784E+00
   1.9867768E-04   3.1208754E+05   -1.7598033E+00
   1.9959519E-04   3.0956770E+05   -1.7592282E+00
   2.0051694E-04   3.0706902E+05   -1.7586530E+00
   2.0144295E-04   3.0459131E+05   -1.7580777E+00
   2.0237324E-04   3.0213440E+05   -1.7575022E+00
   2.0330782E-04   2.9969810E+05   -1.7569267E+00
   2.0424671E-04   2.9728223E+05   -1.7563512E+00
   2.0518995E-04   2.9488662E+05   -1.7557755E+00
   2.0613754E-04   2.9251109E+05   -1.7551999E+00
   2.0708950E-04   2.9015546E+05   -1.7546241E+00
   2.0804586E-04   2.8781957E+05   -1.7540483E+00
   2.0900664E-04   2.8550325E+05   -1.7534725E+00
   2.0997185E-04   2.8320631E+05   -1.7528966E+00
   2.1094152E-04   2.8092860E+05   -1.7523207E+00
   2.1191567E-04   2.7866995E+05   -1.7517447E+00
   2.1289432E-04   2.7643019E+05   -1.7511688E+00
   2.1387749E-04   2.7420916E+05   -1.7505928E+00
   2.1486520E-04   2.7200670E+05   -1.7500168E+00
   2.1585747E-04   2.6982264E+05   -1.7494409E+00
   2.1685432E-04   2.6765683E+05   -1.7488649E+00
   2.1785578E-04   2.6550911E+05   -1.7482889E+00
   2.1886186E-04   2.6337933E+05   -1.7477130E+00
   2.1987259E-04   2.6126732E+05   -1.7471371E+00
   2.2088798E-04   2.5917293E+05   -1.7465612E+00
   2.2190807E-04   2.5709601E+05   -1.7459853E+00
   2.2293286E-04   2.5503642E+05   -1.7454095E+00
   2.2396239E-04   2.5299400E+05   -1.7448338E+00
   2.2499667E-04   2.5096859E+05   -1.7442581E+00
   2.2603573E-04   2.4896007E+05   -1.7436824E+00
   2.2707958E-04   2.4696827E+05   -1.7431068E+00
   2.2812826E-04   2.4499306E+05   -1.7425313E+00
   2.2918178E-04   2.4303429E+05   -1.7419559E+00
   2.3024017E-04   2.4109182E+05   -1.7413806E+00
   2.3130344E-04   2.3916550E+05   -1.7408053E+00
   2.3237162E-04   2.3725521E+05   -1.7402302E+00
   2.3344474E-04   2.3536080E+05   -1.7396551E+00
   2.3452281E-04   2.3348214E+05   -1.7390802E+00
   2.3560586E-04   2.3161908E+05   -1.7385054E+00
   2.3669392E-04   2.2977150E+05   -1.7379307E+00
   2.3778699E-04   2.2793926E+05   -1.7373561E+00
   2.3888512E-04   2.2612223E+05   -1.7367816E+00
   2.3998831E-04   2.2432028E+05   -1.7362073E+00
   2.4109661E-04   2.2253327E+05   -1.7356332E+00
   2.4221001E-04   2.2076109E+05   -1.7350592E+00
   2.4332857E-04   2.1900360E+05   -1.7344853E+00
   2.4445228E-04   2.1726067E+05   -1.7339117E+00
   2.4558119E-04   2.1553218E+05   -1.7333381E+00
   2.4671531E-04   2.1381802E+05   -1.7327648E+00
   2.4785467E-04   2.1211804E+05   -1.7321916E+00
   2.4899928E-04   2.1043213E+05   -1.7316187E+00
   2.5014919E-04   2.0876018E+05   -1.7310459E+00
   2.5130440E-04   2.0710206E+05   -1.7304733E+00
   2.5246495E-04   2.0545765E+05   -1.7299010E+00
   2.5363086E-04   2.0382683E+05   -1.7293288E+00
   2.5480216E-04   2.0220949E+05   -1.7287569E+00
   2.5597886E-04   2.0060551E+05   -1.7281851E+00
   2.5716100E-04   1.9901478E+05   -1.7276137E+00
   2.5834859E-04   1.9743719E+05   -1.7270424E+00
   2.5954168E-04   1.9587261E+05   -1.7264714E+00
   2.6074027E-04   1.9432094E+05   -1.7259006E+00
   2.6194439E-04   1.9278208E+05   -1.7253301E+00
   2.6315408E-04   1.9125590E+05   -1.7247599E+00
   2.6436935E-04   1.8974230E+05   -1.7241899E+00
   2.6559024E-04   1.8824118E+05   -1.7236202E+00
   2.6681676E-04   1.8675242E+05   -1.7230507E+00
   2.6804895E-04   1.8527592E+05   -1.7224816E+00
   2.6928683E-04   1.8381158E+05   -1.7219127E+00
   2.7053042E-04   1.8235929E+05   -1.7213441E+00
   2.7177976E-04   1.8091894E+05   -1.7207759E+00
   2.7303487E-04   1.7949045E+05   -1.7202079E+00
   2.7429577E-04   1.7807369E+05   -1.7196402E+00
   2.7556250E-04   1.7666859E+05   -1.7190729E+00
   2.7683507E-04   1.7527502E+05   -1.7185059E+00
   2.7811353E-04   1.7389291E+05   -1.7179392E+00
   2.7939788E-04   1.7252214E+05   -1.7173728E+00
   2.8068817E-04   1.7116263E+05   -1.7168068E+00
   2.8198442E-04   1.6981427E+05   -1.7162411E+00
   2.8328665E-04   1.6847697E+05   -1.7156758E+00
   2.8459490E-04   1.6715064E+05   -1.7151109E+00
   2.8590919E-04   1.6583518E+05   -1.7145463E+00
   2.8722955E-04   1.6453050E+05   -1.7139820E+00
   2.8855600E-04   1.6323651E+05   -1.7134182E+00
   2.8988859E-04   1.6195312E+05   -1.7128547E+00
   2.9122732E-04   1.6068024E+05   -1.7122916E+00
   2.9257224E-04   1.5941777E+05   -1.7117289E+00
   2.9392337E-04   1.5816563E+05   -1.7111666E+00
   2.9528074E-04   1.5692374E+05   -1.7106047E+00
   2.9664438E-04   1.5569199E+05   -1.7100432E+00
   2.9801431E-04   1.5447032E+05   -1.7094821E+00
   2.9939057E-04   1.5325863E+05   -1.7089215E+00
   3.0077319E-04   1.5205683E+05   -1.7083612E+00
   3.0216219E-04   1.5086485E+05   -1.7078014E+00
   3.0355761E-04   1.4968260E+05   -1.7072421E+00
   3.0495947E-04   1.4850999E+05   -1.7066831E+00
   3.0636780E-04   1.4734696E+05   -1.7061246E+00
   3.0778264E-04   1.4619340E+05   -1.7055666E+00
   3.0920401E-04   1.4504925E+05   -1.7050090E+00
   3.1063195E-04   1.4391442E+05   -1.7044519E+00
   3.1206648E-04   1.4278884E+05   -1.7038952E+00
   3.1350764E-04   1.4167243E+05   -1.7033391E+00
   3.1495545E-04   1.4056510E+05   -1.7027834E+00
   3.1640994E-04   1.3946678E+05   -1.7022281E+00
   3.1787116E-04   1.3837741E+05   -1.7016734E+00
   3.1933912E-04   1.3729689E+05   -1.7011192E+00
   3.2081386E-04   1.3622515E+05   -1.7005654E+00
   3.2229541E-04   1.3516213E+05   -1.7000122E+00
   3.2378381E-04   1.3410774E+05   -1.6994595E+00
   3.2527908E-04   1.3306192E+05   -1.6989073E+00
   3.2678125E-04   1.3202459E+05   -1.6983556E+00
   3.2829036E-04   1.3099568E+05   -1.6978044E+00
   3.2980644E-04   1.2997512E+05   -1.6972537E+00
   3.3132952E-04   1.2896283E+05   -1.6967036E+00
   3.3285963E-04   1.2795875E+05   -1.6961541E+00
   3.3439681E-04   1.2696282E+05   -1.6956051E+00
   3.3594109E-04   1.2597495E+05   -1.6950566E+00
   3.3749250E-04   1.2499508E+05   -1.6945087E+00
   3.3905108E-04   1.2402315E+05   -1.6939613E+00
   3.4061685E-04   1.2305909E+05   -1.6934145E+00
   3.4218986E-04   1.2210283E+05   -1.6928683E+00
   3.4377013E-04   1.2115430E+05   -1.6923226E+00
   3.4535769E-04   1.2021344E+05   -1.6917776E+00
   3.4695259E-04   1.1928019E+05   -1.6912331E+00
   3.4855485E-04   1.1835449E+05   -1.6906892E+00
   3.5016452E-04   1.1743626E+05   -1.6901459E+00
   3.5178161E-04   1.1652544E+05   -1.6896032E+00
   3.5340618E-04   1.1562198E+05   -1.6890611E+00
   3.5503824E-04   1.1472581E+05   -1.6885196E+00
   3.5667785E-04   1.1383687E+05   -1.6879787E+00
   3.5832502E-04   1.1295510E+05   -1.6874384E+00
   3.5997981E-04   1.1208044E+05   -1.6868988E+00
   3.6164223E-04   1.1121282E+05   -1.6863598E+00
   3.6331233E-04   1.1035220E+05   -1.6858214E+00
   3.6499015E-04   1.0949851E+05   -1.6852837E+00
   3.6667571E-04   1.0865169E+05   -1.6847465E+00
   3.6836906E-04   1.0781169E+05   -1.6842101E+00
   3.7007022E-04   1.0697845E+05   -1.6836743E+00
   3.7177925E-04   1.0615190E+05   -1.6831391E+00
   3.7349616E-04   1.0533201E+05   -1.6826046E+00
   3.7522101E-04   1.0451870E+05   -1.6820708E+00
   3.7695382E-04   1.0371193E+05   -1.6815376E+00
   3.7869463E-04   1.0291164E+05   -1.6810051E+00
   3.8044348E-04   1.0211777E+05   -1.6804733E+00
   3.8220041E-04   1.0133028E+05   -1.6799421E+00
   3.8396545E-04   1.0054910E+05   -1.6794117E+00
   3.8573864E-04   9.9774192E+04   -1.6788819E+00
   3.8752002E-04   9.9005496E+04   -1.6783528E+00
   3.8930963E-04   9.8242962E+04   -1.6778245E+00
   3.9110750E-04   9.7486538E+04   -1.6772968E+00
   3.9291368E-04   9.6736174E+04   -1.6767698E+00
   3.9472820E-04   9.5991817E+04   -1.6762436E+00
   3.9655109E-04   9.5253420E+04   -1.6757180E+00
   3.9838241E-04   9.4520930E+04   -1.6751932E+00
   4.0022218E-04   9.3794301E+04   -1.6746691E+00
   4.0207045E-04   9.3073482E+04   -1.6741457E+00
   4.0392725E-04   9.2358425E+04   -1.6736231E+00
   4.0579263E-04   9.1649082E+04   -1.6731011E+00
   4.0766662E-04   9.0945406E+04   -1.6725800E+00
   4.0954927E-04   9.0247349E+04   -1.6720595E+00
   4.1144061E-04   8.9554865E+04   -1.6715398E+00
   4.1334068E-04   8.8867906E+04   -1.6710209E+00
   4.1524953E-04   8.8186428E+04   -1.6705027E+00
   4.1716720E-04   8.7510385E+04   -1.6699853E+00
   4.1909372E-04   8.6839731E+04   -1.6694686E+00
   4.2102914E-04   8.6174422E+04   -1.6689528E+00
   4.2297350E-04   8.5514413E+04   -1.6684376E+00
   4.2492683E-04   8.4859660E+04   -1.6679233E+00
   4.2688919E-04   8.4210120E+04   -1.6674097E+00
   4.2886061E-04   8.3565749E+04   -1.6668969E+00
   4.3084113E-04   8.2926505E+04   -1.6663849E+00
   4.3283080E-04   8.2292345E+04   -1.6658737E+00
   4.3482966E-04   8.1663227E+04   -1.6653632E+00
   4.3683775E-04   8.1039108E+04   -1.6648536E+00
   4.3885511E-04   8.0419948E+04   -1.6643448E+00
   4.4088179E-04   7.9805706E+04   -1.6638367E+00
   4.4291783E-04   7.9196340E+04   -1.6633295E+00
   4.4496327E-04   7.8591811E+04   -1.6628231E+00
   4.4701816E-04   7.7992078E+04   -1.6623175E+00
   4.4908253E-04   7.7397102E+04   -1.6618127E+00
   4.5115644E-04   7.6806843E+04   -1.6613087E+00
   4.5323993E-04   7.6221263E+04   -1.6608055E+00
   4.5533304E-04   7.5640322E+04   -1.6603032E+00
   4.5743582E-04   7.5063983E+04   -1.6598017E+00
   4.5954830E-04   7.4492207E+04   -1.6593010E+00
   4.6167054E-04   7.3924957E+04   -1.6588012E+00
   4.6380259E-04   7.3362195E+04   -1.6583022E+00
   4.6594448E-04   7.2803885E+04   -1.6578041E+00
   4.6809626E-04   7.2249989E+04   -1.6573068E+00
   4.7025797E-04   7.1700471E+04   -1.6568103E+00
   4.7242967E-04   7.1155296E+04   -1.6563147E+00
   4.7461140E-04   7.0614426E+04   -1.6558199E+00
   4.7680321E-04   7.0077828E+04   -1.6553260E+00
   4.7900514E-04   6.9545465E+04   -1.6548330E+00
   4.8121723E-04   6.9017304E+04   -1.6543408E+00
   4.8343954E-04   6.8493308E+04   -1.6538495E+00
   4.8567212E-04   6.7973445E+04   -1.6533591E+00
   4.8791500E-04   6.7457680E+04   -1.6528695E+00
   4.9016825E-04   6.6945979E+04   -1.6523808E+00
   4.9243189E-04   6.6438309E+04   -1.6518930E+00
   4.9470600E-04   6.5934637E+04   -1.6514061E+00
   4.9699060E-04   6.5434930E+04   -1.6509201E+00
   4.9928575E-04   6.4939155E+04   -1.6504349E+00
   5.0159151E-04   6.4447281E+04   -1.6499506E+00
   5.0390791E-04   6.3959274E+04   -1.6494672E+00
   5.0623501E-04   6.3475105E+04   -1.6489847E+00
   5.0857286E-04   6.2994740E+04   -1.6485032E+00
   5.1092150E-04   6.2518149E+04   -1.6480225E+00
   5.1328099E-04   6.2045302E+04   -1.6475427E+00
   5.1565137E-04   6.1576166E+04   -1.6470638E+00
   5.1803270E-04   6.1110713E+04   -1.6465858E+00
   5.2042503E-04   6.0648911E+04   -1.6461087E+00
   5.2282841E-04   6.0190731E+04   -1.6456326E+00
   5.2524289E-04   5.9736144E+04   -1.6451573E+00
   5.2766851E-04   5.9285120E+04   -1.6446830E+00
   5.3010534E-04   5.8837629E+04   -1.6442096E+00
   5.3255342E-04   5.8393643E+04   -1.6437371E+00
   5.3501281E-04   5.7953134E+04   -1.6432655E+00
   5.3748356E-04   5.7516072E+04   -1.6427949E+00
   5.3996571E-04   5.7082430E+04   -1.6423252E+00
   5.4245933E-04   5.6652180E+04   -1.6418564E+00
   5.4496446E-04   5.6225295E+04   -1.6413886E+00
   5.4748117E-04   5.5801746E+04   -1.6409217E+00
   5.5000949E-04   5.5381508E+04   -1.6404557E+00
   5.5254949E-04   5.4964551E+04   -1.6399906E+00
   5.5510123E-04   5.4550851E+04   -1.6395266E+00
   5.5766474E-04   5.4140380E+04   -1.6390634E+00
   5.6024010E-04   5.3733112E+04   -1.6386012E+00
   5.6282734E-04   5.3329022E+04   -1.6381399E+00
   5.6542654E-04   5.2928082E+04   -1.6376796E+00
   5.6803774E-04   5.2530268E+04   -1.6372203E+00
   5.7066099E-04   5.2135555E+04   -1.6367618E+00
   5.7329637E-04   5.1743916E+04   -1.6363044E+00
   5.7594391E-04   5.1355328E+04   -1.6358479E+00
   5.7860368E-04   5.0969765E+04   -1.6353924E+00
   5.8127573E-04   5.0587203E+04   -1.6349378E+00
   5.8396012E-04   5.0207617E+04   -1.6344842E+00
   5.8665691E-04   4.9830983E+04   -1.6340315E+00
   5.8936616E-04   4.9457278E+04   -1.6335798E+00
   5.9208791E-04   4.9086478E+04   -1.6331291E+00
   5.9482223E-04   4.8718558E+04   -1.6326794E+00
   5.9756919E-04   4.8353496E+04   -1.6322306E+00
   6.0032882E-04   4.7991269E+04   -1.6317828E+00
   6.0310120E-04   4.7631854E+04   -1.6313359E+00
   6.0588639E-04   4.7275228E+04   -1.6308901E+00
   6.0868443E-04   4.6921368E+04   -1.6304452E+00
   6.1149540E-04   4.6570251E+04   -1.6300013E+00
   6.1431935E-04   4.6221857E+04   -1.6295584E+00
   6.1715634E-04   4.5876163E+04   -1.6291164E+00
   6.2000644E-04   4.5533147E+04   -1.6286755E+00
   6.2286969E-04   4.5192787E+04   -1.6282355E+00
