#        a       HoverH0(a)       dlogHdloga_of_a(a)
   1.0000000E-04   1.1592610E+06   -1.8940919E+00
   1.0046181E-04   1.1491892E+06   -1.8937068E+00
   1.0092575E-04   1.1392070E+06   -1.8933206E+00
   1.0139184E-04   1.1293134E+06   -1.8929334E+00
   1.0186008E-04   1.1195078E+06   -1.8925452E+00
   1.0233048E-04   1.1097892E+06   -1.8921560E+00
   1.0280305E-04   1.1001571E+06   -1.8917658E+00
   1.0327781E-04   1.0906105E+06   -1.8913745E+00
   1.0375475E-04   1.0811487E+06   -1.8909822E+00
   1.0423390E-04   1.0717709E+06   -1.8905889E+00
   1.0471527E-04   1.0624764E+06   -1.8901946E+00
   1.0519885E-04   1.0532644E+06   -1.8897992E+00
   1.0568467E-04   1.0441341E+06   -1.8894029E+00
   1.0617274E-04   1.0350850E+06   -1.8890055E+00
   1.0666305E-04   1.0261161E+06   -1.8886071E+00
   1.0715563E-04   1.0172268E+06   -1.8882077E+00
   1.0765049E-04   1.0084164E+06   -1.8878072E+00
   1.0814763E-04   9.9968411E+05   -1.8874058E+00
   1.0864707E-04   9.9102930E+05   -1.8870033E+00
   1.0914881E-04   9.8245123E+05   -1.8865998E+00
   1.0965287E-04   9.7394923E+05   -1.8861953E+00
   1.1015926E-04   9.6552261E+05   -1.8857898E+00
   1.1066799E-04   9.5717068E+05   -1.8853832E+00
   1.1117906E-04   9.4889278E+05   -1.8849756E+00
   1.1169250E-04   9.4068824E+05   -1.8845671E+00
   1.1220831E-04   9.3255639E+05   -1.8841575E+00
   1.1272650E-04   9.2449659E+05   -1.8837469E+00
   1.1324708E-04   9.1650818E+05   -1.8833353E+00
   1.1377007E-04   9.0859053E+05   -1.8829226E+00
   1.1429547E-04   9.0074299E+05   -1.8825090E+00
   1.1482330E-04   8.9296493E+05   -1.8820943E+00
   1.1535356E-04   8.8525573E+05   -1.8816787E+00
   1.1588628E-04   8.7761477E+05   -1.8812620E+00
   1.1642145E-04   8.7004144E+05   -1.8808443E+00
   1.1695910E-04   8.6253512E+05   -1.8804256E+00
   1.1749923E-04   8.5509521E+05   -1.8800059E+00
   1.1804185E-04   8.4772111E+05   -1.8795852E+00
   1.1858698E-04   8.4041224E+05   -1.8791635E+00
   1.1913463E-04   8.3316801E+05   -1.8787407E+00
   1.1968481E-04   8.2598783E+05   -1.8783170E+00
   1.2023752E-04   8.1887113E+05   -1.8778923E+00
   1.2079279E-04   8.1181734E+05   -1.8774666E+00
   1.2135063E-04   8.0482589E+05   -1.8770398E+00
   1.2191104E-04   7.9789622E+05   -1.8766121E+00
   1.2247403E-04   7.9102778E+05   -1.8761834E+00
   1.2303963E-04   7.8422002E+05   -1.8757536E+00
   1.2360784E-04   7.7747238E+05   -1.8753229E+00
   1.2417868E-04   7.7078434E+05   -1.8748912E+00
   1.2475215E-04   7.6415534E+05   -1.8744585E+00
   1.2532826E-04   7.5758487E+05   -1.8740247E+00
   1.2590704E-04   7.5107240E+05   -1.8735900E+00
   1.2648850E-04   7.4461741E+05   -1.8731543E+00
   1.2707263E-04   7.3821937E+05   -1.8727177E+00
   1.2765947E-04   7.3187779E+05   -1.8722800E+00
   1.2824901E-04   7.2559215E+05   -1.8718413E+00
   1.2884128E-04   7.1936194E+05   -1.8714017E+00
   1.2943628E-04   7.1318668E+05   -1.8709610E+00
   1.3003403E-04   7.0706587E+05   -1.8705194E+00
   1.3063454E-04   7.0099901E+05   -1.8700768E+00
   1.3123783E-04   6.9498563E+05   -1.8696332E+00
   1.3184390E-04   6.8902524E+05   -1.8691887E+00
   1.3245277E-04   6.8311737E+05   -1.8687431E+00
   1.3306445E-04   6.7726155E+05   -1.8682966E+00
   1.3367895E-04   6.7145731E+05   -1.8678491E+00
   1.3429630E-04   6.6570418E+05   -1.8674007E+00
   1.3491649E-04   6.6000172E+05   -1.8669512E+00
   1.3553955E-04   6.5434946E+05   -1.8665008E+00
   1.3616548E-04   6.4874695E+05   -1.8660494E+00
   1.3679431E-04   6.4319375E+05   -1.8655971E+00
   1.3742604E-04   6.3768942E+05   -1.8651438E+00
   1.3806069E-04   6.3223351E+05   -1.8646895E+00
   1.3869827E-04   6.2682560E+05   -1.8642343E+00
   1.3933879E-04   6.2146524E+05   -1.8637781E+00
   1.3998227E-04   6.1615203E+05   -1.8633210E+00
   1.4062872E-04   6.1088552E+05   -1.8628629E+00
   1.4127816E-04   6.0566531E+05   -1.8624038E+00
   1.4193060E-04   6.0049098E+05   -1.8619438E+00
   1.4258605E-04   5.9536212E+05   -1.8614828E+00
   1.4324453E-04   5.9027832E+05   -1.8610209E+00
   1.4390605E-04   5.8523918E+05   -1.8605581E+00
   1.4457062E-04   5.8024430E+05   -1.8600943E+00
   1.4523826E-04   5.7529327E+05   -1.8596295E+00
   1.4590899E-04   5.7038572E+05   -1.8591639E+00
   1.4658281E-04   5.6552124E+05   -1.8586972E+00
   1.4725974E-04   5.6069946E+05   -1.8582297E+00
   1.4793981E-04   5.5591998E+05   -1.8577612E+00
   1.4862301E-04   5.5118244E+05   -1.8572918E+00
   1.4930936E-04   5.4648646E+05   -1.8568214E+00
   1.4999889E-04   5.4183165E+05   -1.8563502E+00
   1.5069160E-04   5.3721767E+05   -1.8558780E+00
   1.5138751E-04   5.3264413E+05   -1.8554048E+00
   1.5208663E-04   5.2811069E+05   -1.8549308E+00
   1.5278899E-04   5.2361697E+05   -1.8544558E+00
   1.5349458E-04   5.1916263E+05   -1.8539799E+00
   1.5420343E-04   5.1474731E+05   -1.8535032E+00
   1.5491556E-04   5.1037066E+05   -1.8530255E+00
   1.5563098E-04   5.0603234E+05   -1.8525468E+00
   1.5634970E-04   5.0173201E+05   -1.8520673E+00
   1.5707174E-04   4.9746932E+05   -1.8515869E+00
   1.5779711E-04   4.9324394E+05   -1.8511056E+00
   1.5852584E-04   4.8905553E+05   -1.8506234E+00
   1.5925792E-04   4.8490377E+05   -1.8501403E+00
   1.5999339E-04   4.8078833E+05   -1.8496563E+00
   1.6073226E-04   4.7670887E+05   -1.8491714E+00
   1.6147454E-04   4.7266509E+05   -1.8486856E+00
   1.6222024E-04   4.6865666E+05   -1.8481989E+00
   1.6296939E-04   4.6468327E+05   -1.8477114E+00
   1.6372200E-04   4.6074460E+05   -1.8472229E+00
   1.6447809E-04   4.5684034E+05   -1.8467336E+00
   1.6523767E-04   4.5297019E+05   -1.8462435E+00
   1.6600075E-04   4.4913384E+05   -1.8457524E+00
   1.6676736E-04   4.4533099E+05   -1.8452605E+00
   1.6753751E-04   4.4156135E+05   -1.8447677E+00
   1.6831122E-04   4.3782460E+05   -1.8442741E+00
   1.6908849E-04   4.3412047E+05   -1.8437796E+00
   1.6986936E-04   4.3044865E+05   -1.8432842E+00
   1.7065384E-04   4.2680887E+05   -1.8427880E+00
   1.7144193E-04   4.2320083E+05   -1.8422910E+00
   1.7223367E-04   4.1962426E+05   -1.8417931E+00
   1.7302906E-04   4.1607886E+05   -1.8412943E+00
   1.7382813E-04   4.1256438E+05   -1.8407947E+00
   1.7463089E-04   4.0908052E+05   -1.8402943E+00
   1.7543735E-04   4.0562701E+05   -1.8397930E+00
   1.7624754E-04   4.0220359E+05   -1.8392910E+00
   1.7706147E-04   3.9880999E+05   -1.8387880E+00
   1.7787916E-04   3.9544593E+05   -1.8382843E+00
   1.7870062E-04   3.9211117E+05   -1.8377797E+00
   1.7952588E-04   3.8880543E+05   -1.8372744E+00
   1.8035495E-04   3.8552845E+05   -1.8367682E+00
   1.8118785E-04   3.8227999E+05   -1.8362612E+00
   1.8202459E-04   3.7905979E+05   -1.8357534E+00
   1.8286520E-04   3.7586759E+05   -1.8352448E+00
   1.8370969E-04   3.7270315E+05   -1.8347353E+00
   1.8455808E-04   3.6956622E+05   -1.8342251E+00
   1.8541039E-04   3.6645656E+05   -1.8337141E+00
   1.8626663E-04   3.6337391E+05   -1.8332023E+00
   1.8712683E-04   3.6031805E+05   -1.8326898E+00
   1.8799100E-04   3.5728873E+05   -1.8321764E+00
   1.8885917E-04   3.5428572E+05   -1.8316623E+00
   1.8973134E-04   3.5130878E+05   -1.8311474E+00
   1.9060754E-04   3.4835768E+05   -1.8306317E+00
   1.9148778E-04   3.4543220E+05   -1.8301152E+00
   1.9237209E-04   3.4253210E+05   -1.8295980E+00
   1.9326049E-04   3.3965715E+05   -1.8290800E+00
   1.9415299E-04   3.3680714E+05   -1.8285613E+00
   1.9504960E-04   3.3398185E+05   -1.8280418E+00
   1.9595036E-04   3.3118104E+05   -1.8275216E+00
   1.9685528E-04   3.2840451E+05   -1.8270006E+00
   1.9776438E-04   3.2565205E+05   -1.8264789E+00
   1.9867768E-04   3.2292342E+05   -1.8259565E+00
   1.9959519E-04   3.2021844E+05   -1.8254333E+00
   2.0051694E-04   3.1753687E+05   -1.8249094E+00
   2.0144295E-04   3.1487853E+05   -1.8243847E+00
   2.0237324E-04   3.1224319E+05   -1.8238594E+00
   2.0330782E-04   3.0963066E+05   -1.8233333E+00
   2.0424671E-04   3.0704073E+05   -1.8228065E+00
   2.0518995E-04   3.0447321E+05   -1.8222790E+00
   2.0613754E-04   3.0192789E+05   -1.8217509E+00
   2.0708950E-04   2.9940458E+05   -1.8212220E+00
   2.0804586E-04   2.9690308E+05   -1.8206924E+00
   2.0900664E-04   2.9442320E+05   -1.8201621E+00
   2.0997185E-04   2.9196474E+05   -1.8196311E+00
   2.1094152E-04   2.8952753E+05   -1.8190995E+00
   2.1191567E-04   2.8711136E+05   -1.8185672E+00
   2.1289432E-04   2.8471605E+05   -1.8180342E+00
   2.1387749E-04   2.8234142E+05   -1.8175005E+00
   2.1486520E-04   2.7998729E+05   -1.8169662E+00
   2.1585747E-04   2.7765347E+05   -1.8164312E+00
   2.1685432E-04   2.7533978E+05   -1.8158955E+00
   2.1785578E-04   2.7304604E+05   -1.8153592E+00
   2.1886186E-04   2.7077208E+05   -1.8148223E+00
   2.1987259E-04   2.6851773E+05   -1.8142847E+00
   2.2088798E-04   2.6628280E+05   -1.8137465E+00
   2.2190807E-04   2.6406713E+05   -1.8132076E+00
   2.2293286E-04   2.6187055E+05   -1.8126681E+00
   2.2396239E-04   2.5969288E+05   -1.8121280E+00
   2.2499667E-04   2.5753397E+05   -1.8115873E+00
   2.2603573E-04   2.5539364E+05   -1.8110459E+00
   2.2707958E-04   2.5327173E+05   -1.8105040E+00
   2.2812826E-04   2.5116808E+05   -1.8099614E+00
   2.2918178E-04   2.4908252E+05   -1.8094183E+00
   2.3024017E-04   2.4701490E+05   -1.8088745E+00
   2.3130344E-04   2.4496505E+05   -1.8083302E+00
   2.3237162E-04   2.4293283E+05   -1.8077852E+00
   2.3344474E-04   2.4091807E+05   -1.8072397E+00
   2.3452281E-04   2.3892062E+05   -1.8066936E+00
   2.3560586E-04   2.3694033E+05   -1.8061470E+00
   2.3669392E-04   2.3497704E+05   -1.8055997E+00
   2.3778699E-04   2.3303061E+05   -1.8050519E+00
   2.3888512E-04   2.3110089E+05   -1.8045036E+00
   2.3998831E-04   2.2918772E+05   -1.8039547E+00
   2.4109661E-04   2.2729097E+05   -1.8034053E+00
   2.4221001E-04   2.2541049E+05   -1.8028553E+00
   2.4332857E-04   2.2354613E+05   -1.8023047E+00
   2.4445228E-04   2.2169775E+05   -1.8017537E+00
   2.4558119E-04   2.1986522E+05   -1.8012021E+00
   2.4671531E-04   2.1804839E+05   -1.8006500E+00
   2.4785467E-04   2.1624712E+05   -1.8000974E+00
   2.4899928E-04   2.1446128E+05   -1.7995443E+00
   2.5014919E-04   2.1269073E+05   -1.7989906E+00
   2.5130440E-04   2.1093533E+05   -1.7984365E+00
   2.5246495E-04   2.0919496E+05   -1.7978819E+00
   2.5363086E-04   2.0746947E+05   -1.7973267E+00
   2.5480216E-04   2.0575875E+05   -1.7967711E+00
   2.5597886E-04   2.0406265E+05   -1.7962151E+00
   2.5716100E-04   2.0238105E+05   -1.7956585E+00
   2.5834859E-04   2.0071383E+05   -1.7951015E+00
   2.5954168E-04   1.9906085E+05   -1.7945440E+00
   2.6074027E-04   1.9742199E+05   -1.7939860E+00
   2.6194439E-04   1.9579713E+05   -1.7934276E+00
   2.6315408E-04   1.9418614E+05   -1.7928688E+00
   2.6436935E-04   1.9258890E+05   -1.7923095E+00
   2.6559024E-04   1.9100530E+05   -1.7917498E+00
   2.6681676E-04   1.8943520E+05   -1.7911896E+00
   2.6804895E-04   1.8787849E+05   -1.7906290E+00
   2.6928683E-04   1.8633506E+05   -1.7900680E+00
   2.7053042E-04   1.8480479E+05   -1.7895066E+00
   2.7177976E-04   1.8328755E+05   -1.7889447E+00
   2.7303487E-04   1.8178325E+05   -1.7883825E+00
   2.7429577E-04   1.8029175E+05   -1.7878199E+00
   2.7556250E-04   1.7881296E+05   -1.7872569E+00
   2.7683507E-04   1.7734676E+05   -1.7866934E+00
   2.7811353E-04   1.7589304E+05   -1.7861296E+00
   2.7939788E-04   1.7445168E+05   -1.7855655E+00
   2.8068817E-04   1.7302259E+05   -1.7850009E+00
   2.8198442E-04   1.7160565E+05   -1.7844360E+00
   2.8328665E-04   1.7020076E+05   -1.7838708E+00
   2.8459490E-04   1.6880781E+05   -1.7833051E+00
   2.8590919E-04   1.6742670E+05   -1.7827392E+00
   2.8722955E-04   1.6605732E+05   -1.7821729E+00
   2.8855600E-04   1.6469957E+05   -1.7816062E+00
   2.8988859E-04   1.6335334E+05   -1.7810392E+00
   2.9122732E-04   1.6201855E+05   -1.7804719E+00
   2.9257224E-04   1.6069508E+05   -1.7799043E+00
   2.9392337E-04   1.5938284E+05   -1.7793364E+00
   2.9528074E-04   1.5808173E+05   -1.7787681E+00
   2.9664438E-04   1.5679165E+05   -1.7781996E+00
   2.9801431E-04   1.5551250E+05   -1.7776307E+00
   2.9939057E-04   1.5424420E+05   -1.7770616E+00
   3.0077319E-04   1.5298664E+05   -1.7764922E+00
   3.0216219E-04   1.5173974E+05   -1.7759225E+00
   3.0355761E-04   1.5050339E+05   -1.7753525E+00
   3.0495947E-04   1.4927750E+05   -1.7747823E+00
   3.0636780E-04   1.4806199E+05   -1.7742118E+00
   3.0778264E-04   1.4685677E+05   -1.7736410E+00
   3.0920401E-04   1.4566173E+05   -1.7730700E+00
   3.1063195E-04   1.4447681E+05   -1.7724988E+00
   3.1206648E-04   1.4330190E+05   -1.7719273E+00
   3.1350764E-04   1.4213691E+05   -1.7713556E+00
   3.1495545E-04   1.4098177E+05   -1.7707837E+00
   3.1640994E-04   1.3983639E+05   -1.7702115E+00
   3.1787116E-04   1.3870068E+05   -1.7696391E+00
   3.1933912E-04   1.3757455E+05   -1.7690666E+00
   3.2081386E-04   1.3645793E+05   -1.7684938E+00
   3.2229541E-04   1.3535073E+05   -1.7679208E+00
   3.2378381E-04   1.3425286E+05   -1.7673476E+00
   3.2527908E-04   1.3316426E+05   -1.7667743E+00
   3.2678125E-04   1.3208482E+05   -1.7662007E+00
   3.2829036E-04   1.3101449E+05   -1.7656270E+00
   3.2980644E-04   1.2995317E+05   -1.7650532E+00
   3.3132952E-04   1.2890079E+05   -1.7644791E+00
   3.3285963E-04   1.2785727E+05   -1.7639050E+00
   3.3439681E-04   1.2682254E+05   -1.7633306E+00
   3.3594109E-04   1.2579651E+05   -1.7627562E+00
   3.3749250E-04   1.2477911E+05   -1.7621815E+00
   3.3905108E-04   1.2377027E+05   -1.7616068E+00
   3.4061685E-04   1.2276991E+05   -1.7610320E+00
   3.4218986E-04   1.2177796E+05   -1.7604570E+00
   3.4377013E-04   1.2079434E+05   -1.7598819E+00
   3.4535769E-04   1.1981898E+05   -1.7593067E+00
   3.4695259E-04   1.1885182E+05   -1.7587314E+00
   3.4855485E-04   1.1789277E+05   -1.7581560E+00
   3.5016452E-04   1.1694178E+05   -1.7575805E+00
   3.5178161E-04   1.1599876E+05   -1.7570050E+00
   3.5340618E-04   1.1506365E+05   -1.7564293E+00
   3.5503824E-04   1.1413639E+05   -1.7558536E+00
   3.5667785E-04   1.1321689E+05   -1.7552779E+00
   3.5832502E-04   1.1230510E+05   -1.7547020E+00
   3.5997981E-04   1.1140095E+05   -1.7541262E+00
   3.6164223E-04   1.1050438E+05   -1.7535503E+00
   3.6331233E-04   1.0961531E+05   -1.7529743E+00
   3.6499015E-04   1.0873368E+05   -1.7523983E+00
   3.6667571E-04   1.0785942E+05   -1.7518223E+00
   3.6836906E-04   1.0699249E+05   -1.7512463E+00
   3.7007022E-04   1.0613280E+05   -1.7506702E+00
   3.7177925E-04   1.0528030E+05   -1.7500942E+00
   3.7349616E-04   1.0443492E+05   -1.7495181E+00
   3.7522101E-04   1.0359660E+05   -1.7489421E+00
   3.7695382E-04   1.0276529E+05   -1.7483660E+00
   3.7869463E-04   1.0194092E+05   -1.7477900E+00
   3.8044348E-04   1.0112343E+05   -1.7472140E+00
   3.8220041E-04   1.0031277E+05   -1.7466380E+00
   3.8396545E-04   9.9508862E+04   -1.7460621E+00
   3.8573864E-04   9.8711662E+04   -1.7454862E+00
   3.8752002E-04   9.7921109E+04   -1.7449103E+00
   3.8930963E-04   9.7137145E+04   -1.7443345E+00
   3.9110750E-04   9.6359712E+04   -1.7437588E+00
   3.9291368E-04   9.5588756E+04   -1.7431831E+00
   3.9472820E-04   9.4824219E+04   -1.7426075E+00
   3.9655109E-04   9.4066046E+04   -1.7420320E+00
   3.9838241E-04   9.3314183E+04   -1.7414565E+00
   4.0022218E-04   9.2568575E+04   -1.7408812E+00
   4.0207045E-04   9.1829168E+04   -1.7403059E+00
   4.0392725E-04   9.1095909E+04   -1.7397308E+00
   4.0579263E-04   9.0368744E+04   -1.7391557E+00
   4.0766662E-04   8.9647622E+04   -1.7385808E+00
   4.0954927E-04   8.8932489E+04   -1.7380060E+00
   4.1144061E-04   8.8223294E+04   -1.7374313E+00
   4.1334068E-04   8.7519987E+04   -1.7368567E+00
   4.1524953E-04   8.6822516E+04   -1.7362823E+00
   4.1716720E-04   8.6130832E+04   -1.7357080E+00
   4.1909372E-04   8.5444884E+04   -1.7351339E+00
   4.2102914E-04   8.4764623E+04   -1.7345599E+00
   4.2297350E-04   8.4090000E+04   -1.7339861E+00
   4.2492683E-04   8.3420967E+04   -1.7334125E+00
   4.2688919E-04   8.2757475E+04   -1.7328390E+00
   4.2886061E-04   8.2099478E+04   -1.7322658E+00
   4.3084113E-04   8.1446927E+04   -1.7316927E+00
   4.3283080E-04   8.0799777E+04   -1.7311198E+00
   4.3482966E-04   8.0157980E+04   -1.7305471E+00
   4.3683775E-04   7.9521490E+04   -1.7299746E+00
   4.3885511E-04   7.8890263E+04   -1.7294023E+00
   4.4088179E-04   7.8264252E+04   -1.7288302E+00
   4.4291783E-04   7.7643414E+04   -1.7282583E+00
   4.4496327E-04   7.7027703E+04   -1.7276867E+00
   4.4701816E-04   7.6417076E+04   -1.7271153E+00
   4.4908253E-04   7.5811489E+04   -1.7265442E+00
   4.5115644E-04   7.5210900E+04   -1.7259733E+00
   4.5323993E-04   7.4615264E+04   -1.7254026E+00
   4.5533304E-04   7.4024541E+04   -1.7248322E+00
   4.5743582E-04   7.3438687E+04   -1.7242621E+00
   4.5954830E-04   7.2857661E+04   -1.7236922E+00
   4.6167054E-04   7.2281422E+04   -1.7231227E+00
   4.6380259E-04   7.1709928E+04   -1.7225533E+00
   4.6594448E-04   7.1143139E+04   -1.7219843E+00
   4.6809626E-04   7.0581016E+04   -1.7214156E+00
   4.7025797E-04   7.0023517E+04   -1.7208472E+00
   4.7242967E-04   6.9470603E+04   -1.7202790E+00
   4.7461140E-04   6.8922236E+04   -1.7197112E+00
   4.7680321E-04   6.8378376E+04   -1.7191437E+00
   4.7900514E-04   6.7838985E+04   -1.7185766E+00
   4.8121723E-04   6.7304025E+04   -1.7180097E+00
   4.8343954E-04   6.6773458E+04   -1.7174432E+00
   4.8567212E-04   6.6247246E+04   -1.7168770E+00
   4.8791500E-04   6.5725352E+04   -1.7163112E+00
   4.9016825E-04   6.5207740E+04   -1.7157457E+00
   4.9243189E-04   6.4694373E+04   -1.7151806E+00
   4.9470600E-04   6.4185214E+04   -1.7146158E+00
   4.9699060E-04   6.3680229E+04   -1.7140514E+00
   4.9928575E-04   6.3179380E+04   -1.7134874E+00
   5.0159151E-04   6.2682634E+04   -1.7129237E+00
   5.0390791E-04   6.2189954E+04   -1.7123605E+00
   5.0623501E-04   6.1701307E+04   -1.7117976E+00
   5.0857286E-04   6.1216658E+04   -1.7112351E+00
   5.1092150E-04   6.0735974E+04   -1.7106730E+00
   5.1328099E-04   6.0259220E+04   -1.7101113E+00
   5.1565137E-04   5.9786363E+04   -1.7095501E+00
   5.1803270E-04   5.9317370E+04   -1.7089892E+00
   5.2042503E-04   5.8852208E+04   -1.7084288E+00
   5.2282841E-04   5.8390844E+04   -1.7078688E+00
   5.2524289E-04   5.7933246E+04   -1.7073093E+00
   5.2766851E-04   5.7479383E+04   -1.7067501E+00
   5.3010534E-04   5.7029222E+04   -1.7061915E+00
   5.3255342E-04   5.6582733E+04   -1.7056332E+00
   5.3501281E-04   5.6139883E+04   -1.7050755E+00
   5.3748356E-04   5.5700642E+04   -1.7045181E+00
   5.3996571E-04   5.5264980E+04   -1.7039613E+00
   5.4245933E-04   5.4832866E+04   -1.7034049E+00
   5.4496446E-04   5.4404270E+04   -1.7028490E+00
   5.4748117E-04   5.3979163E+04   -1.7022936E+00
   5.5000949E-04   5.3557514E+04   -1.7017387E+00
   5.5254949E-04   5.3139295E+04   -1.7011842E+00
   5.5510123E-04   5.2724476E+04   -1.7006303E+00
   5.5766474E-04   5.2313028E+04   -1.7000768E+00
   5.6024010E-04   5.1904924E+04   -1.6995239E+00
   5.6282734E-04   5.1500135E+04   -1.6989715E+00
   5.6542654E-04   5.1098632E+04   -1.6984196E+00
   5.6803774E-04   5.0700388E+04   -1.6978682E+00
   5.7066099E-04   5.0305376E+04   -1.6973173E+00
   5.7329637E-04   4.9913568E+04   -1.6967670E+00
   5.7594391E-04   4.9524938E+04   -1.6962172E+00
   5.7860368E-04   4.9139457E+04   -1.6956680E+00
   5.8127573E-04   4.8757101E+04   -1.6951193E+00
   5.8396012E-04   4.8377842E+04   -1.6945712E+00
   5.8665691E-04   4.8001654E+04   -1.6940236E+00
   5.8936616E-04   4.7628511E+04   -1.6934766E+00
   5.9208791E-04   4.7258388E+04   -1.6929301E+00
   5.9482223E-04   4.6891259E+04   -1.6923842E+00
   5.9756919E-04   4.6527100E+04   -1.6918390E+00
   6.0032882E-04   4.6165884E+04   -1.6912942E+00
   6.0310120E-04   4.5807587E+04   -1.6907501E+00
   6.0588639E-04   4.5452185E+04   -1.6902066E+00
   6.0868443E-04   4.5099654E+04   -1.6896636E+00
   6.1149540E-04   4.4749968E+04   -1.6891213E+00
   6.1431935E-04   4.4403105E+04   -1.6885796E+00
   6.1715634E-04   4.4059041E+04   -1.6880385E+00
   6.2000644E-04   4.3717751E+04   -1.6874980E+00
   6.2286969E-04   4.3379213E+04   -1.6869581E+00
