#        a       HoverH0(a)       dlogHdloga_of_a(a)
   1.0000000E-04   1.1801733E+06   -1.8944473E+00
   1.0046181E-04   1.1699179E+06   -1.8940631E+00
   1.0092575E-04   1.1597537E+06   -1.8936779E+00
   1.0139184E-04   1.1496798E+06   -1.8932917E+00
   1.0186008E-04   1.1396954E+06   -1.8929044E+00
   1.0233048E-04   1.1297998E+06   -1.8925161E+00
   1.0280305E-04   1.1199921E+06   -1.8921268E+00
   1.0327781E-04   1.1102715E+06   -1.8917365E+00
   1.0375475E-04   1.1006373E+06   -1.8913452E+00
   1.0423390E-04   1.0910886E+06   -1.8909528E+00
   1.0471527E-04   1.0816248E+06   -1.8905594E+00
   1.0519885E-04   1.0722449E+06   -1.8901650E+00
   1.0568467E-04   1.0629484E+06   -1.8897696E+00
   1.0617274E-04   1.0537344E+06   -1.8893732E+00
   1.0666305E-04   1.0446021E+06   -1.8889757E+00
   1.0715563E-04   1.0355509E+06   -1.8885772E+00
   1.0765049E-04   1.0265801E+06   -1.8881777E+00
   1.0814763E-04   1.0176888E+06   -1.8877772E+00
   1.0864707E-04   1.0088763E+06   -1.8873757E+00
   1.0914881E-04   1.0001421E+06   -1.8869731E+00
   1.0965287E-04   9.9148528E+05   -1.8865696E+00
   1.1015926E-04   9.8290524E+05   -1.8861650E+00
   1.1066799E-04   9.7440126E+05   -1.8857594E+00
   1.1117906E-04   9.6597267E+05   -1.8853527E+00
   1.1169250E-04   9.5761878E+05   -1.8849451E+00
   1.1220831E-04   9.4933892E+05   -1.8845364E+00
   1.1272650E-04   9.4113242E+05   -1.8841268E+00
   1.1324708E-04   9.3299864E+05   -1.8837161E+00
   1.1377007E-04   9.2493690E+05   -1.8833044E+00
   1.1429547E-04   9.1694656E+05   -1.8828917E+00
   1.1482330E-04   9.0902698E+05   -1.8824780E+00
   1.1535356E-04   9.0117752E+05   -1.8820632E+00
   1.1588628E-04   8.9339754E+05   -1.8816475E+00
   1.1642145E-04   8.8568644E+05   -1.8812307E+00
   1.1695910E-04   8.7804357E+05   -1.8808130E+00
   1.1749923E-04   8.7046834E+05   -1.8803942E+00
   1.1804185E-04   8.6296012E+05   -1.8799744E+00
   1.1858698E-04   8.5551833E+05   -1.8795536E+00
   1.1913463E-04   8.4814236E+05   -1.8791319E+00
   1.1968481E-04   8.4083161E+05   -1.8787091E+00
   1.2023752E-04   8.3358551E+05   -1.8782853E+00
   1.2079279E-04   8.2640347E+05   -1.8778605E+00
   1.2135063E-04   8.1928492E+05   -1.8774346E+00
   1.2191104E-04   8.1222928E+05   -1.8770078E+00
   1.2247403E-04   8.0523598E+05   -1.8765800E+00
   1.2303963E-04   7.9830448E+05   -1.8761512E+00
   1.2360784E-04   7.9143421E+05   -1.8757214E+00
   1.2417868E-04   7.8462461E+05   -1.8752906E+00
   1.2475215E-04   7.7787516E+05   -1.8748588E+00
   1.2532826E-04   7.7118530E+05   -1.8744260E+00
   1.2590704E-04   7.6455450E+05   -1.8739922E+00
   1.2648850E-04   7.5798223E+05   -1.8735575E+00
   1.2707263E-04   7.5146796E+05   -1.8731217E+00
   1.2765947E-04   7.4501117E+05   -1.8726849E+00
   1.2824901E-04   7.3861136E+05   -1.8722472E+00
   1.2884128E-04   7.3226800E+05   -1.8718084E+00
   1.2943628E-04   7.2598058E+05   -1.8713687E+00
   1.3003403E-04   7.1974861E+05   -1.8709280E+00
   1.3063454E-04   7.1357159E+05   -1.8704863E+00
   1.3123783E-04   7.0744902E+05   -1.8700436E+00
   1.3184390E-04   7.0138042E+05   -1.8696000E+00
   1.3245277E-04   6.9536529E+05   -1.8691553E+00
   1.3306445E-04   6.8940317E+05   -1.8687097E+00
   1.3367895E-04   6.8349357E+05   -1.8682631E+00
   1.3429630E-04   6.7763602E+05   -1.8678156E+00
   1.3491649E-04   6.7183006E+05   -1.8673670E+00
   1.3553955E-04   6.6607522E+05   -1.8669175E+00
   1.3616548E-04   6.6037105E+05   -1.8664671E+00
   1.3679431E-04   6.5471709E+05   -1.8660156E+00
   1.3742604E-04   6.4911289E+05   -1.8655632E+00
   1.3806069E-04   6.4355800E+05   -1.8651098E+00
   1.3869827E-04   6.3805198E+05   -1.8646555E+00
   1.3933879E-04   6.3259440E+05   -1.8642002E+00
   1.3998227E-04   6.2718481E+05   -1.8637439E+00
   1.4062872E-04   6.2182279E+05   -1.8632867E+00
   1.4127816E-04   6.1650792E+05   -1.8628285E+00
   1.4193060E-04   6.1123976E+05   -1.8623694E+00
   1.4258605E-04   6.0601790E+05   -1.8619093E+00
   1.4324453E-04   6.0084193E+05   -1.8614483E+00
   1.4390605E-04   5.9571143E+05   -1.8609863E+00
   1.4457062E-04   5.9062600E+05   -1.8605234E+00
   1.4523826E-04   5.8558524E+05   -1.8600595E+00
   1.4590899E-04   5.8058874E+05   -1.8595947E+00
   1.4658281E-04   5.7563610E+05   -1.8591289E+00
   1.4725974E-04   5.7072694E+05   -1.8586623E+00
   1.4793981E-04   5.6586086E+05   -1.8581946E+00
   1.4862301E-04   5.6103748E+05   -1.8577261E+00
   1.4930936E-04   5.5625642E+05   -1.8572566E+00
   1.4999889E-04   5.5151729E+05   -1.8567862E+00
   1.5069160E-04   5.4681973E+05   -1.8563148E+00
   1.5138751E-04   5.4216335E+05   -1.8558426E+00
   1.5208663E-04   5.3754780E+05   -1.8553694E+00
   1.5278899E-04   5.3297270E+05   -1.8548952E+00
   1.5349458E-04   5.2843770E+05   -1.8544202E+00
   1.5420343E-04   5.2394244E+05   -1.8539443E+00
   1.5491556E-04   5.1948656E+05   -1.8534674E+00
   1.5563098E-04   5.1506970E+05   -1.8529896E+00
   1.5634970E-04   5.1069152E+05   -1.8525110E+00
   1.5707174E-04   5.0635168E+05   -1.8520314E+00
   1.5779711E-04   5.0204982E+05   -1.8515509E+00
   1.5852584E-04   4.9778562E+05   -1.8510695E+00
   1.5925792E-04   4.9355873E+05   -1.8505872E+00
   1.5999339E-04   4.8936882E+05   -1.8501041E+00
   1.6073226E-04   4.8521556E+05   -1.8496200E+00
   1.6147454E-04   4.8109862E+05   -1.8491350E+00
   1.6222024E-04   4.7701768E+05   -1.8486492E+00
   1.6296939E-04   4.7297242E+05   -1.8481624E+00
   1.6372200E-04   4.6896252E+05   -1.8476748E+00
   1.6447809E-04   4.6498765E+05   -1.8471863E+00
   1.6523767E-04   4.6104752E+05   -1.8466970E+00
   1.6600075E-04   4.5714181E+05   -1.8462067E+00
   1.6676736E-04   4.5327020E+05   -1.8457156E+00
   1.6753751E-04   4.4943241E+05   -1.8452236E+00
   1.6831122E-04   4.4562812E+05   -1.8447308E+00
   1.6908849E-04   4.4185703E+05   -1.8442371E+00
   1.6986936E-04   4.3811886E+05   -1.8437425E+00
   1.7065384E-04   4.3441330E+05   -1.8432471E+00
   1.7144193E-04   4.3074006E+05   -1.8427508E+00
   1.7223367E-04   4.2709887E+05   -1.8422537E+00
   1.7302906E-04   4.2348942E+05   -1.8417557E+00
   1.7382813E-04   4.1991145E+05   -1.8412569E+00
   1.7463089E-04   4.1636466E+05   -1.8407573E+00
   1.7543735E-04   4.1284878E+05   -1.8402568E+00
   1.7624754E-04   4.0936353E+05   -1.8397555E+00
   1.7706147E-04   4.0590864E+05   -1.8392533E+00
   1.7787916E-04   4.0248385E+05   -1.8387503E+00
   1.7870062E-04   3.9908887E+05   -1.8382465E+00
   1.7952588E-04   3.9572346E+05   -1.8377419E+00
   1.8035495E-04   3.9238733E+05   -1.8372365E+00
   1.8118785E-04   3.8908024E+05   -1.8367302E+00
   1.8202459E-04   3.8580191E+05   -1.8362232E+00
   1.8286520E-04   3.8255211E+05   -1.8357153E+00
   1.8370969E-04   3.7933057E+05   -1.8352066E+00
   1.8455808E-04   3.7613704E+05   -1.8346972E+00
   1.8541039E-04   3.7297128E+05   -1.8341869E+00
   1.8626663E-04   3.6983302E+05   -1.8336758E+00
   1.8712683E-04   3.6672204E+05   -1.8331640E+00
   1.8799100E-04   3.6363809E+05   -1.8326513E+00
   1.8885917E-04   3.6058092E+05   -1.8321379E+00
   1.8973134E-04   3.5755030E+05   -1.8316237E+00
   1.9060754E-04   3.5454600E+05   -1.8311088E+00
   1.9148778E-04   3.5156777E+05   -1.8305930E+00
   1.9237209E-04   3.4861538E+05   -1.8300765E+00
   1.9326049E-04   3.4568862E+05   -1.8295592E+00
   1.9415299E-04   3.4278724E+05   -1.8290412E+00
   1.9504960E-04   3.3991103E+05   -1.8285224E+00
   1.9595036E-04   3.3705976E+05   -1.8280029E+00
   1.9685528E-04   3.3423320E+05   -1.8274826E+00
   1.9776438E-04   3.3143115E+05   -1.8269616E+00
   1.9867768E-04   3.2865337E+05   -1.8264398E+00
   1.9959519E-04   3.2589966E+05   -1.8259173E+00
   2.0051694E-04   3.2316980E+05   -1.8253941E+00
   2.0144295E-04   3.2046358E+05   -1.8248701E+00
   2.0237324E-04   3.1778079E+05   -1.8243454E+00
   2.0330782E-04   3.1512122E+05   -1.8238200E+00
   2.0424671E-04   3.1248466E+05   -1.8232939E+00
   2.0518995E-04   3.0987092E+05   -1.8227670E+00
   2.0613754E-04   3.0727978E+05   -1.8222395E+00
   2.0708950E-04   3.0471106E+05   -1.8217113E+00
   2.0804586E-04   3.0216454E+05   -1.8211823E+00
   2.0900664E-04   2.9964004E+05   -1.8206527E+00
   2.0997185E-04   2.9713735E+05   -1.8201223E+00
   2.1094152E-04   2.9465629E+05   -1.8195913E+00
   2.1191567E-04   2.9219666E+05   -1.8190596E+00
   2.1289432E-04   2.8975827E+05   -1.8185272E+00
   2.1387749E-04   2.8734093E+05   -1.8179942E+00
   2.1486520E-04   2.8494446E+05   -1.8174605E+00
   2.1585747E-04   2.8256868E+05   -1.8169261E+00
   2.1685432E-04   2.8021339E+05   -1.8163911E+00
   2.1785578E-04   2.7787842E+05   -1.8158554E+00
   2.1886186E-04   2.7556358E+05   -1.8153190E+00
   2.1987259E-04   2.7326871E+05   -1.8147820E+00
   2.2088798E-04   2.7099362E+05   -1.8142444E+00
   2.2190807E-04   2.6873814E+05   -1.8137061E+00
   2.2293286E-04   2.6650209E+05   -1.8131672E+00
   2.2396239E-04   2.6428530E+05   -1.8126277E+00
   2.2499667E-04   2.6208760E+05   -1.8120875E+00
   2.2603573E-04   2.5990883E+05   -1.8115467E+00
   2.2707958E-04   2.5774881E+05   -1.8110053E+00
   2.2812826E-04   2.5560738E+05   -1.8104633E+00
   2.2918178E-04   2.5348437E+05   -1.8099207E+00
   2.3024017E-04   2.5137963E+05   -1.8093775E+00
   2.3130344E-04   2.4929299E+05   -1.8088337E+00
   2.3237162E-04   2.4722428E+05   -1.8082893E+00
   2.3344474E-04   2.4517336E+05   -1.8077444E+00
   2.3452281E-04   2.4314007E+05   -1.8071988E+00
   2.3560586E-04   2.4112424E+05   -1.8066527E+00
   2.3669392E-04   2.3912573E+05   -1.8061060E+00
   2.3778699E-04   2.3714438E+05   -1.8055587E+00
   2.3888512E-04   2.3518004E+05   -1.8050109E+00
   2.3998831E-04   2.3323256E+05   -1.8044625E+00
   2.4109661E-04   2.3130180E+05   -1.8039135E+00
   2.4221001E-04   2.2938759E+05   -1.8033640E+00
   2.4332857E-04   2.2748981E+05   -1.8028140E+00
   2.4445228E-04   2.2560829E+05   -1.8022635E+00
   2.4558119E-04   2.2374291E+05   -1.8017124E+00
   2.4671531E-04   2.2189351E+05   -1.8011607E+00
   2.4785467E-04   2.2005996E+05   -1.8006086E+00
   2.4899928E-04   2.1824212E+05   -1.8000559E+00
   2.5014919E-04   2.1643984E+05   -1.7995028E+00
   2.5130440E-04   2.1465300E+05   -1.7989491E+00
   2.5246495E-04   2.1288145E+05   -1.7983949E+00
   2.5363086E-04   2.1112506E+05   -1.7978403E+00
   2.5480216E-04   2.0938369E+05   -1.7972851E+00
   2.5597886E-04   2.0765722E+05   -1.7967295E+00
   2.5716100E-04   2.0594552E+05   -1.7961734E+00
   2.5834859E-04   2.0424844E+05   -1.7956168E+00
   2.5954168E-04   2.0256587E+05   -1.7950597E+00
   2.6074027E-04   2.0089768E+05   -1.7945022E+00
   2.6194439E-04   1.9924374E+05   -1.7939442E+00
   2.6315408E-04   1.9760392E+05   -1.7933857E+00
   2.6436935E-04   1.9597810E+05   -1.7928269E+00
   2.6559024E-04   1.9436616E+05   -1.7922675E+00
   2.6681676E-04   1.9276798E+05   -1.7917078E+00
   2.6804895E-04   1.9118343E+05   -1.7911476E+00
   2.6928683E-04   1.8961239E+05   -1.7905870E+00
   2.7053042E-04   1.8805475E+05   -1.7900259E+00
   2.7177976E-04   1.8651039E+05   -1.7894645E+00
   2.7303487E-04   1.8497919E+05   -1.7889026E+00
   2.7429577E-04   1.8346104E+05   -1.7883403E+00
   2.7556250E-04   1.8195581E+05   -1.7877777E+00
   2.7683507E-04   1.8046341E+05   -1.7872146E+00
   2.7811353E-04   1.7898371E+05   -1.7866512E+00
   2.7939788E-04   1.7751660E+05   -1.7860873E+00
   2.8068817E-04   1.7606198E+05   -1.7855231E+00
   2.8198442E-04   1.7461973E+05   -1.7849586E+00
   2.8328665E-04   1.7318975E+05   -1.7843936E+00
   2.8459490E-04   1.7177192E+05   -1.7838283E+00
   2.8590919E-04   1.7036614E+05   -1.7832627E+00
   2.8722955E-04   1.6897231E+05   -1.7826967E+00
   2.8855600E-04   1.6759032E+05   -1.7821304E+00
   2.8988859E-04   1.6622007E+05   -1.7815637E+00
   2.9122732E-04   1.6486145E+05   -1.7809967E+00
   2.9257224E-04   1.6351437E+05   -1.7804294E+00
   2.9392337E-04   1.6217871E+05   -1.7798617E+00
   2.9528074E-04   1.6085438E+05   -1.7792938E+00
   2.9664438E-04   1.5954129E+05   -1.7787255E+00
   2.9801431E-04   1.5823933E+05   -1.7781569E+00
   2.9939057E-04   1.5694841E+05   -1.7775881E+00
   3.0077319E-04   1.5566843E+05   -1.7770189E+00
   3.0216219E-04   1.5439929E+05   -1.7764495E+00
   3.0355761E-04   1.5314090E+05   -1.7758798E+00
   3.0495947E-04   1.5189316E+05   -1.7753098E+00
   3.0636780E-04   1.5065599E+05   -1.7747395E+00
   3.0778264E-04   1.4942928E+05   -1.7741690E+00
   3.0920401E-04   1.4821296E+05   -1.7735982E+00
   3.1063195E-04   1.4700692E+05   -1.7730272E+00
   3.1206648E-04   1.4581107E+05   -1.7724559E+00
   3.1350764E-04   1.4462534E+05   -1.7718844E+00
   3.1495545E-04   1.4344963E+05   -1.7713127E+00
   3.1640994E-04   1.4228385E+05   -1.7707407E+00
   3.1787116E-04   1.4112791E+05   -1.7701686E+00
   3.1933912E-04   1.3998174E+05   -1.7695962E+00
   3.2081386E-04   1.3884524E+05   -1.7690236E+00
   3.2229541E-04   1.3771833E+05   -1.7684508E+00
   3.2378381E-04   1.3660093E+05   -1.7678778E+00
   3.2527908E-04   1.3549295E+05   -1.7673046E+00
   3.2678125E-04   1.3439432E+05   -1.7667312E+00
   3.2829036E-04   1.3330494E+05   -1.7661577E+00
   3.2980644E-04   1.3222474E+05   -1.7655840E+00
   3.3132952E-04   1.3115365E+05   -1.7650101E+00
   3.3285963E-04   1.3009157E+05   -1.7644361E+00
   3.3439681E-04   1.2903844E+05   -1.7638619E+00
   3.3594109E-04   1.2799417E+05   -1.7632875E+00
   3.3749250E-04   1.2695869E+05   -1.7627130E+00
   3.3905108E-04   1.2593191E+05   -1.7621384E+00
   3.4061685E-04   1.2491378E+05   -1.7615637E+00
   3.4218986E-04   1.2390420E+05   -1.7609888E+00
   3.4377013E-04   1.2290311E+05   -1.7604138E+00
   3.4535769E-04   1.2191043E+05   -1.7598387E+00
   3.4695259E-04   1.2092608E+05   -1.7592635E+00
   3.4855485E-04   1.1995001E+05   -1.7586882E+00
   3.5016452E-04   1.1898212E+05   -1.7581128E+00
   3.5178161E-04   1.1802236E+05   -1.7575373E+00
   3.5340618E-04   1.1707065E+05   -1.7569618E+00
   3.5503824E-04   1.1612693E+05   -1.7563861E+00
   3.5667785E-04   1.1519112E+05   -1.7558104E+00
   3.5832502E-04   1.1426315E+05   -1.7552346E+00
   3.5997981E-04   1.1334296E+05   -1.7546588E+00
   3.6164223E-04   1.1243047E+05   -1.7540829E+00
   3.6331233E-04   1.1152563E+05   -1.7535070E+00
   3.6499015E-04   1.1062837E+05   -1.7529311E+00
   3.6667571E-04   1.0973861E+05   -1.7523551E+00
   3.6836906E-04   1.0885630E+05   -1.7517791E+00
   3.7007022E-04   1.0798137E+05   -1.7512030E+00
   3.7177925E-04   1.0711376E+05   -1.7506270E+00
   3.7349616E-04   1.0625340E+05   -1.7500509E+00
   3.7522101E-04   1.0540023E+05   -1.7494749E+00
   3.7695382E-04   1.0455419E+05   -1.7488988E+00
   3.7869463E-04   1.0371521E+05   -1.7483228E+00
   3.8044348E-04   1.0288324E+05   -1.7477467E+00
   3.8220041E-04   1.0205822E+05   -1.7471707E+00
   3.8396545E-04   1.0124008E+05   -1.7465947E+00
   3.8573864E-04   1.0042876E+05   -1.7460188E+00
   3.8752002E-04   9.9624212E+04   -1.7454429E+00
   3.8930963E-04   9.8826370E+04   -1.7448671E+00
   3.9110750E-04   9.8035177E+04   -1.7442913E+00
   3.9291368E-04   9.7250577E+04   -1.7437155E+00
   3.9472820E-04   9.6472512E+04   -1.7431399E+00
   3.9655109E-04   9.5700926E+04   -1.7425643E+00
   3.9838241E-04   9.4935762E+04   -1.7419887E+00
   4.0022218E-04   9.4176966E+04   -1.7414133E+00
   4.0207045E-04   9.3424483E+04   -1.7408380E+00
   4.0392725E-04   9.2678258E+04   -1.7402627E+00
   4.0579263E-04   9.1938237E+04   -1.7396876E+00
   4.0766662E-04   9.1204367E+04   -1.7391125E+00
   4.0954927E-04   9.0476594E+04   -1.7385376E+00
   4.1144061E-04   8.9754866E+04   -1.7379628E+00
   4.1334068E-04   8.9039131E+04   -1.7373881E+00
   4.1524953E-04   8.8329338E+04   -1.7368136E+00
   4.1716720E-04   8.7625434E+04   -1.7362392E+00
   4.1909372E-04   8.6927371E+04   -1.7356649E+00
   4.2102914E-04   8.6235096E+04   -1.7350908E+00
   4.2297350E-04   8.5548561E+04   -1.7345168E+00
   4.2492683E-04   8.4867715E+04   -1.7339430E+00
   4.2688919E-04   8.4192512E+04   -1.7333694E+00
   4.2886061E-04   8.3522900E+04   -1.7327960E+00
   4.3084113E-04   8.2858834E+04   -1.7322227E+00
   4.3283080E-04   8.2200264E+04   -1.7316496E+00
   4.3482966E-04   8.1547143E+04   -1.7310767E+00
   4.3683775E-04   8.0899426E+04   -1.7305040E+00
   4.3885511E-04   8.0257065E+04   -1.7299315E+00
   4.4088179E-04   7.9620014E+04   -1.7293593E+00
   4.4291783E-04   7.8988229E+04   -1.7287872E+00
   4.4496327E-04   7.8361663E+04   -1.7282154E+00
   4.4701816E-04   7.7740272E+04   -1.7276438E+00
   4.4908253E-04   7.7124011E+04   -1.7270724E+00
   4.5115644E-04   7.6512838E+04   -1.7265013E+00
   4.5323993E-04   7.5906707E+04   -1.7259304E+00
   4.5533304E-04   7.5305576E+04   -1.7253597E+00
   4.5743582E-04   7.4709402E+04   -1.7247894E+00
   4.5954830E-04   7.4118143E+04   -1.7242192E+00
   4.6167054E-04   7.3531755E+04   -1.7236494E+00
   4.6380259E-04   7.2950199E+04   -1.7230798E+00
   4.6594448E-04   7.2373432E+04   -1.7225106E+00
   4.6809626E-04   7.1801413E+04   -1.7219416E+00
   4.7025797E-04   7.1234102E+04   -1.7213728E+00
   4.7242967E-04   7.0671459E+04   -1.7208044E+00
   4.7461140E-04   7.0113443E+04   -1.7202363E+00
   4.7680321E-04   6.9560015E+04   -1.7196685E+00
   4.7900514E-04   6.9011136E+04   -1.7191011E+00
   4.8121723E-04   6.8466767E+04   -1.7185339E+00
   4.8343954E-04   6.7926870E+04   -1.7179671E+00
   4.8567212E-04   6.7391406E+04   -1.7174006E+00
   4.8791500E-04   6.6860337E+04   -1.7168344E+00
   4.9016825E-04   6.6333627E+04   -1.7162686E+00
   4.9243189E-04   6.5811237E+04   -1.7157032E+00
   4.9470600E-04   6.5293132E+04   -1.7151381E+00
   4.9699060E-04   6.4779273E+04   -1.7145733E+00
   4.9928575E-04   6.4269626E+04   -1.7140090E+00
   5.0159151E-04   6.3764154E+04   -1.7134450E+00
   5.0390791E-04   6.3262822E+04   -1.7128813E+00
   5.0623501E-04   6.2765595E+04   -1.7123181E+00
   5.0857286E-04   6.2272437E+04   -1.7117553E+00
   5.1092150E-04   6.1783315E+04   -1.7111928E+00
   5.1328099E-04   6.1298193E+04   -1.7106307E+00
   5.1565137E-04   6.0817037E+04   -1.7100691E+00
   5.1803270E-04   6.0339815E+04   -1.7095079E+00
   5.2042503E-04   5.9866492E+04   -1.7089471E+00
   5.2282841E-04   5.9397035E+04   -1.7083867E+00
   5.2524289E-04   5.8931411E+04   -1.7078267E+00
   5.2766851E-04   5.8469589E+04   -1.7072672E+00
   5.3010534E-04   5.8011535E+04   -1.7067081E+00
   5.3255342E-04   5.7557218E+04   -1.7061494E+00
   5.3501281E-04   5.7106605E+04   -1.7055912E+00
   5.3748356E-04   5.6659666E+04   -1.7050335E+00
   5.3996571E-04   5.6216370E+04   -1.7044762E+00
   5.4245933E-04   5.5776685E+04   -1.7039194E+00
   5.4496446E-04   5.5340581E+04   -1.7033630E+00
   5.4748117E-04   5.4908027E+04   -1.7028072E+00
   5.5000949E-04   5.4478994E+04   -1.7022518E+00
   5.5254949E-04   5.4053451E+04   -1.7016969E+00
   5.5510123E-04   5.3631369E+04   -1.7011425E+00
   5.5766474E-04   5.3212719E+04   -1.7005886E+00
   5.6024010E-04   5.2797472E+04   -1.7000352E+00
   5.6282734E-04   5.2385598E+04   -1.6994823E+00
   5.6542654E-04   5.1977070E+04   -1.6989299E+00
   5.6803774E-04   5.1571859E+04   -1.6983780E+00
   5.7066099E-04   5.1169937E+04   -1.6978267E+00
   5.7329637E-04   5.0771276E+04   -1.6972759E+00
   5.7594391E-04   5.0375850E+04   -1.6967256E+00
   5.7860368E-04   4.9983629E+04   -1.6961758E+00
   5.8127573E-04   4.9594588E+04   -1.6956266E+00
   5.8396012E-04   4.9208699E+04   -1.6950780E+00
   5.8665691E-04   4.8825937E+04   -1.6945299E+00
   5.8936616E-04   4.8446273E+04   -1.6939824E+00
   5.9208791E-04   4.8069684E+04   -1.6934354E+00
   5.9482223E-04   4.7696141E+04   -1.6928890E+00
   5.9756919E-04   4.7325621E+04   -1.6923431E+00
   6.0032882E-04   4.6958097E+04   -1.6917979E+00
   6.0310120E-04   4.6593544E+04   -1.6912532E+00
   6.0588639E-04   4.6231937E+04   -1.6907091E+00
   6.0868443E-04   4.5873251E+04   -1.6901656E+00
   6.1149540E-04   4.5517462E+04   -1.6896227E+00
   6.1431935E-04   4.5164546E+04   -1.6890804E+00
   6.1715634E-04   4.4814478E+04   -1.6885388E+00
   6.2000644E-04   4.4467234E+04   -1.6879977E+00
   6.2286969E-04   4.4122791E+04   -1.6874572E+00
