#        a       HoverH0(a)       dlogHdloga_of_a(a)
   1.0000000E-04   1.0504135E+06   -1.8649231E+00
   1.0046181E-04   1.0414275E+06   -1.8644684E+00
   1.0092575E-04   1.0325206E+06   -1.8640127E+00
   1.0139184E-04   1.0236919E+06   -1.8635560E+00
   1.0186008E-04   1.0149409E+06   -1.8630984E+00
   1.0233048E-04   1.0062668E+06   -1.8626399E+00
   1.0280305E-04   9.9766899E+05   -1.8621804E+00
   1.0327781E-04   9.8914671E+05   -1.8617199E+00
   1.0375475E-04   9.8069931E+05   -1.8612585E+00
   1.0423390E-04   9.7232612E+05   -1.8607962E+00
   1.0471527E-04   9.6402648E+05   -1.8603329E+00
   1.0519885E-04   9.5579972E+05   -1.8598686E+00
   1.0568467E-04   9.4764520E+05   -1.8594034E+00
   1.0617274E-04   9.3956226E+05   -1.8589373E+00
   1.0666305E-04   9.3155027E+05   -1.8584702E+00
   1.0715563E-04   9.2360859E+05   -1.8580023E+00
   1.0765049E-04   9.1573660E+05   -1.8575333E+00
   1.0814763E-04   9.0793366E+05   -1.8570635E+00
   1.0864707E-04   9.0019916E+05   -1.8565927E+00
   1.0914881E-04   8.9253249E+05   -1.8561210E+00
   1.0965287E-04   8.8493303E+05   -1.8556483E+00
   1.1015926E-04   8.7740020E+05   -1.8551748E+00
   1.1066799E-04   8.6993338E+05   -1.8547003E+00
   1.1117906E-04   8.6253200E+05   -1.8542249E+00
   1.1169250E-04   8.5519546E+05   -1.8537486E+00
   1.1220831E-04   8.4792319E+05   -1.8532714E+00
   1.1272650E-04   8.4071460E+05   -1.8527933E+00
   1.1324708E-04   8.3356914E+05   -1.8523142E+00
   1.1377007E-04   8.2648624E+05   -1.8518343E+00
   1.1429547E-04   8.1946534E+05   -1.8513534E+00
   1.1482330E-04   8.1250588E+05   -1.8508717E+00
   1.1535356E-04   8.0560731E+05   -1.8503891E+00
   1.1588628E-04   7.9876910E+05   -1.8499055E+00
   1.1642145E-04   7.9199069E+05   -1.8494211E+00
   1.1695910E-04   7.8527156E+05   -1.8489358E+00
   1.1749923E-04   7.7861118E+05   -1.8484496E+00
   1.1804185E-04   7.7200902E+05   -1.8479625E+00
   1.1858698E-04   7.6546456E+05   -1.8474746E+00
   1.1913463E-04   7.5897729E+05   -1.8469857E+00
   1.1968481E-04   7.5254669E+05   -1.8464960E+00
   1.2023752E-04   7.4617226E+05   -1.8460054E+00
   1.2079279E-04   7.3985350E+05   -1.8455140E+00
   1.2135063E-04   7.3358991E+05   -1.8450217E+00
   1.2191104E-04   7.2738101E+05   -1.8445285E+00
   1.2247403E-04   7.2122629E+05   -1.8440345E+00
   1.2303963E-04   7.1512528E+05   -1.8435396E+00
   1.2360784E-04   7.0907750E+05   -1.8430438E+00
   1.2417868E-04   7.0308247E+05   -1.8425472E+00
   1.2475215E-04   6.9713972E+05   -1.8420498E+00
   1.2532826E-04   6.9124879E+05   -1.8415515E+00
   1.2590704E-04   6.8540921E+05   -1.8410523E+00
   1.2648850E-04   6.7962053E+05   -1.8405523E+00
   1.2707263E-04   6.7388229E+05   -1.8400515E+00
   1.2765947E-04   6.6819405E+05   -1.8395499E+00
   1.2824901E-04   6.6255535E+05   -1.8390474E+00
   1.2884128E-04   6.5696576E+05   -1.8385441E+00
   1.2943628E-04   6.5142483E+05   -1.8380400E+00
   1.3003403E-04   6.4593214E+05   -1.8375351E+00
   1.3063454E-04   6.4048726E+05   -1.8370293E+00
   1.3123783E-04   6.3508975E+05   -1.8365227E+00
   1.3184390E-04   6.2973920E+05   -1.8360154E+00
   1.3245277E-04   6.2443519E+05   -1.8355072E+00
   1.3306445E-04   6.1917730E+05   -1.8349982E+00
   1.3367895E-04   6.1396513E+05   -1.8344884E+00
   1.3429630E-04   6.0879826E+05   -1.8339779E+00
   1.3491649E-04   6.0367630E+05   -1.8334665E+00
   1.3553955E-04   5.9859884E+05   -1.8329543E+00
   1.3616548E-04   5.9356549E+05   -1.8324414E+00
   1.3679431E-04   5.8857585E+05   -1.8319277E+00
   1.3742604E-04   5.8362954E+05   -1.8314132E+00
   1.3806069E-04   5.7872617E+05   -1.8308979E+00
   1.3869827E-04   5.7386536E+05   -1.8303819E+00
   1.3933879E-04   5.6904673E+05   -1.8298651E+00
   1.3998227E-04   5.6426991E+05   -1.8293475E+00
   1.4062872E-04   5.5953452E+05   -1.8288292E+00
   1.4127816E-04   5.5484019E+05   -1.8283102E+00
   1.4193060E-04   5.5018657E+05   -1.8277903E+00
   1.4258605E-04   5.4557328E+05   -1.8272698E+00
   1.4324453E-04   5.4099998E+05   -1.8267485E+00
   1.4390605E-04   5.3646630E+05   -1.8262264E+00
   1.4457062E-04   5.3197189E+05   -1.8257036E+00
   1.4523826E-04   5.2751642E+05   -1.8251801E+00
   1.4590899E-04   5.2309952E+05   -1.8246559E+00
   1.4658281E-04   5.1872085E+05   -1.8241309E+00
   1.4725974E-04   5.1438008E+05   -1.8236052E+00
   1.4793981E-04   5.1007688E+05   -1.8230788E+00
   1.4862301E-04   5.0581090E+05   -1.8225517E+00
   1.4930936E-04   5.0158182E+05   -1.8220239E+00
   1.4999889E-04   4.9738930E+05   -1.8214954E+00
   1.5069160E-04   4.9323304E+05   -1.8209662E+00
   1.5138751E-04   4.8911269E+05   -1.8204363E+00
   1.5208663E-04   4.8502795E+05   -1.8199057E+00
   1.5278899E-04   4.8097850E+05   -1.8193745E+00
   1.5349458E-04   4.7696403E+05   -1.8188425E+00
   1.5420343E-04   4.7298423E+05   -1.8183099E+00
   1.5491556E-04   4.6903878E+05   -1.8177766E+00
   1.5563098E-04   4.6512739E+05   -1.8172426E+00
   1.5634970E-04   4.6124975E+05   -1.8167080E+00
   1.5707174E-04   4.5740557E+05   -1.8161727E+00
   1.5779711E-04   4.5359455E+05   -1.8156368E+00
   1.5852584E-04   4.4981638E+05   -1.8151002E+00
   1.5925792E-04   4.4607080E+05   -1.8145630E+00
   1.5999339E-04   4.4235749E+05   -1.8140251E+00
   1.6073226E-04   4.3867619E+05   -1.8134866E+00
   1.6147454E-04   4.3502660E+05   -1.8129475E+00
   1.6222024E-04   4.3140845E+05   -1.8124077E+00
   1.6296939E-04   4.2782145E+05   -1.8118673E+00
   1.6372200E-04   4.2426534E+05   -1.8113263E+00
   1.6447809E-04   4.2073983E+05   -1.8107847E+00
   1.6523767E-04   4.1724466E+05   -1.8102425E+00
   1.6600075E-04   4.1377956E+05   -1.8096996E+00
   1.6676736E-04   4.1034427E+05   -1.8091562E+00
   1.6753751E-04   4.0693851E+05   -1.8086122E+00
   1.6831122E-04   4.0356203E+05   -1.8080676E+00
   1.6908849E-04   4.0021458E+05   -1.8075224E+00
   1.6986936E-04   3.9689588E+05   -1.8069767E+00
   1.7065384E-04   3.9360570E+05   -1.8064303E+00
   1.7144193E-04   3.9034378E+05   -1.8058834E+00
   1.7223367E-04   3.8710986E+05   -1.8053360E+00
   1.7302906E-04   3.8390370E+05   -1.8047879E+00
   1.7382813E-04   3.8072507E+05   -1.8042393E+00
   1.7463089E-04   3.7757370E+05   -1.8036902E+00
   1.7543735E-04   3.7444937E+05   -1.8031405E+00
   1.7624754E-04   3.7135183E+05   -1.8025903E+00
   1.7706147E-04   3.6828085E+05   -1.8020396E+00
   1.7787916E-04   3.6523619E+05   -1.8014883E+00
   1.7870062E-04   3.6221762E+05   -1.8009365E+00
   1.7952588E-04   3.5922492E+05   -1.8003842E+00
   1.8035495E-04   3.5625785E+05   -1.7998313E+00
   1.8118785E-04   3.5331618E+05   -1.7992780E+00
   1.8202459E-04   3.5039970E+05   -1.7987242E+00
   1.8286520E-04   3.4750818E+05   -1.7981698E+00
   1.8370969E-04   3.4464140E+05   -1.7976150E+00
   1.8455808E-04   3.4179915E+05   -1.7970597E+00
   1.8541039E-04   3.3898120E+05   -1.7965039E+00
   1.8626663E-04   3.3618735E+05   -1.7959476E+00
   1.8712683E-04   3.3341738E+05   -1.7953908E+00
   1.8799100E-04   3.3067108E+05   -1.7948336E+00
   1.8885917E-04   3.2794824E+05   -1.7942759E+00
   1.8973134E-04   3.2524866E+05   -1.7937178E+00
   1.9060754E-04   3.2257213E+05   -1.7931592E+00
   1.9148778E-04   3.1991845E+05   -1.7926002E+00
   1.9237209E-04   3.1728742E+05   -1.7920407E+00
   1.9326049E-04   3.1467884E+05   -1.7914808E+00
   1.9415299E-04   3.1209251E+05   -1.7909205E+00
   1.9504960E-04   3.0952824E+05   -1.7903597E+00
   1.9595036E-04   3.0698583E+05   -1.7897986E+00
   1.9685528E-04   3.0446509E+05   -1.7892370E+00
   1.9776438E-04   3.0196583E+05   -1.7886750E+00
   1.9867768E-04   2.9948786E+05   -1.7881126E+00
   1.9959519E-04   2.9703100E+05   -1.7875498E+00
   2.0051694E-04   2.9459505E+05   -1.7869866E+00
   2.0144295E-04   2.9217984E+05   -1.7864231E+00
   2.0237324E-04   2.8978519E+05   -1.7858591E+00
   2.0330782E-04   2.8741091E+05   -1.7852948E+00
   2.0424671E-04   2.8505682E+05   -1.7847301E+00
   2.0518995E-04   2.8272275E+05   -1.7841651E+00
   2.0613754E-04   2.8040852E+05   -1.7835997E+00
   2.0708950E-04   2.7811396E+05   -1.7830339E+00
   2.0804586E-04   2.7583889E+05   -1.7824679E+00
   2.0900664E-04   2.7358315E+05   -1.7819014E+00
   2.0997185E-04   2.7134657E+05   -1.7813347E+00
   2.1094152E-04   2.6912897E+05   -1.7807676E+00
   2.1191567E-04   2.6693019E+05   -1.7802001E+00
   2.1289432E-04   2.6475007E+05   -1.7796324E+00
   2.1387749E-04   2.6258844E+05   -1.7790644E+00
   2.1486520E-04   2.6044514E+05   -1.7784960E+00
   2.1585747E-04   2.5832002E+05   -1.7779274E+00
   2.1685432E-04   2.5621290E+05   -1.7773584E+00
   2.1785578E-04   2.5412364E+05   -1.7767892E+00
   2.1886186E-04   2.5205208E+05   -1.7762197E+00
   2.1987259E-04   2.4999806E+05   -1.7756499E+00
   2.2088798E-04   2.4796143E+05   -1.7750799E+00
   2.2190807E-04   2.4594204E+05   -1.7745095E+00
   2.2293286E-04   2.4393973E+05   -1.7739390E+00
   2.2396239E-04   2.4195437E+05   -1.7733681E+00
   2.2499667E-04   2.3998579E+05   -1.7727971E+00
   2.2603573E-04   2.3803385E+05   -1.7722258E+00
   2.2707958E-04   2.3609842E+05   -1.7716542E+00
   2.2812826E-04   2.3417933E+05   -1.7710824E+00
   2.2918178E-04   2.3227646E+05   -1.7705104E+00
   2.3024017E-04   2.3038966E+05   -1.7699382E+00
   2.3130344E-04   2.2851879E+05   -1.7693658E+00
   2.3237162E-04   2.2666370E+05   -1.7687932E+00
   2.3344474E-04   2.2482427E+05   -1.7682203E+00
   2.3452281E-04   2.2300036E+05   -1.7676473E+00
   2.3560586E-04   2.2119182E+05   -1.7670741E+00
   2.3669392E-04   2.1939854E+05   -1.7665007E+00
   2.3778699E-04   2.1762036E+05   -1.7659271E+00
   2.3888512E-04   2.1585717E+05   -1.7653534E+00
   2.3998831E-04   2.1410883E+05   -1.7647795E+00
   2.4109661E-04   2.1237522E+05   -1.7642055E+00
   2.4221001E-04   2.1065619E+05   -1.7636313E+00
   2.4332857E-04   2.0895164E+05   -1.7630569E+00
   2.4445228E-04   2.0726142E+05   -1.7624824E+00
   2.4558119E-04   2.0558543E+05   -1.7619078E+00
   2.4671531E-04   2.0392352E+05   -1.7613330E+00
   2.4785467E-04   2.0227559E+05   -1.7607582E+00
   2.4899928E-04   2.0064150E+05   -1.7601832E+00
   2.5014919E-04   1.9902114E+05   -1.7596081E+00
   2.5130440E-04   1.9741439E+05   -1.7590329E+00
   2.5246495E-04   1.9582114E+05   -1.7584576E+00
   2.5363086E-04   1.9424125E+05   -1.7578823E+00
   2.5480216E-04   1.9267462E+05   -1.7573068E+00
   2.5597886E-04   1.9112114E+05   -1.7567312E+00
   2.5716100E-04   1.8958068E+05   -1.7561556E+00
   2.5834859E-04   1.8805314E+05   -1.7555800E+00
   2.5954168E-04   1.8653840E+05   -1.7550042E+00
   2.6074027E-04   1.8503635E+05   -1.7544284E+00
   2.6194439E-04   1.8354689E+05   -1.7538526E+00
   2.6315408E-04   1.8206989E+05   -1.7532767E+00
   2.6436935E-04   1.8060526E+05   -1.7527008E+00
   2.6559024E-04   1.7915289E+05   -1.7521249E+00
   2.6681676E-04   1.7771267E+05   -1.7515489E+00
   2.6804895E-04   1.7628450E+05   -1.7509729E+00
   2.6928683E-04   1.7486827E+05   -1.7503969E+00
   2.7053042E-04   1.7346387E+05   -1.7498209E+00
   2.7177976E-04   1.7207121E+05   -1.7492449E+00
   2.7303487E-04   1.7069019E+05   -1.7486689E+00
   2.7429577E-04   1.6932070E+05   -1.7480929E+00
   2.7556250E-04   1.6796264E+05   -1.7475170E+00
   2.7683507E-04   1.6661591E+05   -1.7469411E+00
   2.7811353E-04   1.6528043E+05   -1.7463652E+00
   2.7939788E-04   1.6395608E+05   -1.7457893E+00
   2.8068817E-04   1.6264278E+05   -1.7452135E+00
   2.8198442E-04   1.6134042E+05   -1.7446377E+00
   2.8328665E-04   1.6004892E+05   -1.7440620E+00
   2.8459490E-04   1.5876817E+05   -1.7434864E+00
   2.8590919E-04   1.5749809E+05   -1.7429108E+00
   2.8722955E-04   1.5623859E+05   -1.7423353E+00
   2.8855600E-04   1.5498957E+05   -1.7417599E+00
   2.8988859E-04   1.5375094E+05   -1.7411845E+00
   2.9122732E-04   1.5252262E+05   -1.7406093E+00
   2.9257224E-04   1.5130451E+05   -1.7400341E+00
   2.9392337E-04   1.5009652E+05   -1.7394591E+00
   2.9528074E-04   1.4889858E+05   -1.7388842E+00
   2.9664438E-04   1.4771058E+05   -1.7383093E+00
   2.9801431E-04   1.4653246E+05   -1.7377347E+00
   2.9939057E-04   1.4536411E+05   -1.7371601E+00
   3.0077319E-04   1.4420546E+05   -1.7365857E+00
   3.0216219E-04   1.4305643E+05   -1.7360114E+00
   3.0355761E-04   1.4191693E+05   -1.7354373E+00
   3.0495947E-04   1.4078687E+05   -1.7348633E+00
   3.0636780E-04   1.3966619E+05   -1.7342895E+00
   3.0778264E-04   1.3855479E+05   -1.7337158E+00
   3.0920401E-04   1.3745259E+05   -1.7331423E+00
   3.1063195E-04   1.3635953E+05   -1.7325690E+00
   3.1206648E-04   1.3527552E+05   -1.7319959E+00
   3.1350764E-04   1.3420047E+05   -1.7314230E+00
   3.1495545E-04   1.3313432E+05   -1.7308502E+00
   3.1640994E-04   1.3207700E+05   -1.7302777E+00
   3.1787116E-04   1.3102841E+05   -1.7297054E+00
   3.1933912E-04   1.2998849E+05   -1.7291333E+00
   3.2081386E-04   1.2895716E+05   -1.7285614E+00
   3.2229541E-04   1.2793436E+05   -1.7279897E+00
   3.2378381E-04   1.2692000E+05   -1.7274183E+00
   3.2527908E-04   1.2591401E+05   -1.7268470E+00
   3.2678125E-04   1.2491633E+05   -1.7262761E+00
   3.2829036E-04   1.2392688E+05   -1.7257054E+00
   3.2980644E-04   1.2294559E+05   -1.7251349E+00
   3.3132952E-04   1.2197238E+05   -1.7245647E+00
   3.3285963E-04   1.2100721E+05   -1.7239948E+00
   3.3439681E-04   1.2004998E+05   -1.7234252E+00
   3.3594109E-04   1.1910064E+05   -1.7228558E+00
   3.3749250E-04   1.1815911E+05   -1.7222867E+00
   3.3905108E-04   1.1722534E+05   -1.7217179E+00
   3.4061685E-04   1.1629925E+05   -1.7211494E+00
   3.4218986E-04   1.1538077E+05   -1.7205812E+00
   3.4377013E-04   1.1446985E+05   -1.7200133E+00
   3.4535769E-04   1.1356642E+05   -1.7194457E+00
   3.4695259E-04   1.1267042E+05   -1.7188784E+00
   3.4855485E-04   1.1178177E+05   -1.7183115E+00
   3.5016452E-04   1.1090043E+05   -1.7177449E+00
   3.5178161E-04   1.1002632E+05   -1.7171786E+00
   3.5340618E-04   1.0915938E+05   -1.7166127E+00
   3.5503824E-04   1.0829956E+05   -1.7160471E+00
   3.5667785E-04   1.0744679E+05   -1.7154819E+00
   3.5832502E-04   1.0660101E+05   -1.7149170E+00
   3.5997981E-04   1.0576217E+05   -1.7143525E+00
   3.6164223E-04   1.0493020E+05   -1.7137883E+00
   3.6331233E-04   1.0410504E+05   -1.7132246E+00
   3.6499015E-04   1.0328664E+05   -1.7126612E+00
   3.6667571E-04   1.0247495E+05   -1.7120982E+00
   3.6836906E-04   1.0166989E+05   -1.7115356E+00
   3.7007022E-04   1.0087142E+05   -1.7109734E+00
   3.7177925E-04   1.0007948E+05   -1.7104116E+00
   3.7349616E-04   9.9294012E+04   -1.7098502E+00
   3.7522101E-04   9.8514965E+04   -1.7092892E+00
   3.7695382E-04   9.7742284E+04   -1.7087287E+00
   3.7869463E-04   9.6975913E+04   -1.7081685E+00
   3.8044348E-04   9.6215799E+04   -1.7076088E+00
   3.8220041E-04   9.5461889E+04   -1.7070496E+00
   3.8396545E-04   9.4714130E+04   -1.7064908E+00
   3.8573864E-04   9.3972471E+04   -1.7059324E+00
   3.8752002E-04   9.3236859E+04   -1.7053745E+00
   3.8930963E-04   9.2507243E+04   -1.7048170E+00
   3.9110750E-04   9.1783572E+04   -1.7042600E+00
   3.9291368E-04   9.1065795E+04   -1.7037035E+00
   3.9472820E-04   9.0353864E+04   -1.7031474E+00
   3.9655109E-04   8.9647728E+04   -1.7025918E+00
   3.9838241E-04   8.8947338E+04   -1.7020367E+00
   4.0022218E-04   8.8252645E+04   -1.7014821E+00
   4.0207045E-04   8.7563603E+04   -1.7009280E+00
   4.0392725E-04   8.6880161E+04   -1.7003744E+00
   4.0579263E-04   8.6202274E+04   -1.6998213E+00
   4.0766662E-04   8.5529894E+04   -1.6992687E+00
   4.0954927E-04   8.4862974E+04   -1.6987166E+00
   4.1144061E-04   8.4201469E+04   -1.6981651E+00
   4.1334068E-04   8.3545332E+04   -1.6976140E+00
   4.1524953E-04   8.2894518E+04   -1.6970635E+00
   4.1716720E-04   8.2248983E+04   -1.6965136E+00
   4.1909372E-04   8.1608682E+04   -1.6959642E+00
   4.2102914E-04   8.0973570E+04   -1.6954153E+00
   4.2297350E-04   8.0343604E+04   -1.6948670E+00
   4.2492683E-04   7.9718740E+04   -1.6943192E+00
   4.2688919E-04   7.9098936E+04   -1.6937720E+00
   4.2886061E-04   7.8484148E+04   -1.6932253E+00
   4.3084113E-04   7.7874335E+04   -1.6926793E+00
   4.3283080E-04   7.7269454E+04   -1.6921338E+00
   4.3482966E-04   7.6669465E+04   -1.6915889E+00
   4.3683775E-04   7.6074325E+04   -1.6910445E+00
   4.3885511E-04   7.5483994E+04   -1.6905008E+00
   4.4088179E-04   7.4898431E+04   -1.6899576E+00
   4.4291783E-04   7.4317597E+04   -1.6894151E+00
   4.4496327E-04   7.3741451E+04   -1.6888732E+00
   4.4701816E-04   7.3169954E+04   -1.6883318E+00
   4.4908253E-04   7.2603068E+04   -1.6877911E+00
   4.5115644E-04   7.2040752E+04   -1.6872510E+00
   4.5323993E-04   7.1482970E+04   -1.6867115E+00
   4.5533304E-04   7.0929683E+04   -1.6861727E+00
   4.5743582E-04   7.0380853E+04   -1.6856345E+00
   4.5954830E-04   6.9836443E+04   -1.6850969E+00
   4.6167054E-04   6.9296415E+04   -1.6845600E+00
   4.6380259E-04   6.8760733E+04   -1.6840237E+00
   4.6594448E-04   6.8229361E+04   -1.6834880E+00
   4.6809626E-04   6.7702262E+04   -1.6829531E+00
   4.7025797E-04   6.7179400E+04   -1.6824187E+00
   4.7242967E-04   6.6660741E+04   -1.6818851E+00
   4.7461140E-04   6.6146248E+04   -1.6813521E+00
   4.7680321E-04   6.5635887E+04   -1.6808198E+00
   4.7900514E-04   6.5129624E+04   -1.6802881E+00
   4.8121723E-04   6.4627424E+04   -1.6797572E+00
   4.8343954E-04   6.4129253E+04   -1.6792269E+00
   4.8567212E-04   6.3635078E+04   -1.6786973E+00
   4.8791500E-04   6.3144864E+04   -1.6781684E+00
   4.9016825E-04   6.2658580E+04   -1.6776402E+00
   4.9243189E-04   6.2176192E+04   -1.6771128E+00
   4.9470600E-04   6.1697667E+04   -1.6765860E+00
   4.9699060E-04   6.1222973E+04   -1.6760599E+00
   4.9928575E-04   6.0752079E+04   -1.6755346E+00
   5.0159151E-04   6.0284953E+04   -1.6750099E+00
   5.0390791E-04   5.9821563E+04   -1.6744860E+00
   5.0623501E-04   5.9361878E+04   -1.6739628E+00
   5.0857286E-04   5.8905867E+04   -1.6734404E+00
   5.1092150E-04   5.8453500E+04   -1.6729187E+00
   5.1328099E-04   5.8004746E+04   -1.6723977E+00
   5.1565137E-04   5.7559575E+04   -1.6718775E+00
   5.1803270E-04   5.7117958E+04   -1.6713580E+00
   5.2042503E-04   5.6679865E+04   -1.6708393E+00
   5.2282841E-04   5.6245266E+04   -1.6703213E+00
   5.2524289E-04   5.5814132E+04   -1.6698041E+00
   5.2766851E-04   5.5386436E+04   -1.6692876E+00
   5.3010534E-04   5.4962147E+04   -1.6687719E+00
   5.3255342E-04   5.4541238E+04   -1.6682570E+00
   5.3501281E-04   5.4123680E+04   -1.6677429E+00
   5.3748356E-04   5.3709447E+04   -1.6672295E+00
   5.3996571E-04   5.3298510E+04   -1.6667169E+00
   5.4245933E-04   5.2890841E+04   -1.6662051E+00
   5.4496446E-04   5.2486415E+04   -1.6656941E+00
   5.4748117E-04   5.2085204E+04   -1.6651839E+00
   5.5000949E-04   5.1687181E+04   -1.6646745E+00
   5.5254949E-04   5.1292319E+04   -1.6641658E+00
   5.5510123E-04   5.0900594E+04   -1.6636580E+00
   5.5766474E-04   5.0511978E+04   -1.6631510E+00
   5.6024010E-04   5.0126446E+04   -1.6626448E+00
   5.6282734E-04   4.9743973E+04   -1.6621394E+00
   5.6542654E-04   4.9364533E+04   -1.6616348E+00
   5.6803774E-04   4.8988101E+04   -1.6611311E+00
   5.7066099E-04   4.8614652E+04   -1.6606282E+00
   5.7329637E-04   4.8244162E+04   -1.6601261E+00
   5.7594391E-04   4.7876606E+04   -1.6596248E+00
   5.7860368E-04   4.7511960E+04   -1.6591243E+00
   5.8127573E-04   4.7150200E+04   -1.6586247E+00
   5.8396012E-04   4.6791302E+04   -1.6581260E+00
   5.8665691E-04   4.6435242E+04   -1.6576280E+00
   5.8936616E-04   4.6081998E+04   -1.6571310E+00
   5.9208791E-04   4.5731545E+04   -1.6566347E+00
   5.9482223E-04   4.5383862E+04   -1.6561394E+00
   5.9756919E-04   4.5038924E+04   -1.6556448E+00
   6.0032882E-04   4.4696710E+04   -1.6551512E+00
   6.0310120E-04   4.4357196E+04   -1.6546584E+00
   6.0588639E-04   4.4020362E+04   -1.6541664E+00
   6.0868443E-04   4.3686184E+04   -1.6536754E+00
   6.1149540E-04   4.3354641E+04   -1.6531852E+00
   6.1431935E-04   4.3025712E+04   -1.6526958E+00
   6.1715634E-04   4.2699374E+04   -1.6522074E+00
   6.2000644E-04   4.2375606E+04   -1.6517198E+00
   6.2286969E-04   4.2054388E+04   -1.6512331E+00
