#        a       HoverH0(a)       dlogHdloga_of_a(a)
   1.0000000E-04   1.0243536E+06   -1.8760542E+00
   1.0046181E-04   1.0155384E+06   -1.8756242E+00
   1.0092575E-04   1.0068010E+06   -1.8751932E+00
   1.0139184E-04   9.9814080E+05   -1.8747612E+00
   1.0186008E-04   9.8955707E+05   -1.8743282E+00
   1.0233048E-04   9.8104911E+05   -1.8738942E+00
   1.0280305E-04   9.7261625E+05   -1.8734592E+00
   1.0327781E-04   9.6425780E+05   -1.8730232E+00
   1.0375475E-04   9.5597312E+05   -1.8725862E+00
   1.0423390E-04   9.4776152E+05   -1.8721482E+00
   1.0471527E-04   9.3962235E+05   -1.8717093E+00
   1.0519885E-04   9.3155497E+05   -1.8712693E+00
   1.0568467E-04   9.2355873E+05   -1.8708284E+00
   1.0617274E-04   9.1563299E+05   -1.8703865E+00
   1.0666305E-04   9.0777711E+05   -1.8699436E+00
   1.0715563E-04   8.9999048E+05   -1.8694998E+00
   1.0765049E-04   8.9227247E+05   -1.8690549E+00
   1.0814763E-04   8.8462245E+05   -1.8686091E+00
   1.0864707E-04   8.7703983E+05   -1.8681623E+00
   1.0914881E-04   8.6952400E+05   -1.8677145E+00
   1.0965287E-04   8.6207435E+05   -1.8672658E+00
   1.1015926E-04   8.5469030E+05   -1.8668160E+00
   1.1066799E-04   8.4737125E+05   -1.8663654E+00
   1.1117906E-04   8.4011662E+05   -1.8659137E+00
   1.1169250E-04   8.3292584E+05   -1.8654611E+00
   1.1220831E-04   8.2579833E+05   -1.8650075E+00
   1.1272650E-04   8.1873353E+05   -1.8645529E+00
   1.1324708E-04   8.1173086E+05   -1.8640974E+00
   1.1377007E-04   8.0478979E+05   -1.8636410E+00
   1.1429547E-04   7.9790974E+05   -1.8631835E+00
   1.1482330E-04   7.9109018E+05   -1.8627252E+00
   1.1535356E-04   7.8433057E+05   -1.8622658E+00
   1.1588628E-04   7.7763036E+05   -1.8618055E+00
   1.1642145E-04   7.7098902E+05   -1.8613443E+00
   1.1695910E-04   7.6440603E+05   -1.8608821E+00
   1.1749923E-04   7.5788087E+05   -1.8604190E+00
   1.1804185E-04   7.5141301E+05   -1.8599549E+00
   1.1858698E-04   7.4500194E+05   -1.8594899E+00
   1.1913463E-04   7.3864715E+05   -1.8590240E+00
   1.1968481E-04   7.3234814E+05   -1.8585571E+00
   1.2023752E-04   7.2610442E+05   -1.8580892E+00
   1.2079279E-04   7.1991548E+05   -1.8576205E+00
   1.2135063E-04   7.1378083E+05   -1.8571508E+00
   1.2191104E-04   7.0770000E+05   -1.8566802E+00
   1.2247403E-04   7.0167249E+05   -1.8562086E+00
   1.2303963E-04   6.9569783E+05   -1.8557362E+00
   1.2360784E-04   6.8977554E+05   -1.8552628E+00
   1.2417868E-04   6.8390516E+05   -1.8547885E+00
   1.2475215E-04   6.7808623E+05   -1.8543132E+00
   1.2532826E-04   6.7231828E+05   -1.8538371E+00
   1.2590704E-04   6.6660086E+05   -1.8533600E+00
   1.2648850E-04   6.6093351E+05   -1.8528821E+00
   1.2707263E-04   6.5531579E+05   -1.8524032E+00
   1.2765947E-04   6.4974725E+05   -1.8519234E+00
   1.2824901E-04   6.4422746E+05   -1.8514428E+00
   1.2884128E-04   6.3875598E+05   -1.8509612E+00
   1.2943628E-04   6.3333237E+05   -1.8504787E+00
   1.3003403E-04   6.2795621E+05   -1.8499953E+00
   1.3063454E-04   6.2262708E+05   -1.8495111E+00
   1.3123783E-04   6.1734455E+05   -1.8490259E+00
   1.3184390E-04   6.1210821E+05   -1.8485399E+00
   1.3245277E-04   6.0691764E+05   -1.8480530E+00
   1.3306445E-04   6.0177244E+05   -1.8475652E+00
   1.3367895E-04   5.9667220E+05   -1.8470765E+00
   1.3429630E-04   5.9161652E+05   -1.8465869E+00
   1.3491649E-04   5.8660500E+05   -1.8460965E+00
   1.3553955E-04   5.8163725E+05   -1.8456052E+00
   1.3616548E-04   5.7671287E+05   -1.8451131E+00
   1.3679431E-04   5.7183149E+05   -1.8446200E+00
   1.3742604E-04   5.6699271E+05   -1.8441262E+00
   1.3806069E-04   5.6219616E+05   -1.8436314E+00
   1.3869827E-04   5.5744146E+05   -1.8431358E+00
   1.3933879E-04   5.5272823E+05   -1.8426394E+00
   1.3998227E-04   5.4805610E+05   -1.8421421E+00
   1.4062872E-04   5.4342472E+05   -1.8416439E+00
   1.4127816E-04   5.3883371E+05   -1.8411449E+00
   1.4193060E-04   5.3428272E+05   -1.8406451E+00
   1.4258605E-04   5.2977138E+05   -1.8401444E+00
   1.4324453E-04   5.2529935E+05   -1.8396429E+00
   1.4390605E-04   5.2086628E+05   -1.8391406E+00
   1.4457062E-04   5.1647181E+05   -1.8386375E+00
   1.4523826E-04   5.1211561E+05   -1.8381335E+00
   1.4590899E-04   5.0779733E+05   -1.8376287E+00
   1.4658281E-04   5.0351664E+05   -1.8371231E+00
   1.4725974E-04   4.9927319E+05   -1.8366167E+00
   1.4793981E-04   4.9506666E+05   -1.8361095E+00
   1.4862301E-04   4.9089673E+05   -1.8356014E+00
   1.4930936E-04   4.8676305E+05   -1.8350926E+00
   1.4999889E-04   4.8266532E+05   -1.8345829E+00
   1.5069160E-04   4.7860320E+05   -1.8340725E+00
   1.5138751E-04   4.7457640E+05   -1.8335613E+00
   1.5208663E-04   4.7058457E+05   -1.8330493E+00
   1.5278899E-04   4.6662743E+05   -1.8325365E+00
   1.5349458E-04   4.6270466E+05   -1.8320229E+00
   1.5420343E-04   4.5881596E+05   -1.8315085E+00
   1.5491556E-04   4.5496101E+05   -1.8309934E+00
   1.5563098E-04   4.5113952E+05   -1.8304775E+00
   1.5634970E-04   4.4735120E+05   -1.8299609E+00
   1.5707174E-04   4.4359575E+05   -1.8294434E+00
   1.5779711E-04   4.3987287E+05   -1.8289252E+00
   1.5852584E-04   4.3618227E+05   -1.8284063E+00
   1.5925792E-04   4.3252368E+05   -1.8278866E+00
   1.5999339E-04   4.2889680E+05   -1.8273662E+00
   1.6073226E-04   4.2530136E+05   -1.8268450E+00
   1.6147454E-04   4.2173707E+05   -1.8263231E+00
   1.6222024E-04   4.1820365E+05   -1.8258004E+00
   1.6296939E-04   4.1470084E+05   -1.8252771E+00
   1.6372200E-04   4.1122836E+05   -1.8247529E+00
   1.6447809E-04   4.0778595E+05   -1.8242281E+00
   1.6523767E-04   4.0437333E+05   -1.8237026E+00
   1.6600075E-04   4.0099024E+05   -1.8231763E+00
   1.6676736E-04   3.9763641E+05   -1.8226493E+00
   1.6753751E-04   3.9431160E+05   -1.8221216E+00
   1.6831122E-04   3.9101554E+05   -1.8215932E+00
   1.6908849E-04   3.8774797E+05   -1.8210642E+00
   1.6986936E-04   3.8450865E+05   -1.8205344E+00
   1.7065384E-04   3.8129732E+05   -1.8200039E+00
   1.7144193E-04   3.7811374E+05   -1.8194728E+00
   1.7223367E-04   3.7495765E+05   -1.8189409E+00
   1.7302906E-04   3.7182883E+05   -1.8184084E+00
   1.7382813E-04   3.6872701E+05   -1.8178752E+00
   1.7463089E-04   3.6565197E+05   -1.8173414E+00
   1.7543735E-04   3.6260347E+05   -1.8168069E+00
   1.7624754E-04   3.5958127E+05   -1.8162717E+00
   1.7706147E-04   3.5658513E+05   -1.8157359E+00
   1.7787916E-04   3.5361484E+05   -1.8151994E+00
   1.7870062E-04   3.5067015E+05   -1.8146623E+00
   1.7952588E-04   3.4775085E+05   -1.8141245E+00
   1.8035495E-04   3.4485670E+05   -1.8135861E+00
   1.8118785E-04   3.4198749E+05   -1.8130471E+00
   1.8202459E-04   3.3914300E+05   -1.8125075E+00
   1.8286520E-04   3.3632300E+05   -1.8119672E+00
   1.8370969E-04   3.3352728E+05   -1.8114263E+00
   1.8455808E-04   3.3075563E+05   -1.8108848E+00
   1.8541039E-04   3.2800782E+05   -1.8103427E+00
   1.8626663E-04   3.2528366E+05   -1.8097999E+00
   1.8712683E-04   3.2258293E+05   -1.8092566E+00
   1.8799100E-04   3.1990542E+05   -1.8087127E+00
   1.8885917E-04   3.1725094E+05   -1.8081682E+00
   1.8973134E-04   3.1461927E+05   -1.8076231E+00
   1.9060754E-04   3.1201021E+05   -1.8070775E+00
   1.9148778E-04   3.0942357E+05   -1.8065312E+00
   1.9237209E-04   3.0685914E+05   -1.8059844E+00
   1.9326049E-04   3.0431673E+05   -1.8054370E+00
   1.9415299E-04   3.0179615E+05   -1.8048891E+00
   1.9504960E-04   2.9929721E+05   -1.8043406E+00
   1.9595036E-04   2.9681971E+05   -1.8037916E+00
   1.9685528E-04   2.9436346E+05   -1.8032420E+00
   1.9776438E-04   2.9192827E+05   -1.8026919E+00
   1.9867768E-04   2.8951397E+05   -1.8021412E+00
   1.9959519E-04   2.8712036E+05   -1.8015900E+00
   2.0051694E-04   2.8474726E+05   -1.8010383E+00
   2.0144295E-04   2.8239450E+05   -1.8004861E+00
   2.0237324E-04   2.8006189E+05   -1.7999333E+00
   2.0330782E-04   2.7774925E+05   -1.7993801E+00
   2.0424671E-04   2.7545641E+05   -1.7988263E+00
   2.0518995E-04   2.7318320E+05   -1.7982720E+00
   2.0613754E-04   2.7092944E+05   -1.7977173E+00
   2.0708950E-04   2.6869496E+05   -1.7971620E+00
   2.0804586E-04   2.6647959E+05   -1.7966063E+00
   2.0900664E-04   2.6428317E+05   -1.7960501E+00
   2.0997185E-04   2.6210552E+05   -1.7954934E+00
   2.1094152E-04   2.5994648E+05   -1.7949363E+00
   2.1191567E-04   2.5780589E+05   -1.7943787E+00
   2.1289432E-04   2.5568358E+05   -1.7938206E+00
   2.1387749E-04   2.5357939E+05   -1.7932621E+00
   2.1486520E-04   2.5149317E+05   -1.7927032E+00
   2.1585747E-04   2.4942476E+05   -1.7921438E+00
   2.1685432E-04   2.4737399E+05   -1.7915839E+00
   2.1785578E-04   2.4534072E+05   -1.7910237E+00
   2.1886186E-04   2.4332479E+05   -1.7904630E+00
   2.1987259E-04   2.4132605E+05   -1.7899019E+00
   2.2088798E-04   2.3934434E+05   -1.7893404E+00
   2.2190807E-04   2.3737953E+05   -1.7887784E+00
   2.2293286E-04   2.3543145E+05   -1.7882161E+00
   2.2396239E-04   2.3349996E+05   -1.7876534E+00
   2.2499667E-04   2.3158493E+05   -1.7870903E+00
   2.2603573E-04   2.2968619E+05   -1.7865268E+00
   2.2707958E-04   2.2780361E+05   -1.7859629E+00
   2.2812826E-04   2.2593705E+05   -1.7853986E+00
   2.2918178E-04   2.2408637E+05   -1.7848340E+00
   2.3024017E-04   2.2225142E+05   -1.7842690E+00
   2.3130344E-04   2.2043208E+05   -1.7837037E+00
   2.3237162E-04   2.1862819E+05   -1.7831380E+00
   2.3344474E-04   2.1683964E+05   -1.7825719E+00
   2.3452281E-04   2.1506627E+05   -1.7820056E+00
   2.3560586E-04   2.1330797E+05   -1.7814388E+00
   2.3669392E-04   2.1156460E+05   -1.7808718E+00
   2.3778699E-04   2.0983602E+05   -1.7803044E+00
   2.3888512E-04   2.0812211E+05   -1.7797367E+00
   2.3998831E-04   2.0642273E+05   -1.7791687E+00
   2.4109661E-04   2.0473777E+05   -1.7786004E+00
   2.4221001E-04   2.0306710E+05   -1.7780318E+00
   2.4332857E-04   2.0141059E+05   -1.7774629E+00
   2.4445228E-04   1.9976811E+05   -1.7768938E+00
   2.4558119E-04   1.9813954E+05   -1.7763243E+00
   2.4671531E-04   1.9652477E+05   -1.7757545E+00
   2.4785467E-04   1.9492367E+05   -1.7751845E+00
   2.4899928E-04   1.9333613E+05   -1.7746142E+00
   2.5014919E-04   1.9176201E+05   -1.7740437E+00
   2.5130440E-04   1.9020122E+05   -1.7734729E+00
   2.5246495E-04   1.8865362E+05   -1.7729019E+00
   2.5363086E-04   1.8711911E+05   -1.7723306E+00
   2.5480216E-04   1.8559757E+05   -1.7717591E+00
   2.5597886E-04   1.8408888E+05   -1.7711873E+00
   2.5716100E-04   1.8259294E+05   -1.7706153E+00
   2.5834859E-04   1.8110963E+05   -1.7700431E+00
   2.5954168E-04   1.7963885E+05   -1.7694707E+00
   2.6074027E-04   1.7818048E+05   -1.7688981E+00
   2.6194439E-04   1.7673442E+05   -1.7683253E+00
   2.6315408E-04   1.7530055E+05   -1.7677523E+00
   2.6436935E-04   1.7387878E+05   -1.7671791E+00
   2.6559024E-04   1.7246900E+05   -1.7666058E+00
   2.6681676E-04   1.7107109E+05   -1.7660322E+00
   2.6804895E-04   1.6968497E+05   -1.7654585E+00
   2.6928683E-04   1.6831052E+05   -1.7648846E+00
   2.7053042E-04   1.6694765E+05   -1.7643106E+00
   2.7177976E-04   1.6559625E+05   -1.7637364E+00
   2.7303487E-04   1.6425622E+05   -1.7631620E+00
   2.7429577E-04   1.6292747E+05   -1.7625876E+00
   2.7556250E-04   1.6160990E+05   -1.7620130E+00
   2.7683507E-04   1.6030340E+05   -1.7614382E+00
   2.7811353E-04   1.5900789E+05   -1.7608634E+00
   2.7939788E-04   1.5772327E+05   -1.7602884E+00
   2.8068817E-04   1.5644943E+05   -1.7597133E+00
   2.8198442E-04   1.5518630E+05   -1.7591381E+00
   2.8328665E-04   1.5393378E+05   -1.7585628E+00
   2.8459490E-04   1.5269177E+05   -1.7579874E+00
   2.8590919E-04   1.5146018E+05   -1.7574120E+00
   2.8722955E-04   1.5023892E+05   -1.7568364E+00
   2.8855600E-04   1.4902791E+05   -1.7562608E+00
   2.8988859E-04   1.4782705E+05   -1.7556851E+00
   2.9122732E-04   1.4663625E+05   -1.7551094E+00
   2.9257224E-04   1.4545543E+05   -1.7545336E+00
   2.9392337E-04   1.4428451E+05   -1.7539578E+00
   2.9528074E-04   1.4312339E+05   -1.7533819E+00
   2.9664438E-04   1.4197199E+05   -1.7528059E+00
   2.9801431E-04   1.4083023E+05   -1.7522300E+00
   2.9939057E-04   1.3969802E+05   -1.7516540E+00
   3.0077319E-04   1.3857528E+05   -1.7510780E+00
   3.0216219E-04   1.3746193E+05   -1.7505020E+00
   3.0355761E-04   1.3635788E+05   -1.7499260E+00
   3.0495947E-04   1.3526306E+05   -1.7493500E+00
   3.0636780E-04   1.3417739E+05   -1.7487740E+00
   3.0778264E-04   1.3310079E+05   -1.7481980E+00
   3.0920401E-04   1.3203317E+05   -1.7476220E+00
   3.1063195E-04   1.3097447E+05   -1.7470460E+00
   3.1206648E-04   1.2992460E+05   -1.7464701E+00
   3.1350764E-04   1.2888348E+05   -1.7458942E+00
   3.1495545E-04   1.2785105E+05   -1.7453184E+00
   3.1640994E-04   1.2682723E+05   -1.7447426E+00
   3.1787116E-04   1.2581193E+05   -1.7441668E+00
   3.1933912E-04   1.2480510E+05   -1.7435912E+00
   3.2081386E-04   1.2380665E+05   -1.7430156E+00
   3.2229541E-04   1.2281652E+05   -1.7424400E+00
   3.2378381E-04   1.2183463E+05   -1.7418646E+00
   3.2527908E-04   1.2086091E+05   -1.7412892E+00
   3.2678125E-04   1.1989528E+05   -1.7407139E+00
   3.2829036E-04   1.1893769E+05   -1.7401387E+00
   3.2980644E-04   1.1798806E+05   -1.7395637E+00
   3.3132952E-04   1.1704632E+05   -1.7389887E+00
   3.3285963E-04   1.1611241E+05   -1.7384138E+00
   3.3439681E-04   1.1518625E+05   -1.7378391E+00
   3.3594109E-04   1.1426778E+05   -1.7372645E+00
   3.3749250E-04   1.1335694E+05   -1.7366900E+00
   3.3905108E-04   1.1245365E+05   -1.7361157E+00
   3.4061685E-04   1.1155786E+05   -1.7355415E+00
   3.4218986E-04   1.1066949E+05   -1.7349675E+00
   3.4377013E-04   1.0978849E+05   -1.7343936E+00
   3.4535769E-04   1.0891479E+05   -1.7338199E+00
   3.4695259E-04   1.0804833E+05   -1.7332464E+00
   3.4855485E-04   1.0718905E+05   -1.7326730E+00
   3.5016452E-04   1.0633688E+05   -1.7320999E+00
   3.5178161E-04   1.0549176E+05   -1.7315269E+00
   3.5340618E-04   1.0465364E+05   -1.7309541E+00
   3.5503824E-04   1.0382245E+05   -1.7303815E+00
   3.5667785E-04   1.0299813E+05   -1.7298091E+00
   3.5832502E-04   1.0218063E+05   -1.7292369E+00
   3.5997981E-04   1.0136988E+05   -1.7286650E+00
   3.6164223E-04   1.0056583E+05   -1.7280932E+00
   3.6331233E-04   9.9768425E+04   -1.7275217E+00
   3.6499015E-04   9.8977600E+04   -1.7269505E+00
   3.6667571E-04   9.8193301E+04   -1.7263794E+00
   3.6836906E-04   9.7415473E+04   -1.7258087E+00
   3.7007022E-04   9.6644061E+04   -1.7252381E+00
   3.7177925E-04   9.5879010E+04   -1.7246679E+00
   3.7349616E-04   9.5120264E+04   -1.7240979E+00
   3.7522101E-04   9.4367771E+04   -1.7235281E+00
   3.7695382E-04   9.3621476E+04   -1.7229587E+00
   3.7869463E-04   9.2881328E+04   -1.7223895E+00
   3.8044348E-04   9.2147272E+04   -1.7218206E+00
   3.8220041E-04   9.1419257E+04   -1.7212521E+00
   3.8396545E-04   9.0697232E+04   -1.7206838E+00
   3.8573864E-04   8.9981144E+04   -1.7201158E+00
   3.8752002E-04   8.9270944E+04   -1.7195481E+00
   3.8930963E-04   8.8566580E+04   -1.7189808E+00
   3.9110750E-04   8.7868004E+04   -1.7184138E+00
   3.9291368E-04   8.7175166E+04   -1.7178471E+00
   3.9472820E-04   8.6488016E+04   -1.7172807E+00
   3.9655109E-04   8.5806507E+04   -1.7167147E+00
   3.9838241E-04   8.5130590E+04   -1.7161490E+00
   4.0022218E-04   8.4460217E+04   -1.7155837E+00
   4.0207045E-04   8.3795341E+04   -1.7150187E+00
   4.0392725E-04   8.3135916E+04   -1.7144541E+00
   4.0579263E-04   8.2481894E+04   -1.7138899E+00
   4.0766662E-04   8.1833231E+04   -1.7133260E+00
   4.0954927E-04   8.1189879E+04   -1.7127626E+00
   4.1144061E-04   8.0551795E+04   -1.7121995E+00
   4.1334068E-04   7.9918932E+04   -1.7116368E+00
   4.1524953E-04   7.9291247E+04   -1.7110745E+00
   4.1716720E-04   7.8668696E+04   -1.7105126E+00
   4.1909372E-04   7.8051234E+04   -1.7099511E+00
   4.2102914E-04   7.7438819E+04   -1.7093900E+00
   4.2297350E-04   7.6831408E+04   -1.7088293E+00
   4.2492683E-04   7.6228958E+04   -1.7082691E+00
   4.2688919E-04   7.5631427E+04   -1.7077093E+00
   4.2886061E-04   7.5038774E+04   -1.7071499E+00
   4.3084113E-04   7.4450957E+04   -1.7065910E+00
   4.3283080E-04   7.3867934E+04   -1.7060325E+00
   4.3482966E-04   7.3289665E+04   -1.7054745E+00
   4.3683775E-04   7.2716111E+04   -1.7049169E+00
   4.3885511E-04   7.2147230E+04   -1.7043598E+00
   4.4088179E-04   7.1582983E+04   -1.7038032E+00
   4.4291783E-04   7.1023331E+04   -1.7032470E+00
   4.4496327E-04   7.0468235E+04   -1.7026913E+00
   4.4701816E-04   6.9917657E+04   -1.7021361E+00
   4.4908253E-04   6.9371557E+04   -1.7015814E+00
   4.5115644E-04   6.8829899E+04   -1.7010271E+00
   4.5323993E-04   6.8292645E+04   -1.7004734E+00
   4.5533304E-04   6.7759757E+04   -1.6999202E+00
   4.5743582E-04   6.7231198E+04   -1.6993675E+00
   4.5954830E-04   6.6706932E+04   -1.6988153E+00
   4.6167054E-04   6.6186923E+04   -1.6982636E+00
   4.6380259E-04   6.5671134E+04   -1.6977124E+00
   4.6594448E-04   6.5159530E+04   -1.6971618E+00
   4.6809626E-04   6.4652075E+04   -1.6966117E+00
   4.7025797E-04   6.4148736E+04   -1.6960622E+00
   4.7242967E-04   6.3649475E+04   -1.6955131E+00
   4.7461140E-04   6.3154260E+04   -1.6949647E+00
   4.7680321E-04   6.2663057E+04   -1.6944168E+00
   4.7900514E-04   6.2175830E+04   -1.6938694E+00
   4.8121723E-04   6.1692548E+04   -1.6933227E+00
   4.8343954E-04   6.1213176E+04   -1.6927765E+00
   4.8567212E-04   6.0737682E+04   -1.6922308E+00
   4.8791500E-04   6.0266033E+04   -1.6916858E+00
   4.9016825E-04   5.9798197E+04   -1.6911413E+00
   4.9243189E-04   5.9334141E+04   -1.6905974E+00
   4.9470600E-04   5.8873834E+04   -1.6900541E+00
   4.9699060E-04   5.8417243E+04   -1.6895115E+00
   4.9928575E-04   5.7964339E+04   -1.6889694E+00
   5.0159151E-04   5.7515090E+04   -1.6884279E+00
   5.0390791E-04   5.7069465E+04   -1.6878870E+00
   5.0623501E-04   5.6627433E+04   -1.6873468E+00
   5.0857286E-04   5.6188965E+04   -1.6868072E+00
   5.1092150E-04   5.5754031E+04   -1.6862682E+00
   5.1328099E-04   5.5322600E+04   -1.6857298E+00
   5.1565137E-04   5.4894645E+04   -1.6851921E+00
   5.1803270E-04   5.4470134E+04   -1.6846550E+00
   5.2042503E-04   5.4049040E+04   -1.6841186E+00
   5.2282841E-04   5.3631334E+04   -1.6835828E+00
   5.2524289E-04   5.3216988E+04   -1.6830476E+00
   5.2766851E-04   5.2805972E+04   -1.6825132E+00
   5.3010534E-04   5.2398260E+04   -1.6819794E+00
   5.3255342E-04   5.1993824E+04   -1.6814462E+00
   5.3501281E-04   5.1592636E+04   -1.6809137E+00
   5.3748356E-04   5.1194669E+04   -1.6803819E+00
   5.3996571E-04   5.0799896E+04   -1.6798508E+00
   5.4245933E-04   5.0408291E+04   -1.6793204E+00
   5.4496446E-04   5.0019827E+04   -1.6787906E+00
   5.4748117E-04   4.9634477E+04   -1.6782616E+00
   5.5000949E-04   4.9252217E+04   -1.6777332E+00
   5.5254949E-04   4.8873019E+04   -1.6772056E+00
   5.5510123E-04   4.8496858E+04   -1.6766787E+00
   5.5766474E-04   4.8123709E+04   -1.6761524E+00
   5.6024010E-04   4.7753547E+04   -1.6756269E+00
   5.6282734E-04   4.7386347E+04   -1.6751021E+00
   5.6542654E-04   4.7022084E+04   -1.6745780E+00
   5.6803774E-04   4.6660734E+04   -1.6740547E+00
   5.7066099E-04   4.6302273E+04   -1.6735321E+00
   5.7329637E-04   4.5946675E+04   -1.6730102E+00
   5.7594391E-04   4.5593918E+04   -1.6724890E+00
   5.7860368E-04   4.5243979E+04   -1.6719686E+00
   5.8127573E-04   4.4896832E+04   -1.6714490E+00
   5.8396012E-04   4.4552456E+04   -1.6709301E+00
   5.8665691E-04   4.4210827E+04   -1.6704119E+00
   5.8936616E-04   4.3871922E+04   -1.6698945E+00
   5.9208791E-04   4.3535718E+04   -1.6693779E+00
   5.9482223E-04   4.3202194E+04   -1.6688620E+00
   5.9756919E-04   4.2871327E+04   -1.6683469E+00
   6.0032882E-04   4.2543095E+04   -1.6678326E+00
   6.0310120E-04   4.2217475E+04   -1.6673191E+00
   6.0588639E-04   4.1894447E+04   -1.6668063E+00
   6.0868443E-04   4.1573989E+04   -1.6662943E+00
   6.1149540E-04   4.1256079E+04   -1.6657831E+00
   6.1431935E-04   4.0940697E+04   -1.6652727E+00
   6.1715634E-04   4.0627821E+04   -1.6647631E+00
   6.2000644E-04   4.0317431E+04   -1.6642543E+00
   6.2286969E-04   4.0009505E+04   -1.6637463E+00
