#        a       HoverH0(a)       dlogHdloga_of_a(a)
   1.0000000E-04   1.1507278E+06   -1.8502960E+00
   1.0046181E-04   1.1409606E+06   -1.8498123E+00
   1.0092575E-04   1.1312788E+06   -1.8493277E+00
   1.0139184E-04   1.1216817E+06   -1.8488422E+00
   1.0186008E-04   1.1121685E+06   -1.8483559E+00
   1.0233048E-04   1.1027384E+06   -1.8478686E+00
   1.0280305E-04   1.0933908E+06   -1.8473805E+00
   1.0327781E-04   1.0841248E+06   -1.8468915E+00
   1.0375475E-04   1.0749398E+06   -1.8464016E+00
   1.0423390E-04   1.0658350E+06   -1.8459109E+00
   1.0471527E-04   1.0568098E+06   -1.8454193E+00
   1.0519885E-04   1.0478633E+06   -1.8449268E+00
   1.0568467E-04   1.0389949E+06   -1.8444335E+00
   1.0617274E-04   1.0302039E+06   -1.8439393E+00
   1.0666305E-04   1.0214897E+06   -1.8434442E+00
   1.0715563E-04   1.0128514E+06   -1.8429483E+00
   1.0765049E-04   1.0042885E+06   -1.8424515E+00
   1.0814763E-04   9.9580028E+05   -1.8419539E+00
   1.0864707E-04   9.8738607E+05   -1.8414555E+00
   1.0914881E-04   9.7904520E+05   -1.8409562E+00
   1.0965287E-04   9.7077702E+05   -1.8404560E+00
   1.1015926E-04   9.6258089E+05   -1.8399551E+00
   1.1066799E-04   9.5445616E+05   -1.8394533E+00
   1.1117906E-04   9.4640220E+05   -1.8389506E+00
   1.1169250E-04   9.3841838E+05   -1.8384472E+00
   1.1220831E-04   9.3050406E+05   -1.8379429E+00
   1.1272650E-04   9.2265864E+05   -1.8374378E+00
   1.1324708E-04   9.1488150E+05   -1.8369319E+00
   1.1377007E-04   9.0717203E+05   -1.8364252E+00
   1.1429547E-04   8.9952963E+05   -1.8359177E+00
   1.1482330E-04   8.9195369E+05   -1.8354094E+00
   1.1535356E-04   8.8444364E+05   -1.8349002E+00
   1.1588628E-04   8.7699888E+05   -1.8343903E+00
   1.1642145E-04   8.6961882E+05   -1.8338796E+00
   1.1695910E-04   8.6230291E+05   -1.8333681E+00
   1.1749923E-04   8.5505055E+05   -1.8328558E+00
   1.1804185E-04   8.4786120E+05   -1.8323427E+00
   1.1858698E-04   8.4073428E+05   -1.8318288E+00
   1.1913463E-04   8.3366924E+05   -1.8313142E+00
   1.1968481E-04   8.2666554E+05   -1.8307988E+00
   1.2023752E-04   8.1972262E+05   -1.8302826E+00
   1.2079279E-04   8.1283995E+05   -1.8297657E+00
   1.2135063E-04   8.0601699E+05   -1.8292480E+00
   1.2191104E-04   7.9925321E+05   -1.8287295E+00
   1.2247403E-04   7.9254809E+05   -1.8282103E+00
   1.2303963E-04   7.8590109E+05   -1.8276903E+00
   1.2360784E-04   7.7931171E+05   -1.8271696E+00
   1.2417868E-04   7.7277944E+05   -1.8266482E+00
   1.2475215E-04   7.6630376E+05   -1.8261260E+00
   1.2532826E-04   7.5988417E+05   -1.8256031E+00
   1.2590704E-04   7.5352019E+05   -1.8250795E+00
   1.2648850E-04   7.4721130E+05   -1.8245551E+00
   1.2707263E-04   7.4095702E+05   -1.8240300E+00
   1.2765947E-04   7.3475688E+05   -1.8235042E+00
   1.2824901E-04   7.2861038E+05   -1.8229777E+00
   1.2884128E-04   7.2251705E+05   -1.8224504E+00
   1.2943628E-04   7.1647643E+05   -1.8219225E+00
   1.3003403E-04   7.1048804E+05   -1.8213939E+00
   1.3063454E-04   7.0455141E+05   -1.8208645E+00
   1.3123783E-04   6.9866609E+05   -1.8203345E+00
   1.3184390E-04   6.9283163E+05   -1.8198038E+00
   1.3245277E-04   6.8704758E+05   -1.8192724E+00
   1.3306445E-04   6.8131348E+05   -1.8187403E+00
   1.3367895E-04   6.7562889E+05   -1.8182076E+00
   1.3429630E-04   6.6999338E+05   -1.8176742E+00
   1.3491649E-04   6.6440651E+05   -1.8171401E+00
   1.3553955E-04   6.5886785E+05   -1.8166053E+00
   1.3616548E-04   6.5337697E+05   -1.8160699E+00
   1.3679431E-04   6.4793345E+05   -1.8155339E+00
   1.3742604E-04   6.4253687E+05   -1.8149972E+00
   1.3806069E-04   6.3718682E+05   -1.8144598E+00
   1.3869827E-04   6.3188288E+05   -1.8139218E+00
   1.3933879E-04   6.2662464E+05   -1.8133832E+00
   1.3998227E-04   6.2141170E+05   -1.8128440E+00
   1.4062872E-04   6.1624366E+05   -1.8123041E+00
   1.4127816E-04   6.1112012E+05   -1.8117636E+00
   1.4193060E-04   6.0604069E+05   -1.8112225E+00
   1.4258605E-04   6.0100498E+05   -1.8106808E+00
   1.4324453E-04   5.9601259E+05   -1.8101384E+00
   1.4390605E-04   5.9106316E+05   -1.8095955E+00
   1.4457062E-04   5.8615630E+05   -1.8090520E+00
   1.4523826E-04   5.8129162E+05   -1.8085078E+00
   1.4590899E-04   5.7646877E+05   -1.8079631E+00
   1.4658281E-04   5.7168737E+05   -1.8074179E+00
   1.4725974E-04   5.6694705E+05   -1.8068720E+00
   1.4793981E-04   5.6224745E+05   -1.8063255E+00
   1.4862301E-04   5.5758821E+05   -1.8057785E+00
   1.4930936E-04   5.5296898E+05   -1.8052310E+00
   1.4999889E-04   5.4838939E+05   -1.8046828E+00
   1.5069160E-04   5.4384911E+05   -1.8041342E+00
   1.5138751E-04   5.3934779E+05   -1.8035849E+00
   1.5208663E-04   5.3488507E+05   -1.8030352E+00
   1.5278899E-04   5.3046062E+05   -1.8024849E+00
   1.5349458E-04   5.2607411E+05   -1.8019340E+00
   1.5420343E-04   5.2172520E+05   -1.8013827E+00
   1.5491556E-04   5.1741355E+05   -1.8008308E+00
   1.5563098E-04   5.1313884E+05   -1.8002784E+00
   1.5634970E-04   5.0890074E+05   -1.7997254E+00
   1.5707174E-04   5.0469893E+05   -1.7991720E+00
   1.5779711E-04   5.0053309E+05   -1.7986181E+00
   1.5852584E-04   4.9640290E+05   -1.7980636E+00
   1.5925792E-04   4.9230805E+05   -1.7975087E+00
   1.5999339E-04   4.8824823E+05   -1.7969533E+00
   1.6073226E-04   4.8422313E+05   -1.7963974E+00
   1.6147454E-04   4.8023244E+05   -1.7958411E+00
   1.6222024E-04   4.7627586E+05   -1.7952842E+00
   1.6296939E-04   4.7235310E+05   -1.7947269E+00
   1.6372200E-04   4.6846384E+05   -1.7941692E+00
   1.6447809E-04   4.6460780E+05   -1.7936110E+00
   1.6523767E-04   4.6078469E+05   -1.7930523E+00
   1.6600075E-04   4.5699422E+05   -1.7924932E+00
   1.6676736E-04   4.5323609E+05   -1.7919337E+00
   1.6753751E-04   4.4951003E+05   -1.7913737E+00
   1.6831122E-04   4.4581575E+05   -1.7908133E+00
   1.6908849E-04   4.4215297E+05   -1.7902525E+00
   1.6986936E-04   4.3852142E+05   -1.7896912E+00
   1.7065384E-04   4.3492082E+05   -1.7891296E+00
   1.7144193E-04   4.3135091E+05   -1.7885675E+00
   1.7223367E-04   4.2781140E+05   -1.7880051E+00
   1.7302906E-04   4.2430204E+05   -1.7874422E+00
   1.7382813E-04   4.2082255E+05   -1.7868790E+00
   1.7463089E-04   4.1737269E+05   -1.7863153E+00
   1.7543735E-04   4.1395218E+05   -1.7857513E+00
   1.7624754E-04   4.1056077E+05   -1.7851870E+00
   1.7706147E-04   4.0719820E+05   -1.7846222E+00
   1.7787916E-04   4.0386423E+05   -1.7840571E+00
   1.7870062E-04   4.0055860E+05   -1.7834917E+00
   1.7952588E-04   3.9728105E+05   -1.7829259E+00
   1.8035495E-04   3.9403136E+05   -1.7823597E+00
   1.8118785E-04   3.9080926E+05   -1.7817932E+00
   1.8202459E-04   3.8761453E+05   -1.7812264E+00
   1.8286520E-04   3.8444691E+05   -1.7806593E+00
   1.8370969E-04   3.8130618E+05   -1.7800918E+00
   1.8455808E-04   3.7819210E+05   -1.7795240E+00
   1.8541039E-04   3.7510443E+05   -1.7789559E+00
   1.8626663E-04   3.7204294E+05   -1.7783875E+00
   1.8712683E-04   3.6900741E+05   -1.7778189E+00
   1.8799100E-04   3.6599760E+05   -1.7772499E+00
   1.8885917E-04   3.6301329E+05   -1.7766806E+00
   1.8973134E-04   3.6005426E+05   -1.7761111E+00
   1.9060754E-04   3.5712029E+05   -1.7755412E+00
   1.9148778E-04   3.5421116E+05   -1.7749711E+00
   1.9237209E-04   3.5132665E+05   -1.7744008E+00
   1.9326049E-04   3.4846654E+05   -1.7738302E+00
   1.9415299E-04   3.4563063E+05   -1.7732593E+00
   1.9504960E-04   3.4281870E+05   -1.7726882E+00
   1.9595036E-04   3.4003054E+05   -1.7721169E+00
   1.9685528E-04   3.3726594E+05   -1.7715453E+00
   1.9776438E-04   3.3452471E+05   -1.7709735E+00
   1.9867768E-04   3.3180662E+05   -1.7704014E+00
   1.9959519E-04   3.2911149E+05   -1.7698292E+00
   2.0051694E-04   3.2643912E+05   -1.7692567E+00
   2.0144295E-04   3.2378929E+05   -1.7686841E+00
   2.0237324E-04   3.2116183E+05   -1.7681112E+00
   2.0330782E-04   3.1855652E+05   -1.7675382E+00
   2.0424671E-04   3.1597319E+05   -1.7669650E+00
   2.0518995E-04   3.1341163E+05   -1.7663915E+00
   2.0613754E-04   3.1087166E+05   -1.7658180E+00
   2.0708950E-04   3.0835309E+05   -1.7652442E+00
   2.0804586E-04   3.0585573E+05   -1.7646703E+00
   2.0900664E-04   3.0337940E+05   -1.7640962E+00
   2.0997185E-04   3.0092392E+05   -1.7635220E+00
   2.1094152E-04   2.9848910E+05   -1.7629476E+00
   2.1191567E-04   2.9607476E+05   -1.7623731E+00
   2.1289432E-04   2.9368073E+05   -1.7617985E+00
   2.1387749E-04   2.9130683E+05   -1.7612238E+00
   2.1486520E-04   2.8895288E+05   -1.7606489E+00
   2.1585747E-04   2.8661872E+05   -1.7600739E+00
   2.1685432E-04   2.8430416E+05   -1.7594988E+00
   2.1785578E-04   2.8200904E+05   -1.7589236E+00
   2.1886186E-04   2.7973319E+05   -1.7583483E+00
   2.1987259E-04   2.7747644E+05   -1.7577729E+00
   2.2088798E-04   2.7523863E+05   -1.7571975E+00
   2.2190807E-04   2.7301959E+05   -1.7566219E+00
   2.2293286E-04   2.7081916E+05   -1.7560463E+00
   2.2396239E-04   2.6863718E+05   -1.7554706E+00
   2.2499667E-04   2.6647348E+05   -1.7548949E+00
   2.2603573E-04   2.6432791E+05   -1.7543191E+00
   2.2707958E-04   2.6220032E+05   -1.7537433E+00
   2.2812826E-04   2.6009053E+05   -1.7531674E+00
   2.2918178E-04   2.5799841E+05   -1.7525915E+00
   2.3024017E-04   2.5592380E+05   -1.7520156E+00
   2.3130344E-04   2.5386654E+05   -1.7514396E+00
   2.3237162E-04   2.5182649E+05   -1.7508637E+00
   2.3344474E-04   2.4980349E+05   -1.7502877E+00
   2.3452281E-04   2.4779740E+05   -1.7497117E+00
   2.3560586E-04   2.4580808E+05   -1.7491357E+00
   2.3669392E-04   2.4383537E+05   -1.7485598E+00
   2.3778699E-04   2.4187914E+05   -1.7479838E+00
   2.3888512E-04   2.3993924E+05   -1.7474079E+00
   2.3998831E-04   2.3801553E+05   -1.7468320E+00
   2.4109661E-04   2.3610787E+05   -1.7462561E+00
   2.4221001E-04   2.3421612E+05   -1.7456802E+00
   2.4332857E-04   2.3234014E+05   -1.7451044E+00
   2.4445228E-04   2.3047980E+05   -1.7445287E+00
   2.4558119E-04   2.2863496E+05   -1.7439530E+00
   2.4671531E-04   2.2680549E+05   -1.7433774E+00
   2.4785467E-04   2.2499125E+05   -1.7428019E+00
   2.4899928E-04   2.2319212E+05   -1.7422264E+00
   2.5014919E-04   2.2140797E+05   -1.7416510E+00
   2.5130440E-04   2.1963866E+05   -1.7410757E+00
   2.5246495E-04   2.1788406E+05   -1.7405005E+00
   2.5363086E-04   2.1614405E+05   -1.7399254E+00
   2.5480216E-04   2.1441851E+05   -1.7393504E+00
   2.5597886E-04   2.1270731E+05   -1.7387755E+00
   2.5716100E-04   2.1101032E+05   -1.7382007E+00
   2.5834859E-04   2.0932742E+05   -1.7376261E+00
   2.5954168E-04   2.0765850E+05   -1.7370516E+00
   2.6074027E-04   2.0600343E+05   -1.7364772E+00
   2.6194439E-04   2.0436209E+05   -1.7359030E+00
   2.6315408E-04   2.0273436E+05   -1.7353289E+00
   2.6436935E-04   2.0112013E+05   -1.7347549E+00
   2.6559024E-04   1.9951928E+05   -1.7341812E+00
   2.6681676E-04   1.9793170E+05   -1.7336076E+00
   2.6804895E-04   1.9635726E+05   -1.7330341E+00
   2.6928683E-04   1.9479587E+05   -1.7324609E+00
   2.7053042E-04   1.9324740E+05   -1.7318878E+00
   2.7177976E-04   1.9171175E+05   -1.7313149E+00
   2.7303487E-04   1.9018880E+05   -1.7307423E+00
   2.7429577E-04   1.8867845E+05   -1.7301698E+00
   2.7556250E-04   1.8718058E+05   -1.7295975E+00
   2.7683507E-04   1.8569510E+05   -1.7290255E+00
   2.7811353E-04   1.8422189E+05   -1.7284536E+00
   2.7939788E-04   1.8276085E+05   -1.7278820E+00
   2.8068817E-04   1.8131187E+05   -1.7273107E+00
   2.8198442E-04   1.7987486E+05   -1.7267395E+00
   2.8328665E-04   1.7844971E+05   -1.7261686E+00
   2.8459490E-04   1.7703631E+05   -1.7255980E+00
   2.8590919E-04   1.7563457E+05   -1.7250276E+00
   2.8722955E-04   1.7424438E+05   -1.7244575E+00
   2.8855600E-04   1.7286565E+05   -1.7238876E+00
   2.8988859E-04   1.7149828E+05   -1.7233181E+00
   2.9122732E-04   1.7014218E+05   -1.7227488E+00
   2.9257224E-04   1.6879724E+05   -1.7221797E+00
   2.9392337E-04   1.6746337E+05   -1.7216110E+00
   2.9528074E-04   1.6614047E+05   -1.7210426E+00
   2.9664438E-04   1.6482846E+05   -1.7204745E+00
   2.9801431E-04   1.6352724E+05   -1.7199067E+00
   2.9939057E-04   1.6223671E+05   -1.7193392E+00
   3.0077319E-04   1.6095679E+05   -1.7187720E+00
   3.0216219E-04   1.5968739E+05   -1.7182051E+00
   3.0355761E-04   1.5842841E+05   -1.7176386E+00
   3.0495947E-04   1.5717976E+05   -1.7170724E+00
   3.0636780E-04   1.5594136E+05   -1.7165066E+00
   3.0778264E-04   1.5471313E+05   -1.7159411E+00
   3.0920401E-04   1.5349496E+05   -1.7153759E+00
   3.1063195E-04   1.5228679E+05   -1.7148112E+00
   3.1206648E-04   1.5108851E+05   -1.7142467E+00
   3.1350764E-04   1.4990006E+05   -1.7136827E+00
   3.1495545E-04   1.4872134E+05   -1.7131190E+00
   3.1640994E-04   1.4755227E+05   -1.7125557E+00
   3.1787116E-04   1.4639277E+05   -1.7119928E+00
   3.1933912E-04   1.4524276E+05   -1.7114303E+00
   3.2081386E-04   1.4410216E+05   -1.7108682E+00
   3.2229541E-04   1.4297089E+05   -1.7103065E+00
   3.2378381E-04   1.4184886E+05   -1.7097453E+00
   3.2527908E-04   1.4073600E+05   -1.7091844E+00
   3.2678125E-04   1.3963224E+05   -1.7086239E+00
   3.2829036E-04   1.3853748E+05   -1.7080639E+00
   3.2980644E-04   1.3745167E+05   -1.7075043E+00
   3.3132952E-04   1.3637472E+05   -1.7069452E+00
   3.3285963E-04   1.3530655E+05   -1.7063865E+00
   3.3439681E-04   1.3424710E+05   -1.7058282E+00
   3.3594109E-04   1.3319628E+05   -1.7052704E+00
   3.3749250E-04   1.3215403E+05   -1.7047130E+00
   3.3905108E-04   1.3112027E+05   -1.7041561E+00
   3.4061685E-04   1.3009493E+05   -1.7035997E+00
   3.4218986E-04   1.2907794E+05   -1.7030438E+00
   3.4377013E-04   1.2806923E+05   -1.7024883E+00
   3.4535769E-04   1.2706872E+05   -1.7019334E+00
   3.4695259E-04   1.2607636E+05   -1.7013789E+00
   3.4855485E-04   1.2509206E+05   -1.7008249E+00
   3.5016452E-04   1.2411576E+05   -1.7002714E+00
   3.5178161E-04   1.2314740E+05   -1.6997184E+00
   3.5340618E-04   1.2218691E+05   -1.6991659E+00
   3.5503824E-04   1.2123421E+05   -1.6986140E+00
   3.5667785E-04   1.2028925E+05   -1.6980626E+00
   3.5832502E-04   1.1935196E+05   -1.6975117E+00
   3.5997981E-04   1.1842227E+05   -1.6969613E+00
   3.6164223E-04   1.1750012E+05   -1.6964115E+00
   3.6331233E-04   1.1658544E+05   -1.6958622E+00
   3.6499015E-04   1.1567818E+05   -1.6953134E+00
   3.6667571E-04   1.1477827E+05   -1.6947652E+00
   3.6836906E-04   1.1388565E+05   -1.6942176E+00
   3.7007022E-04   1.1300026E+05   -1.6936705E+00
   3.7177925E-04   1.1212203E+05   -1.6931240E+00
   3.7349616E-04   1.1125090E+05   -1.6925781E+00
   3.7522101E-04   1.1038682E+05   -1.6920327E+00
   3.7695382E-04   1.0952973E+05   -1.6914880E+00
   3.7869463E-04   1.0867957E+05   -1.6909438E+00
   3.8044348E-04   1.0783627E+05   -1.6904002E+00
   3.8220041E-04   1.0699979E+05   -1.6898572E+00
   3.8396545E-04   1.0617006E+05   -1.6893148E+00
   3.8573864E-04   1.0534703E+05   -1.6887730E+00
   3.8752002E-04   1.0453063E+05   -1.6882318E+00
   3.8930963E-04   1.0372083E+05   -1.6876912E+00
   3.9110750E-04   1.0291755E+05   -1.6871513E+00
   3.9291368E-04   1.0212075E+05   -1.6866119E+00
   3.9472820E-04   1.0133037E+05   -1.6860732E+00
   3.9655109E-04   1.0054635E+05   -1.6855352E+00
   3.9838241E-04   9.9768651E+04   -1.6849978E+00
   4.0022218E-04   9.8997210E+04   -1.6844610E+00
   4.0207045E-04   9.8231977E+04   -1.6839248E+00
   4.0392725E-04   9.7472900E+04   -1.6833894E+00
   4.0579263E-04   9.6719927E+04   -1.6828545E+00
   4.0766662E-04   9.5973007E+04   -1.6823204E+00
   4.0954927E-04   9.5232090E+04   -1.6817869E+00
   4.1144061E-04   9.4497124E+04   -1.6812540E+00
   4.1334068E-04   9.3768060E+04   -1.6807219E+00
   4.1524953E-04   9.3044850E+04   -1.6801904E+00
   4.1716720E-04   9.2327443E+04   -1.6796596E+00
   4.1909372E-04   9.1615792E+04   -1.6791295E+00
   4.2102914E-04   9.0909848E+04   -1.6786001E+00
   4.2297350E-04   9.0209563E+04   -1.6780714E+00
   4.2492683E-04   8.9514891E+04   -1.6775433E+00
   4.2688919E-04   8.8825784E+04   -1.6770160E+00
   4.2886061E-04   8.8142196E+04   -1.6764894E+00
   4.3084113E-04   8.7464081E+04   -1.6759635E+00
   4.3283080E-04   8.6791393E+04   -1.6754383E+00
   4.3482966E-04   8.6124087E+04   -1.6749139E+00
   4.3683775E-04   8.5462118E+04   -1.6743901E+00
   4.3885511E-04   8.4805442E+04   -1.6738671E+00
   4.4088179E-04   8.4154013E+04   -1.6733449E+00
   4.4291783E-04   8.3507790E+04   -1.6728233E+00
   4.4496327E-04   8.2866728E+04   -1.6723025E+00
   4.4701816E-04   8.2230785E+04   -1.6717825E+00
   4.4908253E-04   8.1599917E+04   -1.6712632E+00
   4.5115644E-04   8.0974082E+04   -1.6707446E+00
   4.5323993E-04   8.0353240E+04   -1.6702268E+00
   4.5533304E-04   7.9737348E+04   -1.6697098E+00
   4.5743582E-04   7.9126365E+04   -1.6691935E+00
   4.5954830E-04   7.8520250E+04   -1.6686780E+00
   4.6167054E-04   7.7918963E+04   -1.6681633E+00
   4.6380259E-04   7.7322463E+04   -1.6676493E+00
   4.6594448E-04   7.6730712E+04   -1.6671361E+00
   4.6809626E-04   7.6143669E+04   -1.6666237E+00
   4.7025797E-04   7.5561296E+04   -1.6661121E+00
   4.7242967E-04   7.4983553E+04   -1.6656013E+00
   4.7461140E-04   7.4410403E+04   -1.6650913E+00
   4.7680321E-04   7.3841808E+04   -1.6645820E+00
   4.7900514E-04   7.3277728E+04   -1.6640736E+00
   4.8121723E-04   7.2718129E+04   -1.6635660E+00
   4.8343954E-04   7.2162971E+04   -1.6630591E+00
   4.8567212E-04   7.1612219E+04   -1.6625531E+00
   4.8791500E-04   7.1065836E+04   -1.6620479E+00
   4.9016825E-04   7.0523785E+04   -1.6615436E+00
   4.9243189E-04   6.9986032E+04   -1.6610400E+00
   4.9470600E-04   6.9452539E+04   -1.6605373E+00
   4.9699060E-04   6.8923273E+04   -1.6600354E+00
   4.9928575E-04   6.8398199E+04   -1.6595343E+00
   5.0159151E-04   6.7877281E+04   -1.6590340E+00
   5.0390791E-04   6.7360486E+04   -1.6585346E+00
   5.0623501E-04   6.6847778E+04   -1.6580361E+00
   5.0857286E-04   6.6339126E+04   -1.6575383E+00
   5.1092150E-04   6.5834495E+04   -1.6570415E+00
   5.1328099E-04   6.5333852E+04   -1.6565454E+00
   5.1565137E-04   6.4837164E+04   -1.6560503E+00
   5.1803270E-04   6.4344399E+04   -1.6555559E+00
   5.2042503E-04   6.3855524E+04   -1.6550625E+00
   5.2282841E-04   6.3370508E+04   -1.6545699E+00
   5.2524289E-04   6.2889318E+04   -1.6540782E+00
   5.2766851E-04   6.2411923E+04   -1.6535873E+00
   5.3010534E-04   6.1938292E+04   -1.6530973E+00
   5.3255342E-04   6.1468394E+04   -1.6526082E+00
   5.3501281E-04   6.1002198E+04   -1.6521199E+00
   5.3748356E-04   6.0539674E+04   -1.6516326E+00
   5.3996571E-04   6.0080792E+04   -1.6511461E+00
   5.4245933E-04   5.9625521E+04   -1.6506605E+00
   5.4496446E-04   5.9173833E+04   -1.6501758E+00
   5.4748117E-04   5.8725698E+04   -1.6496920E+00
   5.5000949E-04   5.8281086E+04   -1.6492090E+00
   5.5254949E-04   5.7839969E+04   -1.6487270E+00
   5.5510123E-04   5.7402318E+04   -1.6482459E+00
   5.5766474E-04   5.6968104E+04   -1.6477656E+00
   5.6024010E-04   5.6537300E+04   -1.6472863E+00
   5.6282734E-04   5.6109878E+04   -1.6468079E+00
   5.6542654E-04   5.5685810E+04   -1.6463303E+00
   5.6803774E-04   5.5265068E+04   -1.6458537E+00
   5.7066099E-04   5.4847626E+04   -1.6453780E+00
   5.7329637E-04   5.4433455E+04   -1.6449033E+00
   5.7594391E-04   5.4022531E+04   -1.6444294E+00
   5.7860368E-04   5.3614825E+04   -1.6439564E+00
   5.8127573E-04   5.3210313E+04   -1.6434844E+00
   5.8396012E-04   5.2808967E+04   -1.6430133E+00
   5.8665691E-04   5.2410761E+04   -1.6425432E+00
   5.8936616E-04   5.2015672E+04   -1.6420739E+00
   5.9208791E-04   5.1623671E+04   -1.6416056E+00
   5.9482223E-04   5.1234736E+04   -1.6411382E+00
   5.9756919E-04   5.0848840E+04   -1.6406718E+00
   6.0032882E-04   5.0465959E+04   -1.6402063E+00
   6.0310120E-04   5.0086068E+04   -1.6397417E+00
   6.0588639E-04   4.9709144E+04   -1.6392781E+00
   6.0868443E-04   4.9335161E+04   -1.6388155E+00
   6.1149540E-04   4.8964096E+04   -1.6383537E+00
   6.1431935E-04   4.8595925E+04   -1.6378929E+00
   6.1715634E-04   4.8230625E+04   -1.6374331E+00
   6.2000644E-04   4.7868172E+04   -1.6369742E+00
   6.2286969E-04   4.7508544E+04   -1.6365163E+00
