#        a       HoverH0(a)       dlogHdloga_of_a(a)
   1.0000000E-04   1.1146131E+06   -1.8425397E+00
   1.0046181E-04   1.1051919E+06   -1.8420423E+00
   1.0092575E-04   1.0958529E+06   -1.8415440E+00
   1.0139184E-04   1.0865954E+06   -1.8410448E+00
   1.0186008E-04   1.0774185E+06   -1.8405448E+00
   1.0233048E-04   1.0683215E+06   -1.8400440E+00
   1.0280305E-04   1.0593039E+06   -1.8395424E+00
   1.0327781E-04   1.0503647E+06   -1.8390399E+00
   1.0375475E-04   1.0415035E+06   -1.8385366E+00
   1.0423390E-04   1.0327193E+06   -1.8380325E+00
   1.0471527E-04   1.0240117E+06   -1.8375275E+00
   1.0519885E-04   1.0153798E+06   -1.8370218E+00
   1.0568467E-04   1.0068230E+06   -1.8365152E+00
   1.0617274E-04   9.9834072E+05   -1.8360078E+00
   1.0666305E-04   9.8993218E+05   -1.8354996E+00
   1.0715563E-04   9.8159676E+05   -1.8349906E+00
   1.0765049E-04   9.7333381E+05   -1.8344809E+00
   1.0814763E-04   9.6514268E+05   -1.8339703E+00
   1.0864707E-04   9.5702275E+05   -1.8334589E+00
   1.0914881E-04   9.4897336E+05   -1.8329468E+00
   1.0965287E-04   9.4099390E+05   -1.8324338E+00
   1.1015926E-04   9.3308373E+05   -1.8319201E+00
   1.1066799E-04   9.2524226E+05   -1.8314056E+00
   1.1117906E-04   9.1746886E+05   -1.8308903E+00
   1.1169250E-04   9.0976293E+05   -1.8303743E+00
   1.1220831E-04   9.0212387E+05   -1.8298575E+00
   1.1272650E-04   8.9455108E+05   -1.8293399E+00
   1.1324708E-04   8.8704398E+05   -1.8288216E+00
   1.1377007E-04   8.7960198E+05   -1.8283025E+00
   1.1429547E-04   8.7222451E+05   -1.8277827E+00
   1.1482330E-04   8.6491098E+05   -1.8272621E+00
   1.1535356E-04   8.5766084E+05   -1.8267408E+00
   1.1588628E-04   8.5047352E+05   -1.8262188E+00
   1.1642145E-04   8.4334845E+05   -1.8256960E+00
   1.1695910E-04   8.3628510E+05   -1.8251725E+00
   1.1749923E-04   8.2928290E+05   -1.8246482E+00
   1.1804185E-04   8.2234132E+05   -1.8241233E+00
   1.1858698E-04   8.1545982E+05   -1.8235976E+00
   1.1913463E-04   8.0863787E+05   -1.8230712E+00
   1.1968481E-04   8.0187493E+05   -1.8225441E+00
   1.2023752E-04   7.9517048E+05   -1.8220163E+00
   1.2079279E-04   7.8852401E+05   -1.8214878E+00
   1.2135063E-04   7.8193501E+05   -1.8209586E+00
   1.2191104E-04   7.7540295E+05   -1.8204287E+00
   1.2247403E-04   7.6892734E+05   -1.8198981E+00
   1.2303963E-04   7.6250767E+05   -1.8193668E+00
   1.2360784E-04   7.5614345E+05   -1.8188349E+00
   1.2417868E-04   7.4983419E+05   -1.8183023E+00
   1.2475215E-04   7.4357939E+05   -1.8177690E+00
   1.2532826E-04   7.3737859E+05   -1.8172350E+00
   1.2590704E-04   7.3123130E+05   -1.8167004E+00
   1.2648850E-04   7.2513704E+05   -1.8161651E+00
   1.2707263E-04   7.1909534E+05   -1.8156291E+00
   1.2765947E-04   7.1310575E+05   -1.8150926E+00
   1.2824901E-04   7.0716779E+05   -1.8145553E+00
   1.2884128E-04   7.0128102E+05   -1.8140175E+00
   1.2943628E-04   6.9544498E+05   -1.8134790E+00
   1.3003403E-04   6.8965921E+05   -1.8129398E+00
   1.3063454E-04   6.8392328E+05   -1.8124001E+00
   1.3123783E-04   6.7823675E+05   -1.8118597E+00
   1.3184390E-04   6.7259917E+05   -1.8113187E+00
   1.3245277E-04   6.6701011E+05   -1.8107771E+00
   1.3306445E-04   6.6146915E+05   -1.8102349E+00
   1.3367895E-04   6.5597586E+05   -1.8096920E+00
   1.3429630E-04   6.5052981E+05   -1.8091486E+00
   1.3491649E-04   6.4513060E+05   -1.8086046E+00
   1.3553955E-04   6.3977780E+05   -1.8080600E+00
   1.3616548E-04   6.3447101E+05   -1.8075148E+00
   1.3679431E-04   6.2920982E+05   -1.8069691E+00
   1.3742604E-04   6.2399383E+05   -1.8064227E+00
   1.3806069E-04   6.1882263E+05   -1.8058758E+00
   1.3869827E-04   6.1369584E+05   -1.8053284E+00
   1.3933879E-04   6.0861305E+05   -1.8047803E+00
   1.3998227E-04   6.0357389E+05   -1.8042318E+00
   1.4062872E-04   5.9857797E+05   -1.8036826E+00
   1.4127816E-04   5.9362490E+05   -1.8031330E+00
   1.4193060E-04   5.8871430E+05   -1.8025827E+00
   1.4258605E-04   5.8384581E+05   -1.8020320E+00
   1.4324453E-04   5.7901905E+05   -1.8014807E+00
   1.4390605E-04   5.7423365E+05   -1.8009289E+00
   1.4457062E-04   5.6948925E+05   -1.8003766E+00
   1.4523826E-04   5.6478549E+05   -1.7998238E+00
   1.4590899E-04   5.6012201E+05   -1.7992705E+00
   1.4658281E-04   5.5549845E+05   -1.7987166E+00
   1.4725974E-04   5.5091446E+05   -1.7981623E+00
   1.4793981E-04   5.4636970E+05   -1.7976075E+00
   1.4862301E-04   5.4186381E+05   -1.7970521E+00
   1.4930936E-04   5.3739646E+05   -1.7964963E+00
   1.4999889E-04   5.3296730E+05   -1.7959401E+00
   1.5069160E-04   5.2857601E+05   -1.7953833E+00
   1.5138751E-04   5.2422224E+05   -1.7948261E+00
   1.5208663E-04   5.1990567E+05   -1.7942684E+00
   1.5278899E-04   5.1562596E+05   -1.7937103E+00
   1.5349458E-04   5.1138280E+05   -1.7931517E+00
   1.5420343E-04   5.0717587E+05   -1.7925927E+00
   1.5491556E-04   5.0300484E+05   -1.7920333E+00
   1.5563098E-04   4.9886940E+05   -1.7914734E+00
   1.5634970E-04   4.9476923E+05   -1.7909130E+00
   1.5707174E-04   4.9070404E+05   -1.7903523E+00
   1.5779711E-04   4.8667350E+05   -1.7897911E+00
   1.5852584E-04   4.8267731E+05   -1.7892296E+00
   1.5925792E-04   4.7871518E+05   -1.7886676E+00
   1.5999339E-04   4.7478680E+05   -1.7881052E+00
   1.6073226E-04   4.7089188E+05   -1.7875424E+00
   1.6147454E-04   4.6703012E+05   -1.7869792E+00
   1.6222024E-04   4.6320123E+05   -1.7864157E+00
   1.6296939E-04   4.5940493E+05   -1.7858518E+00
   1.6372200E-04   4.5564092E+05   -1.7852875E+00
   1.6447809E-04   4.5190894E+05   -1.7847228E+00
   1.6523767E-04   4.4820868E+05   -1.7841578E+00
   1.6600075E-04   4.4453988E+05   -1.7835924E+00
   1.6676736E-04   4.4090226E+05   -1.7830266E+00
   1.6753751E-04   4.3729555E+05   -1.7824606E+00
   1.6831122E-04   4.3371947E+05   -1.7818941E+00
   1.6908849E-04   4.3017376E+05   -1.7813274E+00
   1.6986936E-04   4.2665815E+05   -1.7807603E+00
   1.7065384E-04   4.2317237E+05   -1.7801929E+00
   1.7144193E-04   4.1971618E+05   -1.7796252E+00
   1.7223367E-04   4.1628930E+05   -1.7790571E+00
   1.7302906E-04   4.1289148E+05   -1.7784888E+00
   1.7382813E-04   4.0952247E+05   -1.7779202E+00
   1.7463089E-04   4.0618201E+05   -1.7773512E+00
   1.7543735E-04   4.0286986E+05   -1.7767820E+00
   1.7624754E-04   3.9958576E+05   -1.7762125E+00
   1.7706147E-04   3.9632947E+05   -1.7756428E+00
   1.7787916E-04   3.9310075E+05   -1.7750727E+00
   1.7870062E-04   3.8989936E+05   -1.7745024E+00
   1.7952588E-04   3.8672506E+05   -1.7739319E+00
   1.8035495E-04   3.8357761E+05   -1.7733611E+00
   1.8118785E-04   3.8045678E+05   -1.7727900E+00
   1.8202459E-04   3.7736233E+05   -1.7722187E+00
   1.8286520E-04   3.7429403E+05   -1.7716472E+00
   1.8370969E-04   3.7125166E+05   -1.7710754E+00
   1.8455808E-04   3.6823499E+05   -1.7705034E+00
   1.8541039E-04   3.6524380E+05   -1.7699312E+00
   1.8626663E-04   3.6227786E+05   -1.7693588E+00
   1.8712683E-04   3.5933695E+05   -1.7687862E+00
   1.8799100E-04   3.5642086E+05   -1.7682134E+00
   1.8885917E-04   3.5352936E+05   -1.7676404E+00
   1.8973134E-04   3.5066225E+05   -1.7670672E+00
   1.9060754E-04   3.4781930E+05   -1.7664938E+00
   1.9148778E-04   3.4500032E+05   -1.7659202E+00
   1.9237209E-04   3.4220509E+05   -1.7653465E+00
   1.9326049E-04   3.3943341E+05   -1.7647727E+00
   1.9415299E-04   3.3668506E+05   -1.7641986E+00
   1.9504960E-04   3.3395985E+05   -1.7636244E+00
   1.9595036E-04   3.3125757E+05   -1.7630501E+00
   1.9685528E-04   3.2857804E+05   -1.7624756E+00
   1.9776438E-04   3.2592103E+05   -1.7619010E+00
   1.9867768E-04   3.2328637E+05   -1.7613263E+00
   1.9959519E-04   3.2067386E+05   -1.7607514E+00
   2.0051694E-04   3.1808330E+05   -1.7601765E+00
   2.0144295E-04   3.1551451E+05   -1.7596014E+00
   2.0237324E-04   3.1296729E+05   -1.7590262E+00
   2.0330782E-04   3.1044145E+05   -1.7584510E+00
   2.0424671E-04   3.0793682E+05   -1.7578756E+00
   2.0518995E-04   3.0545321E+05   -1.7573002E+00
   2.0613754E-04   3.0299042E+05   -1.7567247E+00
   2.0708950E-04   3.0054830E+05   -1.7561491E+00
   2.0804586E-04   2.9812665E+05   -1.7555734E+00
   2.0900664E-04   2.9572529E+05   -1.7549977E+00
   2.0997185E-04   2.9334406E+05   -1.7544219E+00
   2.1094152E-04   2.9098277E+05   -1.7538461E+00
   2.1191567E-04   2.8864125E+05   -1.7532702E+00
   2.1289432E-04   2.8631934E+05   -1.7526944E+00
   2.1387749E-04   2.8401686E+05   -1.7521184E+00
   2.1486520E-04   2.8173364E+05   -1.7515425E+00
   2.1585747E-04   2.7946951E+05   -1.7509665E+00
   2.1685432E-04   2.7722432E+05   -1.7503906E+00
   2.1785578E-04   2.7499790E+05   -1.7498146E+00
   2.1886186E-04   2.7279008E+05   -1.7492386E+00
   2.1987259E-04   2.7060070E+05   -1.7486626E+00
   2.2088798E-04   2.6842961E+05   -1.7480867E+00
   2.2190807E-04   2.6627664E+05   -1.7475107E+00
   2.2293286E-04   2.6414165E+05   -1.7469348E+00
   2.2396239E-04   2.6202446E+05   -1.7463590E+00
   2.2499667E-04   2.5992494E+05   -1.7457831E+00
   2.2603573E-04   2.5784292E+05   -1.7452073E+00
   2.2707958E-04   2.5577826E+05   -1.7446316E+00
   2.2812826E-04   2.5373081E+05   -1.7440559E+00
   2.2918178E-04   2.5170041E+05   -1.7434803E+00
   2.3024017E-04   2.4968692E+05   -1.7429047E+00
   2.3130344E-04   2.4769019E+05   -1.7423293E+00
   2.3237162E-04   2.4571009E+05   -1.7417539E+00
   2.3344474E-04   2.4374646E+05   -1.7411786E+00
   2.3452281E-04   2.4179916E+05   -1.7406033E+00
   2.3560586E-04   2.3986806E+05   -1.7400282E+00
   2.3669392E-04   2.3795300E+05   -1.7394532E+00
   2.3778699E-04   2.3605387E+05   -1.7388783E+00
   2.3888512E-04   2.3417051E+05   -1.7383035E+00
   2.3998831E-04   2.3230279E+05   -1.7377289E+00
   2.4109661E-04   2.3045058E+05   -1.7371543E+00
   2.4221001E-04   2.2861374E+05   -1.7365799E+00
   2.4332857E-04   2.2679215E+05   -1.7360057E+00
   2.4445228E-04   2.2498566E+05   -1.7354316E+00
   2.4558119E-04   2.2319415E+05   -1.7348576E+00
   2.4671531E-04   2.2141750E+05   -1.7342838E+00
   2.4785467E-04   2.1965556E+05   -1.7337102E+00
   2.4899928E-04   2.1790823E+05   -1.7331368E+00
   2.5014919E-04   2.1617536E+05   -1.7325635E+00
   2.5130440E-04   2.1445684E+05   -1.7319904E+00
   2.5246495E-04   2.1275255E+05   -1.7314175E+00
   2.5363086E-04   2.1106235E+05   -1.7308448E+00
   2.5480216E-04   2.0938614E+05   -1.7302723E+00
   2.5597886E-04   2.0772378E+05   -1.7297000E+00
   2.5716100E-04   2.0607517E+05   -1.7291279E+00
   2.5834859E-04   2.0444018E+05   -1.7285560E+00
   2.5954168E-04   2.0281869E+05   -1.7279844E+00
   2.6074027E-04   2.0121060E+05   -1.7274130E+00
   2.6194439E-04   1.9961578E+05   -1.7268418E+00
   2.6315408E-04   1.9803412E+05   -1.7262709E+00
   2.6436935E-04   1.9646552E+05   -1.7257002E+00
   2.6559024E-04   1.9490984E+05   -1.7251298E+00
   2.6681676E-04   1.9336700E+05   -1.7245596E+00
   2.6804895E-04   1.9183687E+05   -1.7239897E+00
   2.6928683E-04   1.9031935E+05   -1.7234201E+00
   2.7053042E-04   1.8881433E+05   -1.7228508E+00
   2.7177976E-04   1.8732171E+05   -1.7222817E+00
   2.7303487E-04   1.8584136E+05   -1.7217130E+00
   2.7429577E-04   1.8437320E+05   -1.7211445E+00
   2.7556250E-04   1.8291712E+05   -1.7205763E+00
   2.7683507E-04   1.8147302E+05   -1.7200085E+00
   2.7811353E-04   1.8004078E+05   -1.7194409E+00
   2.7939788E-04   1.7862031E+05   -1.7188737E+00
   2.8068817E-04   1.7721152E+05   -1.7183068E+00
   2.8198442E-04   1.7581430E+05   -1.7177402E+00
   2.8328665E-04   1.7442854E+05   -1.7171740E+00
   2.8459490E-04   1.7305416E+05   -1.7166081E+00
   2.8590919E-04   1.7169106E+05   -1.7160425E+00
   2.8722955E-04   1.7033914E+05   -1.7154773E+00
   2.8855600E-04   1.6899830E+05   -1.7149125E+00
   2.8988859E-04   1.6766846E+05   -1.7143480E+00
   2.9122732E-04   1.6634951E+05   -1.7137839E+00
   2.9257224E-04   1.6504136E+05   -1.7132202E+00
   2.9392337E-04   1.6374393E+05   -1.7126569E+00
   2.9528074E-04   1.6245712E+05   -1.7120939E+00
   2.9664438E-04   1.6118084E+05   -1.7115313E+00
   2.9801431E-04   1.5991500E+05   -1.7109692E+00
   2.9939057E-04   1.5865951E+05   -1.7104074E+00
   3.0077319E-04   1.5741429E+05   -1.7098461E+00
   3.0216219E-04   1.5617924E+05   -1.7092851E+00
   3.0355761E-04   1.5495428E+05   -1.7087246E+00
   3.0495947E-04   1.5373933E+05   -1.7081645E+00
   3.0636780E-04   1.5253430E+05   -1.7076049E+00
   3.0778264E-04   1.5133910E+05   -1.7070456E+00
   3.0920401E-04   1.5015366E+05   -1.7064869E+00
   3.1063195E-04   1.4897788E+05   -1.7059285E+00
   3.1206648E-04   1.4781169E+05   -1.7053706E+00
   3.1350764E-04   1.4665501E+05   -1.7048132E+00
   3.1495545E-04   1.4550775E+05   -1.7042563E+00
   3.1640994E-04   1.4436983E+05   -1.7036998E+00
   3.1787116E-04   1.4324119E+05   -1.7031438E+00
   3.1933912E-04   1.4212173E+05   -1.7025882E+00
   3.2081386E-04   1.4101138E+05   -1.7020332E+00
   3.2229541E-04   1.3991006E+05   -1.7014786E+00
   3.2378381E-04   1.3881770E+05   -1.7009245E+00
   3.2527908E-04   1.3773421E+05   -1.7003710E+00
   3.2678125E-04   1.3665954E+05   -1.6998179E+00
   3.2829036E-04   1.3559359E+05   -1.6992654E+00
   3.2980644E-04   1.3453630E+05   -1.6987133E+00
   3.3132952E-04   1.3348759E+05   -1.6981618E+00
   3.3285963E-04   1.3244740E+05   -1.6976108E+00
   3.3439681E-04   1.3141564E+05   -1.6970604E+00
   3.3594109E-04   1.3039226E+05   -1.6965105E+00
   3.3749250E-04   1.2937716E+05   -1.6959611E+00
   3.3905108E-04   1.2837030E+05   -1.6954123E+00
   3.4061685E-04   1.2737160E+05   -1.6948640E+00
   3.4218986E-04   1.2638098E+05   -1.6943163E+00
   3.4377013E-04   1.2539838E+05   -1.6937691E+00
   3.4535769E-04   1.2442374E+05   -1.6932225E+00
   3.4695259E-04   1.2345698E+05   -1.6926765E+00
   3.4855485E-04   1.2249804E+05   -1.6921310E+00
   3.5016452E-04   1.2154686E+05   -1.6915862E+00
   3.5178161E-04   1.2060336E+05   -1.6910419E+00
   3.5340618E-04   1.1966749E+05   -1.6904982E+00
   3.5503824E-04   1.1873918E+05   -1.6899551E+00
   3.5667785E-04   1.1781836E+05   -1.6894126E+00
   3.5832502E-04   1.1690498E+05   -1.6888707E+00
   3.5997981E-04   1.1599897E+05   -1.6883294E+00
   3.6164223E-04   1.1510026E+05   -1.6877888E+00
   3.6331233E-04   1.1420881E+05   -1.6872487E+00
   3.6499015E-04   1.1332454E+05   -1.6867093E+00
   3.6667571E-04   1.1244739E+05   -1.6861705E+00
   3.6836906E-04   1.1157731E+05   -1.6856323E+00
   3.7007022E-04   1.1071424E+05   -1.6850948E+00
   3.7177925E-04   1.0985811E+05   -1.6845579E+00
   3.7349616E-04   1.0900888E+05   -1.6840217E+00
   3.7522101E-04   1.0816648E+05   -1.6834861E+00
   3.7695382E-04   1.0733085E+05   -1.6829512E+00
   3.7869463E-04   1.0650194E+05   -1.6824169E+00
   3.8044348E-04   1.0567969E+05   -1.6818833E+00
   3.8220041E-04   1.0486405E+05   -1.6813504E+00
   3.8396545E-04   1.0405495E+05   -1.6808181E+00
   3.8573864E-04   1.0325236E+05   -1.6802865E+00
   3.8752002E-04   1.0245620E+05   -1.6797556E+00
   3.8930963E-04   1.0166643E+05   -1.6792254E+00
   3.9110750E-04   1.0088300E+05   -1.6786959E+00
   3.9291368E-04   1.0010585E+05   -1.6781670E+00
   3.9472820E-04   9.9334925E+04   -1.6776389E+00
   3.9655109E-04   9.8570177E+04   -1.6771115E+00
   3.9838241E-04   9.7811555E+04   -1.6765847E+00
   4.0022218E-04   9.7059007E+04   -1.6760587E+00
   4.0207045E-04   9.6312482E+04   -1.6755334E+00
   4.0392725E-04   9.5571930E+04   -1.6750089E+00
   4.0579263E-04   9.4837301E+04   -1.6744850E+00
   4.0766662E-04   9.4108547E+04   -1.6739619E+00
   4.0954927E-04   9.3385617E+04   -1.6734395E+00
   4.1144061E-04   9.2668463E+04   -1.6729178E+00
   4.1334068E-04   9.1957038E+04   -1.6723969E+00
   4.1524953E-04   9.1251293E+04   -1.6718767E+00
   4.1716720E-04   9.0551181E+04   -1.6713573E+00
   4.1909372E-04   8.9856656E+04   -1.6708386E+00
   4.2102914E-04   8.9167670E+04   -1.6703207E+00
   4.2297350E-04   8.8484179E+04   -1.6698036E+00
   4.2492683E-04   8.7806135E+04   -1.6692872E+00
   4.2688919E-04   8.7133495E+04   -1.6687715E+00
   4.2886061E-04   8.6466213E+04   -1.6682567E+00
   4.3084113E-04   8.5804244E+04   -1.6677426E+00
   4.3283080E-04   8.5147545E+04   -1.6672293E+00
   4.3482966E-04   8.4496071E+04   -1.6667168E+00
   4.3683775E-04   8.3849780E+04   -1.6662050E+00
   4.3885511E-04   8.3208628E+04   -1.6656941E+00
   4.4088179E-04   8.2572573E+04   -1.6651839E+00
   4.4291783E-04   8.1941573E+04   -1.6646746E+00
   4.4496327E-04   8.1315585E+04   -1.6641660E+00
   4.4701816E-04   8.0694568E+04   -1.6636583E+00
   4.4908253E-04   8.0078481E+04   -1.6631513E+00
   4.5115644E-04   7.9467283E+04   -1.6626452E+00
   4.5323993E-04   7.8860934E+04   -1.6621398E+00
   4.5533304E-04   7.8259394E+04   -1.6616353E+00
   4.5743582E-04   7.7662622E+04   -1.6611316E+00
   4.5954830E-04   7.7070580E+04   -1.6606288E+00
   4.6167054E-04   7.6483229E+04   -1.6601267E+00
   4.6380259E-04   7.5900529E+04   -1.6596255E+00
   4.6594448E-04   7.5322442E+04   -1.6591251E+00
   4.6809626E-04   7.4748930E+04   -1.6586256E+00
   4.7025797E-04   7.4179955E+04   -1.6581269E+00
   4.7242967E-04   7.3615481E+04   -1.6576290E+00
   4.7461140E-04   7.3055469E+04   -1.6571320E+00
   4.7680321E-04   7.2499883E+04   -1.6566359E+00
   4.7900514E-04   7.1948687E+04   -1.6561406E+00
   4.8121723E-04   7.1401844E+04   -1.6556461E+00
   4.8343954E-04   7.0859319E+04   -1.6551525E+00
   4.8567212E-04   7.0321076E+04   -1.6546598E+00
   4.8791500E-04   6.9787080E+04   -1.6541679E+00
   4.9016825E-04   6.9257295E+04   -1.6536769E+00
   4.9243189E-04   6.8731688E+04   -1.6531868E+00
   4.9470600E-04   6.8210224E+04   -1.6526975E+00
   4.9699060E-04   6.7692868E+04   -1.6522091E+00
   4.9928575E-04   6.7179587E+04   -1.6517216E+00
   5.0159151E-04   6.6670348E+04   -1.6512350E+00
   5.0390791E-04   6.6165117E+04   -1.6507493E+00
   5.0623501E-04   6.5663862E+04   -1.6502644E+00
   5.0857286E-04   6.5166549E+04   -1.6497804E+00
   5.1092150E-04   6.4673147E+04   -1.6492974E+00
   5.1328099E-04   6.4183624E+04   -1.6488152E+00
   5.1565137E-04   6.3697947E+04   -1.6483339E+00
   5.1803270E-04   6.3216085E+04   -1.6478535E+00
   5.2042503E-04   6.2738008E+04   -1.6473741E+00
   5.2282841E-04   6.2263683E+04   -1.6468955E+00
   5.2524289E-04   6.1793081E+04   -1.6464178E+00
   5.2766851E-04   6.1326170E+04   -1.6459411E+00
   5.3010534E-04   6.0862920E+04   -1.6454652E+00
   5.3255342E-04   6.0403303E+04   -1.6449903E+00
   5.3501281E-04   5.9947287E+04   -1.6445163E+00
   5.3748356E-04   5.9494844E+04   -1.6440432E+00
   5.3996571E-04   5.9045944E+04   -1.6435710E+00
   5.4245933E-04   5.8600558E+04   -1.6430998E+00
   5.4496446E-04   5.8158659E+04   -1.6426295E+00
   5.4748117E-04   5.7720216E+04   -1.6421601E+00
   5.5000949E-04   5.7285203E+04   -1.6416916E+00
   5.5254949E-04   5.6853591E+04   -1.6412241E+00
   5.5510123E-04   5.6425352E+04   -1.6407575E+00
   5.5766474E-04   5.6000459E+04   -1.6402919E+00
   5.6024010E-04   5.5578884E+04   -1.6398272E+00
   5.6282734E-04   5.5160602E+04   -1.6393634E+00
   5.6542654E-04   5.4745584E+04   -1.6389006E+00
   5.6803774E-04   5.4333804E+04   -1.6384387E+00
   5.7066099E-04   5.3925236E+04   -1.6379778E+00
   5.7329637E-04   5.3519854E+04   -1.6375178E+00
   5.7594391E-04   5.3117632E+04   -1.6370588E+00
   5.7860368E-04   5.2718544E+04   -1.6366007E+00
   5.8127573E-04   5.2322565E+04   -1.6361436E+00
   5.8396012E-04   5.1929670E+04   -1.6356874E+00
   5.8665691E-04   5.1539833E+04   -1.6352322E+00
   5.8936616E-04   5.1153030E+04   -1.6347780E+00
   5.9208791E-04   5.0769235E+04   -1.6343247E+00
   5.9482223E-04   5.0388426E+04   -1.6338724E+00
   5.9756919E-04   5.0010577E+04   -1.6334210E+00
   6.0032882E-04   4.9635664E+04   -1.6329706E+00
   6.0310120E-04   4.9263664E+04   -1.6325212E+00
   6.0588639E-04   4.8894554E+04   -1.6320728E+00
   6.0868443E-04   4.8528309E+04   -1.6316253E+00
   6.1149540E-04   4.8164906E+04   -1.6311788E+00
   6.1431935E-04   4.7804323E+04   -1.6307333E+00
   6.1715634E-04   4.7446537E+04   -1.6302888E+00
   6.2000644E-04   4.7091525E+04   -1.6298452E+00
   6.2286969E-04   4.6739265E+04   -1.6294026E+00
