#        a       HoverH0(a)       dlogHdloga_of_a(a)
   1.0000000E-04   1.1274418E+06   -1.8594853E+00
   1.0046181E-04   1.1178249E+06   -1.8590193E+00
   1.0092575E-04   1.1082923E+06   -1.8585524E+00
   1.0139184E-04   1.0988435E+06   -1.8580846E+00
   1.0186008E-04   1.0894775E+06   -1.8576158E+00
   1.0233048E-04   1.0801937E+06   -1.8571462E+00
   1.0280305E-04   1.0709914E+06   -1.8566755E+00
   1.0327781E-04   1.0618697E+06   -1.8562040E+00
   1.0375475E-04   1.0528281E+06   -1.8557315E+00
   1.0423390E-04   1.0438656E+06   -1.8552581E+00
   1.0471527E-04   1.0349818E+06   -1.8547838E+00
   1.0519885E-04   1.0261758E+06   -1.8543086E+00
   1.0568467E-04   1.0174469E+06   -1.8538324E+00
   1.0617274E-04   1.0087945E+06   -1.8533554E+00
   1.0666305E-04   1.0002179E+06   -1.8528774E+00
   1.0715563E-04   9.9171641E+05   -1.8523985E+00
   1.0765049E-04   9.8328934E+05   -1.8519188E+00
   1.0814763E-04   9.7493603E+05   -1.8514381E+00
   1.0864707E-04   9.6665583E+05   -1.8509565E+00
   1.0914881E-04   9.5844808E+05   -1.8504740E+00
   1.0965287E-04   9.5031214E+05   -1.8499907E+00
   1.1015926E-04   9.4224736E+05   -1.8495064E+00
   1.1066799E-04   9.3425311E+05   -1.8490212E+00
   1.1117906E-04   9.2632875E+05   -1.8485352E+00
   1.1169250E-04   9.1847367E+05   -1.8480483E+00
   1.1220831E-04   9.1068725E+05   -1.8475605E+00
   1.1272650E-04   9.0296886E+05   -1.8470718E+00
   1.1324708E-04   8.9531791E+05   -1.8465822E+00
   1.1377007E-04   8.8773379E+05   -1.8460918E+00
   1.1429547E-04   8.8021590E+05   -1.8456005E+00
   1.1482330E-04   8.7276366E+05   -1.8451084E+00
   1.1535356E-04   8.6537648E+05   -1.8446153E+00
   1.1588628E-04   8.5805377E+05   -1.8441214E+00
   1.1642145E-04   8.5079497E+05   -1.8436267E+00
   1.1695910E-04   8.4359949E+05   -1.8431311E+00
   1.1749923E-04   8.3646679E+05   -1.8426346E+00
   1.1804185E-04   8.2939628E+05   -1.8421373E+00
   1.1858698E-04   8.2238743E+05   -1.8416392E+00
   1.1913463E-04   8.1543968E+05   -1.8411402E+00
   1.1968481E-04   8.0855249E+05   -1.8406404E+00
   1.2023752E-04   8.0172532E+05   -1.8401397E+00
   1.2079279E-04   7.9495763E+05   -1.8396382E+00
   1.2135063E-04   7.8824889E+05   -1.8391359E+00
   1.2191104E-04   7.8159857E+05   -1.8386328E+00
   1.2247403E-04   7.7500616E+05   -1.8381288E+00
   1.2303963E-04   7.6847115E+05   -1.8376240E+00
   1.2360784E-04   7.6199301E+05   -1.8371184E+00
   1.2417868E-04   7.5557124E+05   -1.8366120E+00
   1.2475215E-04   7.4920534E+05   -1.8361047E+00
   1.2532826E-04   7.4289481E+05   -1.8355967E+00
   1.2590704E-04   7.3663916E+05   -1.8350879E+00
   1.2648850E-04   7.3043790E+05   -1.8345782E+00
   1.2707263E-04   7.2429055E+05   -1.8340678E+00
   1.2765947E-04   7.1819662E+05   -1.8335566E+00
   1.2824901E-04   7.1215565E+05   -1.8330446E+00
   1.2884128E-04   7.0616716E+05   -1.8325318E+00
   1.2943628E-04   7.0023068E+05   -1.8320182E+00
   1.3003403E-04   6.9434574E+05   -1.8315038E+00
   1.3063454E-04   6.8851190E+05   -1.8309887E+00
   1.3123783E-04   6.8272870E+05   -1.8304728E+00
   1.3184390E-04   6.7699568E+05   -1.8299561E+00
   1.3245277E-04   6.7131241E+05   -1.8294387E+00
   1.3306445E-04   6.6567843E+05   -1.8289205E+00
   1.3367895E-04   6.6009331E+05   -1.8284016E+00
   1.3429630E-04   6.5455662E+05   -1.8278819E+00
   1.3491649E-04   6.4906792E+05   -1.8273615E+00
   1.3553955E-04   6.4362679E+05   -1.8268403E+00
   1.3616548E-04   6.3823282E+05   -1.8263184E+00
   1.3679431E-04   6.3288556E+05   -1.8257957E+00
   1.3742604E-04   6.2758463E+05   -1.8252724E+00
   1.3806069E-04   6.2232959E+05   -1.8247482E+00
   1.3869827E-04   6.1712004E+05   -1.8242234E+00
   1.3933879E-04   6.1195559E+05   -1.8236979E+00
   1.3998227E-04   6.0683583E+05   -1.8231716E+00
   1.4062872E-04   6.0176036E+05   -1.8226446E+00
   1.4127816E-04   5.9672878E+05   -1.8221169E+00
   1.4193060E-04   5.9174072E+05   -1.8215886E+00
   1.4258605E-04   5.8679579E+05   -1.8210595E+00
   1.4324453E-04   5.8189359E+05   -1.8205297E+00
   1.4390605E-04   5.7703376E+05   -1.8199993E+00
   1.4457062E-04   5.7221592E+05   -1.8194681E+00
   1.4523826E-04   5.6743970E+05   -1.8189363E+00
   1.4590899E-04   5.6270472E+05   -1.8184038E+00
   1.4658281E-04   5.5801062E+05   -1.8178706E+00
   1.4725974E-04   5.5335704E+05   -1.8173368E+00
   1.4793981E-04   5.4874361E+05   -1.8168022E+00
   1.4862301E-04   5.4417000E+05   -1.8162671E+00
   1.4930936E-04   5.3963583E+05   -1.8157313E+00
   1.4999889E-04   5.3514076E+05   -1.8151948E+00
   1.5069160E-04   5.3068445E+05   -1.8146577E+00
   1.5138751E-04   5.2626656E+05   -1.8141199E+00
   1.5208663E-04   5.2188673E+05   -1.8135815E+00
   1.5278899E-04   5.1754464E+05   -1.8130425E+00
   1.5349458E-04   5.1323995E+05   -1.8125029E+00
   1.5420343E-04   5.0897234E+05   -1.8119626E+00
   1.5491556E-04   5.0474146E+05   -1.8114217E+00
   1.5563098E-04   5.0054701E+05   -1.8108802E+00
   1.5634970E-04   4.9638865E+05   -1.8103381E+00
   1.5707174E-04   4.9226606E+05   -1.8097954E+00
   1.5779711E-04   4.8817894E+05   -1.8092521E+00
   1.5852584E-04   4.8412696E+05   -1.8087081E+00
   1.5925792E-04   4.8010982E+05   -1.8081637E+00
   1.5999339E-04   4.7612720E+05   -1.8076186E+00
   1.6073226E-04   4.7217881E+05   -1.8070729E+00
   1.6147454E-04   4.6826434E+05   -1.8065267E+00
   1.6222024E-04   4.6438349E+05   -1.8059799E+00
   1.6296939E-04   4.6053597E+05   -1.8054325E+00
   1.6372200E-04   4.5672147E+05   -1.8048846E+00
   1.6447809E-04   4.5293972E+05   -1.8043361E+00
   1.6523767E-04   4.4919041E+05   -1.8037871E+00
   1.6600075E-04   4.4547327E+05   -1.8032375E+00
   1.6676736E-04   4.4178801E+05   -1.8026874E+00
   1.6753751E-04   4.3813434E+05   -1.8021367E+00
   1.6831122E-04   4.3451199E+05   -1.8015855E+00
   1.6908849E-04   4.3092069E+05   -1.8010338E+00
   1.6986936E-04   4.2736016E+05   -1.8004816E+00
   1.7065384E-04   4.2383012E+05   -1.7999289E+00
   1.7144193E-04   4.2033031E+05   -1.7993756E+00
   1.7223367E-04   4.1686047E+05   -1.7988219E+00
   1.7302906E-04   4.1342033E+05   -1.7982676E+00
   1.7382813E-04   4.1000962E+05   -1.7977129E+00
   1.7463089E-04   4.0662809E+05   -1.7971577E+00
   1.7543735E-04   4.0327548E+05   -1.7966019E+00
   1.7624754E-04   3.9995154E+05   -1.7960457E+00
   1.7706147E-04   3.9665601E+05   -1.7954891E+00
   1.7787916E-04   3.9338865E+05   -1.7949320E+00
   1.7870062E-04   3.9014920E+05   -1.7943744E+00
   1.7952588E-04   3.8693743E+05   -1.7938163E+00
   1.8035495E-04   3.8375308E+05   -1.7932578E+00
   1.8118785E-04   3.8059591E+05   -1.7926989E+00
   1.8202459E-04   3.7746569E+05   -1.7921395E+00
   1.8286520E-04   3.7436219E+05   -1.7915796E+00
   1.8370969E-04   3.7128515E+05   -1.7910194E+00
   1.8455808E-04   3.6823436E+05   -1.7904587E+00
   1.8541039E-04   3.6520959E+05   -1.7898976E+00
   1.8626663E-04   3.6221059E+05   -1.7893361E+00
   1.8712683E-04   3.5923715E+05   -1.7887742E+00
   1.8799100E-04   3.5628904E+05   -1.7882119E+00
   1.8885917E-04   3.5336605E+05   -1.7876492E+00
   1.8973134E-04   3.5046794E+05   -1.7870861E+00
   1.9060754E-04   3.4759450E+05   -1.7865226E+00
   1.9148778E-04   3.4474552E+05   -1.7859587E+00
   1.9237209E-04   3.4192078E+05   -1.7853945E+00
   1.9326049E-04   3.3912006E+05   -1.7848299E+00
   1.9415299E-04   3.3634316E+05   -1.7842649E+00
   1.9504960E-04   3.3358987E+05   -1.7836996E+00
   1.9595036E-04   3.3085997E+05   -1.7831339E+00
   1.9685528E-04   3.2815328E+05   -1.7825678E+00
   1.9776438E-04   3.2546957E+05   -1.7820015E+00
   1.9867768E-04   3.2280866E+05   -1.7814348E+00
   1.9959519E-04   3.2017034E+05   -1.7808677E+00
   2.0051694E-04   3.1755441E+05   -1.7803004E+00
   2.0144295E-04   3.1496067E+05   -1.7797327E+00
   2.0237324E-04   3.1238894E+05   -1.7791647E+00
   2.0330782E-04   3.0983902E+05   -1.7785964E+00
   2.0424671E-04   3.0731072E+05   -1.7780278E+00
   2.0518995E-04   3.0480384E+05   -1.7774590E+00
   2.0613754E-04   3.0231821E+05   -1.7768898E+00
   2.0708950E-04   2.9985364E+05   -1.7763203E+00
   2.0804586E-04   2.9740994E+05   -1.7757506E+00
   2.0900664E-04   2.9498693E+05   -1.7751806E+00
   2.0997185E-04   2.9258442E+05   -1.7746103E+00
   2.1094152E-04   2.9020225E+05   -1.7740398E+00
   2.1191567E-04   2.8784023E+05   -1.7734690E+00
   2.1289432E-04   2.8549819E+05   -1.7728980E+00
   2.1387749E-04   2.8317594E+05   -1.7723267E+00
   2.1486520E-04   2.8087333E+05   -1.7717552E+00
   2.1585747E-04   2.7859017E+05   -1.7711835E+00
   2.1685432E-04   2.7632630E+05   -1.7706116E+00
   2.1785578E-04   2.7408155E+05   -1.7700394E+00
   2.1886186E-04   2.7185575E+05   -1.7694670E+00
   2.1987259E-04   2.6964874E+05   -1.7688944E+00
   2.2088798E-04   2.6746035E+05   -1.7683216E+00
   2.2190807E-04   2.6529042E+05   -1.7677486E+00
   2.2293286E-04   2.6313879E+05   -1.7671755E+00
   2.2396239E-04   2.6100530E+05   -1.7666021E+00
   2.2499667E-04   2.5888980E+05   -1.7660286E+00
   2.2603573E-04   2.5679211E+05   -1.7654549E+00
   2.2707958E-04   2.5471210E+05   -1.7648810E+00
   2.2812826E-04   2.5264961E+05   -1.7643070E+00
   2.2918178E-04   2.5060447E+05   -1.7637328E+00
   2.3024017E-04   2.4857656E+05   -1.7631585E+00
   2.3130344E-04   2.4656570E+05   -1.7625841E+00
   2.3237162E-04   2.4457176E+05   -1.7620095E+00
   2.3344474E-04   2.4259458E+05   -1.7614347E+00
   2.3452281E-04   2.4063403E+05   -1.7608599E+00
   2.3560586E-04   2.3868995E+05   -1.7602849E+00
   2.3669392E-04   2.3676221E+05   -1.7597099E+00
   2.3778699E-04   2.3485065E+05   -1.7591347E+00
   2.3888512E-04   2.3295515E+05   -1.7585594E+00
   2.3998831E-04   2.3107556E+05   -1.7579841E+00
   2.4109661E-04   2.2921174E+05   -1.7574086E+00
   2.4221001E-04   2.2736356E+05   -1.7568331E+00
   2.4332857E-04   2.2553088E+05   -1.7562575E+00
   2.4445228E-04   2.2371357E+05   -1.7556819E+00
   2.4558119E-04   2.2191148E+05   -1.7551062E+00
   2.4671531E-04   2.2012450E+05   -1.7545304E+00
   2.4785467E-04   2.1835249E+05   -1.7539546E+00
   2.4899928E-04   2.1659531E+05   -1.7533787E+00
   2.5014919E-04   2.1485285E+05   -1.7528028E+00
   2.5130440E-04   2.1312497E+05   -1.7522269E+00
   2.5246495E-04   2.1141155E+05   -1.7516509E+00
   2.5363086E-04   2.0971246E+05   -1.7510749E+00
   2.5480216E-04   2.0802757E+05   -1.7504989E+00
   2.5597886E-04   2.0635678E+05   -1.7499229E+00
   2.5716100E-04   2.0469994E+05   -1.7493470E+00
   2.5834859E-04   2.0305694E+05   -1.7487710E+00
   2.5954168E-04   2.0142767E+05   -1.7481950E+00
   2.6074027E-04   1.9981200E+05   -1.7476190E+00
   2.6194439E-04   1.9820981E+05   -1.7470431E+00
   2.6315408E-04   1.9662100E+05   -1.7464672E+00
   2.6436935E-04   1.9504544E+05   -1.7458914E+00
   2.6559024E-04   1.9348301E+05   -1.7453155E+00
   2.6681676E-04   1.9193361E+05   -1.7447398E+00
   2.6804895E-04   1.9039713E+05   -1.7441641E+00
   2.6928683E-04   1.8887344E+05   -1.7435884E+00
   2.7053042E-04   1.8736245E+05   -1.7430128E+00
   2.7177976E-04   1.8586403E+05   -1.7424373E+00
   2.7303487E-04   1.8437809E+05   -1.7418619E+00
   2.7429577E-04   1.8290451E+05   -1.7412865E+00
   2.7556250E-04   1.8144319E+05   -1.7407113E+00
   2.7683507E-04   1.7999403E+05   -1.7401361E+00
   2.7811353E-04   1.7855691E+05   -1.7395611E+00
   2.7939788E-04   1.7713173E+05   -1.7389861E+00
   2.8068817E-04   1.7571840E+05   -1.7384113E+00
   2.8198442E-04   1.7431680E+05   -1.7378366E+00
   2.8328665E-04   1.7292684E+05   -1.7372620E+00
   2.8459490E-04   1.7154842E+05   -1.7366876E+00
   2.8590919E-04   1.7018143E+05   -1.7361133E+00
   2.8722955E-04   1.6882579E+05   -1.7355391E+00
   2.8855600E-04   1.6748139E+05   -1.7349651E+00
   2.8988859E-04   1.6614813E+05   -1.7343913E+00
   2.9122732E-04   1.6482592E+05   -1.7338176E+00
   2.9257224E-04   1.6351467E+05   -1.7332441E+00
   2.9392337E-04   1.6221427E+05   -1.7326708E+00
   2.9528074E-04   1.6092465E+05   -1.7320976E+00
   2.9664438E-04   1.5964570E+05   -1.7315247E+00
   2.9801431E-04   1.5837733E+05   -1.7309519E+00
   2.9939057E-04   1.5711945E+05   -1.7303794E+00
   3.0077319E-04   1.5587197E+05   -1.7298070E+00
   3.0216219E-04   1.5463481E+05   -1.7292349E+00
   3.0355761E-04   1.5340787E+05   -1.7286629E+00
   3.0495947E-04   1.5219106E+05   -1.7280912E+00
   3.0636780E-04   1.5098430E+05   -1.7275198E+00
   3.0778264E-04   1.4978751E+05   -1.7269485E+00
   3.0920401E-04   1.4860060E+05   -1.7263775E+00
   3.1063195E-04   1.4742347E+05   -1.7258068E+00
   3.1206648E-04   1.4625606E+05   -1.7252363E+00
   3.1350764E-04   1.4509827E+05   -1.7246661E+00
   3.1495545E-04   1.4395003E+05   -1.7240961E+00
   3.1640994E-04   1.4281125E+05   -1.7235264E+00
   3.1787116E-04   1.4168184E+05   -1.7229570E+00
   3.1933912E-04   1.4056174E+05   -1.7223879E+00
   3.2081386E-04   1.3945086E+05   -1.7218190E+00
   3.2229541E-04   1.3834912E+05   -1.7212505E+00
   3.2378381E-04   1.3725645E+05   -1.7206822E+00
   3.2527908E-04   1.3617276E+05   -1.7201143E+00
   3.2678125E-04   1.3509798E+05   -1.7195466E+00
   3.2829036E-04   1.3403204E+05   -1.7189793E+00
   3.2980644E-04   1.3297485E+05   -1.7184123E+00
   3.3132952E-04   1.3192634E+05   -1.7178457E+00
   3.3285963E-04   1.3088645E+05   -1.7172794E+00
   3.3439681E-04   1.2985509E+05   -1.7167134E+00
   3.3594109E-04   1.2883219E+05   -1.7161477E+00
   3.3749250E-04   1.2781768E+05   -1.7155825E+00
   3.3905108E-04   1.2681150E+05   -1.7150175E+00
   3.4061685E-04   1.2581356E+05   -1.7144530E+00
   3.4218986E-04   1.2482380E+05   -1.7138888E+00
   3.4377013E-04   1.2384214E+05   -1.7133249E+00
   3.4535769E-04   1.2286853E+05   -1.7127615E+00
   3.4695259E-04   1.2190289E+05   -1.7121985E+00
   3.4855485E-04   1.2094515E+05   -1.7116358E+00
   3.5016452E-04   1.1999524E+05   -1.7110735E+00
   3.5178161E-04   1.1905310E+05   -1.7105117E+00
   3.5340618E-04   1.1811867E+05   -1.7099502E+00
   3.5503824E-04   1.1719187E+05   -1.7093892E+00
   3.5667785E-04   1.1627265E+05   -1.7088286E+00
   3.5832502E-04   1.1536093E+05   -1.7082684E+00
   3.5997981E-04   1.1445666E+05   -1.7077086E+00
   3.6164223E-04   1.1355977E+05   -1.7071493E+00
   3.6331233E-04   1.1267020E+05   -1.7065904E+00
   3.6499015E-04   1.1178788E+05   -1.7060319E+00
   3.6667571E-04   1.1091276E+05   -1.7054739E+00
   3.6836906E-04   1.1004478E+05   -1.7049164E+00
   3.7007022E-04   1.0918386E+05   -1.7043593E+00
   3.7177925E-04   1.0832996E+05   -1.7038027E+00
   3.7349616E-04   1.0748301E+05   -1.7032466E+00
   3.7522101E-04   1.0664296E+05   -1.7026909E+00
   3.7695382E-04   1.0580974E+05   -1.7021358E+00
   3.7869463E-04   1.0498330E+05   -1.7015811E+00
   3.8044348E-04   1.0416359E+05   -1.7010269E+00
   3.8220041E-04   1.0335053E+05   -1.7004732E+00
   3.8396545E-04   1.0254409E+05   -1.6999200E+00
   3.8573864E-04   1.0174420E+05   -1.6993674E+00
   3.8752002E-04   1.0095080E+05   -1.6988152E+00
   3.8930963E-04   1.0016384E+05   -1.6982636E+00
   3.9110750E-04   9.9383276E+04   -1.6977125E+00
   3.9291368E-04   9.8609041E+04   -1.6971619E+00
   3.9472820E-04   9.7841086E+04   -1.6966118E+00
   3.9655109E-04   9.7079357E+04   -1.6960623E+00
   3.9838241E-04   9.6323803E+04   -1.6955134E+00
   4.0022218E-04   9.5574370E+04   -1.6949649E+00
   4.0207045E-04   9.4831008E+04   -1.6944171E+00
   4.0392725E-04   9.4093665E+04   -1.6938698E+00
   4.0579263E-04   9.3362291E+04   -1.6933231E+00
   4.0766662E-04   9.2636835E+04   -1.6927769E+00
   4.0954927E-04   9.1917246E+04   -1.6922313E+00
   4.1144061E-04   9.1203477E+04   -1.6916863E+00
   4.1334068E-04   9.0495477E+04   -1.6911419E+00
   4.1524953E-04   8.9793199E+04   -1.6905981E+00
   4.1716720E-04   8.9096593E+04   -1.6900548E+00
   4.1909372E-04   8.8405613E+04   -1.6895122E+00
   4.2102914E-04   8.7720211E+04   -1.6889701E+00
   4.2297350E-04   8.7040340E+04   -1.6884287E+00
   4.2492683E-04   8.6365954E+04   -1.6878879E+00
   4.2688919E-04   8.5697006E+04   -1.6873477E+00
   4.2886061E-04   8.5033451E+04   -1.6868081E+00
   4.3084113E-04   8.4375244E+04   -1.6862692E+00
   4.3283080E-04   8.3722340E+04   -1.6857309E+00
   4.3482966E-04   8.3074693E+04   -1.6851932E+00
   4.3683775E-04   8.2432261E+04   -1.6846562E+00
   4.3885511E-04   8.1794999E+04   -1.6841198E+00
   4.4088179E-04   8.1162864E+04   -1.6835840E+00
   4.4291783E-04   8.0535813E+04   -1.6830489E+00
   4.4496327E-04   7.9913803E+04   -1.6825145E+00
   4.4701816E-04   7.9296792E+04   -1.6819808E+00
   4.4908253E-04   7.8684739E+04   -1.6814477E+00
   4.5115644E-04   7.8077601E+04   -1.6809152E+00
   4.5323993E-04   7.7475339E+04   -1.6803835E+00
   4.5533304E-04   7.6877910E+04   -1.6798524E+00
   4.5743582E-04   7.6285274E+04   -1.6793220E+00
   4.5954830E-04   7.5697392E+04   -1.6787924E+00
   4.6167054E-04   7.5114224E+04   -1.6782634E+00
   4.6380259E-04   7.4535730E+04   -1.6777351E+00
   4.6594448E-04   7.3961871E+04   -1.6772075E+00
   4.6809626E-04   7.3392608E+04   -1.6766806E+00
   4.7025797E-04   7.2827904E+04   -1.6761544E+00
   4.7242967E-04   7.2267719E+04   -1.6756289E+00
   4.7461140E-04   7.1712017E+04   -1.6751042E+00
   4.7680321E-04   7.1160760E+04   -1.6745802E+00
   4.7900514E-04   7.0613911E+04   -1.6740569E+00
   4.8121723E-04   7.0071433E+04   -1.6735343E+00
   4.8343954E-04   6.9533290E+04   -1.6730125E+00
   4.8567212E-04   6.8999446E+04   -1.6724914E+00
   4.8791500E-04   6.8469865E+04   -1.6719710E+00
   4.9016825E-04   6.7944511E+04   -1.6714514E+00
   4.9243189E-04   6.7423349E+04   -1.6709326E+00
   4.9470600E-04   6.6906344E+04   -1.6704145E+00
   4.9699060E-04   6.6393463E+04   -1.6698971E+00
   4.9928575E-04   6.5884669E+04   -1.6693806E+00
   5.0159151E-04   6.5379931E+04   -1.6688648E+00
   5.0390791E-04   6.4879213E+04   -1.6683497E+00
   5.0623501E-04   6.4382482E+04   -1.6678355E+00
   5.0857286E-04   6.3889706E+04   -1.6673220E+00
   5.1092150E-04   6.3400852E+04   -1.6668093E+00
   5.1328099E-04   6.2915886E+04   -1.6662973E+00
   5.1565137E-04   6.2434777E+04   -1.6657862E+00
   5.1803270E-04   6.1957494E+04   -1.6652759E+00
   5.2042503E-04   6.1484003E+04   -1.6647663E+00
   5.2282841E-04   6.1014273E+04   -1.6642576E+00
   5.2524289E-04   6.0548275E+04   -1.6637496E+00
   5.2766851E-04   6.0085975E+04   -1.6632425E+00
   5.3010534E-04   5.9627345E+04   -1.6627361E+00
   5.3255342E-04   5.9172354E+04   -1.6622306E+00
   5.3501281E-04   5.8720970E+04   -1.6617259E+00
   5.3748356E-04   5.8273166E+04   -1.6612220E+00
   5.3996571E-04   5.7828910E+04   -1.6607190E+00
   5.4245933E-04   5.7388175E+04   -1.6602167E+00
   5.4496446E-04   5.6950930E+04   -1.6597153E+00
   5.4748117E-04   5.6517147E+04   -1.6592148E+00
   5.5000949E-04   5.6086797E+04   -1.6587150E+00
   5.5254949E-04   5.5659853E+04   -1.6582161E+00
   5.5510123E-04   5.5236285E+04   -1.6577181E+00
   5.5766474E-04   5.4816066E+04   -1.6572209E+00
   5.6024010E-04   5.4399168E+04   -1.6567245E+00
   5.6282734E-04   5.3985565E+04   -1.6562290E+00
   5.6542654E-04   5.3575228E+04   -1.6557343E+00
   5.6803774E-04   5.3168131E+04   -1.6552405E+00
   5.7066099E-04   5.2764248E+04   -1.6547476E+00
   5.7329637E-04   5.2363551E+04   -1.6542555E+00
   5.7594391E-04   5.1966016E+04   -1.6537643E+00
   5.7860368E-04   5.1571614E+04   -1.6532740E+00
   5.8127573E-04   5.1180322E+04   -1.6527845E+00
   5.8396012E-04   5.0792113E+04   -1.6522959E+00
   5.8665691E-04   5.0406962E+04   -1.6518082E+00
   5.8936616E-04   5.0024844E+04   -1.6513214E+00
   5.9208791E-04   4.9645734E+04   -1.6508354E+00
   5.9482223E-04   4.9269607E+04   -1.6503504E+00
   5.9756919E-04   4.8896439E+04   -1.6498662E+00
   6.0032882E-04   4.8526205E+04   -1.6493829E+00
   6.0310120E-04   4.8158882E+04   -1.6489005E+00
   6.0588639E-04   4.7794446E+04   -1.6484190E+00
   6.0868443E-04   4.7432872E+04   -1.6479384E+00
   6.1149540E-04   4.7074138E+04   -1.6474588E+00
   6.1431935E-04   4.6718220E+04   -1.6469800E+00
   6.1715634E-04   4.6365096E+04   -1.6465021E+00
   6.2000644E-04   4.6014742E+04   -1.6460251E+00
   6.2286969E-04   4.5667135E+04   -1.6455491E+00
