#        a       HoverH0(a)       dlogHdloga_of_a(a)
   1.0000000E-04   1.0483013E+06   -1.8794586E+00
   1.0046181E-04   1.0392636E+06   -1.8790366E+00
   1.0092575E-04   1.0303059E+06   -1.8786136E+00
   1.0139184E-04   1.0214274E+06   -1.8781896E+00
   1.0186008E-04   1.0126274E+06   -1.8777646E+00
   1.0233048E-04   1.0039052E+06   -1.8773385E+00
   1.0280305E-04   9.9526007E+05   -1.8769115E+00
   1.0327781E-04   9.8669132E+05   -1.8764835E+00
   1.0375475E-04   9.7819827E+05   -1.8760545E+00
   1.0423390E-04   9.6978025E+05   -1.8756244E+00
   1.0471527E-04   9.6143658E+05   -1.8751934E+00
   1.0519885E-04   9.5316659E+05   -1.8747614E+00
   1.0568467E-04   9.4496961E+05   -1.8743284E+00
   1.0617274E-04   9.3684500E+05   -1.8738944E+00
   1.0666305E-04   9.2879211E+05   -1.8734594E+00
   1.0715563E-04   9.2081028E+05   -1.8730234E+00
   1.0765049E-04   9.1289888E+05   -1.8725864E+00
   1.0814763E-04   9.0505729E+05   -1.8721484E+00
   1.0864707E-04   8.9728486E+05   -1.8717095E+00
   1.0914881E-04   8.8958098E+05   -1.8712696E+00
   1.0965287E-04   8.8194503E+05   -1.8708286E+00
   1.1015926E-04   8.7437641E+05   -1.8703867E+00
   1.1066799E-04   8.6687450E+05   -1.8699438E+00
   1.1117906E-04   8.5943871E+05   -1.8695000E+00
   1.1169250E-04   8.5206845E+05   -1.8690551E+00
   1.1220831E-04   8.4476313E+05   -1.8686093E+00
   1.1272650E-04   8.3752217E+05   -1.8681625E+00
   1.1324708E-04   8.3034498E+05   -1.8677147E+00
   1.1377007E-04   8.2323100E+05   -1.8672660E+00
   1.1429547E-04   8.1617966E+05   -1.8668162E+00
   1.1482330E-04   8.0919039E+05   -1.8663656E+00
   1.1535356E-04   8.0226264E+05   -1.8659139E+00
   1.1588628E-04   7.9539587E+05   -1.8654613E+00
   1.1642145E-04   7.8858951E+05   -1.8650077E+00
   1.1695910E-04   7.8184303E+05   -1.8645531E+00
   1.1749923E-04   7.7515589E+05   -1.8640976E+00
   1.1804185E-04   7.6852756E+05   -1.8636412E+00
   1.1858698E-04   7.6195752E+05   -1.8631837E+00
   1.1913463E-04   7.5544523E+05   -1.8627254E+00
   1.1968481E-04   7.4899019E+05   -1.8622660E+00
   1.2023752E-04   7.4259187E+05   -1.8618057E+00
   1.2079279E-04   7.3624978E+05   -1.8613445E+00
   1.2135063E-04   7.2996341E+05   -1.8608823E+00
   1.2191104E-04   7.2373226E+05   -1.8604192E+00
   1.2247403E-04   7.1755583E+05   -1.8599551E+00
   1.2303963E-04   7.1143363E+05   -1.8594901E+00
   1.2360784E-04   7.0536518E+05   -1.8590241E+00
   1.2417868E-04   6.9934999E+05   -1.8585573E+00
   1.2475215E-04   6.9338759E+05   -1.8580894E+00
   1.2532826E-04   6.8747751E+05   -1.8576207E+00
   1.2590704E-04   6.8161928E+05   -1.8571510E+00
   1.2648850E-04   6.7581243E+05   -1.8566804E+00
   1.2707263E-04   6.7005651E+05   -1.8562088E+00
   1.2765947E-04   6.6435105E+05   -1.8557363E+00
   1.2824901E-04   6.5869562E+05   -1.8552630E+00
   1.2884128E-04   6.5308975E+05   -1.8547886E+00
   1.2943628E-04   6.4753300E+05   -1.8543134E+00
   1.3003403E-04   6.4202495E+05   -1.8538373E+00
   1.3063454E-04   6.3656514E+05   -1.8533602E+00
   1.3123783E-04   6.3115315E+05   -1.8528823E+00
   1.3184390E-04   6.2578855E+05   -1.8524034E+00
   1.3245277E-04   6.2047092E+05   -1.8519236E+00
   1.3306445E-04   6.1519984E+05   -1.8514429E+00
   1.3367895E-04   6.0997489E+05   -1.8509614E+00
   1.3429630E-04   6.0479566E+05   -1.8504789E+00
   1.3491649E-04   5.9966174E+05   -1.8499955E+00
   1.3553955E-04   5.9457272E+05   -1.8495112E+00
   1.3616548E-04   5.8952821E+05   -1.8490261E+00
   1.3679431E-04   5.8452781E+05   -1.8485401E+00
   1.3742604E-04   5.7957112E+05   -1.8480531E+00
   1.3806069E-04   5.7465775E+05   -1.8475653E+00
   1.3869827E-04   5.6978732E+05   -1.8470767E+00
   1.3933879E-04   5.6495944E+05   -1.8465871E+00
   1.3998227E-04   5.6017373E+05   -1.8460967E+00
   1.4062872E-04   5.5542982E+05   -1.8456054E+00
   1.4127816E-04   5.5072732E+05   -1.8451132E+00
   1.4193060E-04   5.4606588E+05   -1.8446202E+00
   1.4258605E-04   5.4144513E+05   -1.8441263E+00
   1.4324453E-04   5.3686470E+05   -1.8436316E+00
   1.4390605E-04   5.3232423E+05   -1.8431360E+00
   1.4457062E-04   5.2782337E+05   -1.8426395E+00
   1.4523826E-04   5.2336177E+05   -1.8421422E+00
   1.4590899E-04   5.1893906E+05   -1.8416441E+00
   1.4658281E-04   5.1455492E+05   -1.8411451E+00
   1.4725974E-04   5.1020898E+05   -1.8406452E+00
   1.4793981E-04   5.0590092E+05   -1.8401446E+00
   1.4862301E-04   5.0163039E+05   -1.8396431E+00
   1.4930936E-04   4.9739706E+05   -1.8391408E+00
   1.4999889E-04   4.9320060E+05   -1.8386376E+00
   1.5069160E-04   4.8904068E+05   -1.8381336E+00
   1.5138751E-04   4.8491697E+05   -1.8376288E+00
   1.5208663E-04   4.8082916E+05   -1.8371232E+00
   1.5278899E-04   4.7677691E+05   -1.8366168E+00
   1.5349458E-04   4.7275992E+05   -1.8361096E+00
   1.5420343E-04   4.6877787E+05   -1.8356015E+00
   1.5491556E-04   4.6483046E+05   -1.8350927E+00
   1.5563098E-04   4.6091736E+05   -1.8345831E+00
   1.5634970E-04   4.5703828E+05   -1.8340726E+00
   1.5707174E-04   4.5319291E+05   -1.8335614E+00
   1.5779711E-04   4.4938095E+05   -1.8330494E+00
   1.5852584E-04   4.4560211E+05   -1.8325366E+00
   1.5925792E-04   4.4185609E+05   -1.8320230E+00
   1.5999339E-04   4.3814260E+05   -1.8315086E+00
   1.6073226E-04   4.3446135E+05   -1.8309935E+00
   1.6147454E-04   4.3081205E+05   -1.8304776E+00
   1.6222024E-04   4.2719442E+05   -1.8299610E+00
   1.6296939E-04   4.2360818E+05   -1.8294435E+00
   1.6372200E-04   4.2005305E+05   -1.8289253E+00
   1.6447809E-04   4.1652875E+05   -1.8284064E+00
   1.6523767E-04   4.1303500E+05   -1.8278867E+00
   1.6600075E-04   4.0957155E+05   -1.8273663E+00
   1.6676736E-04   4.0613810E+05   -1.8268451E+00
   1.6753751E-04   4.0273441E+05   -1.8263232E+00
   1.6831122E-04   3.9936021E+05   -1.8258005E+00
   1.6908849E-04   3.9601523E+05   -1.8252771E+00
   1.6986936E-04   3.9269921E+05   -1.8247530E+00
   1.7065384E-04   3.8941190E+05   -1.8242282E+00
   1.7144193E-04   3.8615305E+05   -1.8237026E+00
   1.7223367E-04   3.8292239E+05   -1.8231764E+00
   1.7302906E-04   3.7971969E+05   -1.8226494E+00
   1.7382813E-04   3.7654468E+05   -1.8221217E+00
   1.7463089E-04   3.7339714E+05   -1.8215933E+00
   1.7543735E-04   3.7027680E+05   -1.8210642E+00
   1.7624754E-04   3.6718344E+05   -1.8205344E+00
   1.7706147E-04   3.6411681E+05   -1.8200040E+00
   1.7787916E-04   3.6107667E+05   -1.8194728E+00
   1.7870062E-04   3.5806279E+05   -1.8189410E+00
   1.7952588E-04   3.5507494E+05   -1.8184085E+00
   1.8035495E-04   3.5211289E+05   -1.8178753E+00
   1.8118785E-04   3.4917640E+05   -1.8173414E+00
   1.8202459E-04   3.4626526E+05   -1.8168069E+00
   1.8286520E-04   3.4337923E+05   -1.8162717E+00
   1.8370969E-04   3.4051810E+05   -1.8157359E+00
   1.8455808E-04   3.3768164E+05   -1.8151994E+00
   1.8541039E-04   3.3486963E+05   -1.8146623E+00
   1.8626663E-04   3.3208187E+05   -1.8141246E+00
   1.8712683E-04   3.2931813E+05   -1.8135862E+00
   1.8799100E-04   3.2657820E+05   -1.8130471E+00
   1.8885917E-04   3.2386187E+05   -1.8125075E+00
   1.8973134E-04   3.2116894E+05   -1.8119672E+00
   1.9060754E-04   3.1849919E+05   -1.8114263E+00
   1.9148778E-04   3.1585242E+05   -1.8108848E+00
   1.9237209E-04   3.1322843E+05   -1.8103427E+00
   1.9326049E-04   3.1062701E+05   -1.8097999E+00
   1.9415299E-04   3.0804797E+05   -1.8092566E+00
   1.9504960E-04   3.0549110E+05   -1.8087127E+00
   1.9595036E-04   3.0295622E+05   -1.8081682E+00
   1.9685528E-04   3.0044313E+05   -1.8076231E+00
   1.9776438E-04   2.9795163E+05   -1.8070774E+00
   1.9867768E-04   2.9548154E+05   -1.8065312E+00
   1.9959519E-04   2.9303266E+05   -1.8059844E+00
   2.0051694E-04   2.9060481E+05   -1.8054370E+00
   2.0144295E-04   2.8819781E+05   -1.8048891E+00
   2.0237324E-04   2.8581146E+05   -1.8043406E+00
   2.0330782E-04   2.8344559E+05   -1.8037915E+00
   2.0424671E-04   2.8110001E+05   -1.8032419E+00
   2.0518995E-04   2.7877455E+05   -1.8026918E+00
   2.0613754E-04   2.7646903E+05   -1.8021412E+00
   2.0708950E-04   2.7418327E+05   -1.8015900E+00
   2.0804586E-04   2.7191710E+05   -1.8010382E+00
   2.0900664E-04   2.6967035E+05   -1.8004860E+00
   2.0997185E-04   2.6744284E+05   -1.7999333E+00
   2.1094152E-04   2.6523441E+05   -1.7993800E+00
   2.1191567E-04   2.6304488E+05   -1.7988262E+00
   2.1289432E-04   2.6087410E+05   -1.7982720E+00
   2.1387749E-04   2.5872189E+05   -1.7977172E+00
   2.1486520E-04   2.5658809E+05   -1.7971620E+00
   2.1585747E-04   2.5447254E+05   -1.7966062E+00
   2.1685432E-04   2.5237508E+05   -1.7960500E+00
   2.1785578E-04   2.5029555E+05   -1.7954934E+00
   2.1886186E-04   2.4823379E+05   -1.7949362E+00
   2.1987259E-04   2.4618965E+05   -1.7943786E+00
   2.2088798E-04   2.4416297E+05   -1.7938205E+00
   2.2190807E-04   2.4215360E+05   -1.7932620E+00
   2.2293286E-04   2.4016138E+05   -1.7927031E+00
   2.2396239E-04   2.3818616E+05   -1.7921437E+00
   2.2499667E-04   2.3622780E+05   -1.7915838E+00
   2.2603573E-04   2.3428614E+05   -1.7910236E+00
   2.2707958E-04   2.3236105E+05   -1.7904629E+00
   2.2812826E-04   2.3045237E+05   -1.7899018E+00
   2.2918178E-04   2.2855995E+05   -1.7893402E+00
   2.3024017E-04   2.2668367E+05   -1.7887783E+00
   2.3130344E-04   2.2482337E+05   -1.7882160E+00
   2.3237162E-04   2.2297891E+05   -1.7876532E+00
   2.3344474E-04   2.2115016E+05   -1.7870901E+00
   2.3452281E-04   2.1933698E+05   -1.7865266E+00
   2.3560586E-04   2.1753922E+05   -1.7859627E+00
   2.3669392E-04   2.1575677E+05   -1.7853985E+00
   2.3778699E-04   2.1398947E+05   -1.7848338E+00
   2.3888512E-04   2.1223721E+05   -1.7842689E+00
   2.3998831E-04   2.1049984E+05   -1.7837035E+00
   2.4109661E-04   2.0877723E+05   -1.7831378E+00
   2.4221001E-04   2.0706927E+05   -1.7825718E+00
   2.4332857E-04   2.0537581E+05   -1.7820054E+00
   2.4445228E-04   2.0369673E+05   -1.7814387E+00
   2.4558119E-04   2.0203191E+05   -1.7808716E+00
   2.4671531E-04   2.0038122E+05   -1.7803042E+00
   2.4785467E-04   1.9874453E+05   -1.7797365E+00
   2.4899928E-04   1.9712173E+05   -1.7791685E+00
   2.5014919E-04   1.9551269E+05   -1.7786002E+00
   2.5130440E-04   1.9391729E+05   -1.7780316E+00
   2.5246495E-04   1.9233542E+05   -1.7774627E+00
   2.5363086E-04   1.9076695E+05   -1.7768935E+00
   2.5480216E-04   1.8921177E+05   -1.7763241E+00
   2.5597886E-04   1.8766975E+05   -1.7757543E+00
   2.5716100E-04   1.8614080E+05   -1.7751843E+00
   2.5834859E-04   1.8462478E+05   -1.7746140E+00
   2.5954168E-04   1.8312160E+05   -1.7740434E+00
   2.6074027E-04   1.8163112E+05   -1.7734726E+00
   2.6194439E-04   1.8015326E+05   -1.7729016E+00
   2.6315408E-04   1.7868789E+05   -1.7723303E+00
   2.6436935E-04   1.7723490E+05   -1.7717588E+00
   2.6559024E-04   1.7579420E+05   -1.7711870E+00
   2.6681676E-04   1.7436566E+05   -1.7706151E+00
   2.6804895E-04   1.7294919E+05   -1.7700429E+00
   2.6928683E-04   1.7154468E+05   -1.7694705E+00
   2.7053042E-04   1.7015202E+05   -1.7688978E+00
   2.7177976E-04   1.6877112E+05   -1.7683250E+00
   2.7303487E-04   1.6740186E+05   -1.7677520E+00
   2.7429577E-04   1.6604415E+05   -1.7671788E+00
   2.7556250E-04   1.6469789E+05   -1.7666055E+00
   2.7683507E-04   1.6336297E+05   -1.7660319E+00
   2.7811353E-04   1.6203930E+05   -1.7654582E+00
   2.7939788E-04   1.6072678E+05   -1.7648843E+00
   2.8068817E-04   1.5942532E+05   -1.7643102E+00
   2.8198442E-04   1.5813481E+05   -1.7637360E+00
   2.8328665E-04   1.5685516E+05   -1.7631617E+00
   2.8459490E-04   1.5558628E+05   -1.7625872E+00
   2.8590919E-04   1.5432808E+05   -1.7620126E+00
   2.8722955E-04   1.5308045E+05   -1.7614379E+00
   2.8855600E-04   1.5184331E+05   -1.7608630E+00
   2.8988859E-04   1.5061657E+05   -1.7602880E+00
   2.9122732E-04   1.4940014E+05   -1.7597129E+00
   2.9257224E-04   1.4819392E+05   -1.7591377E+00
   2.9392337E-04   1.4699783E+05   -1.7585624E+00
   2.9528074E-04   1.4581178E+05   -1.7579871E+00
   2.9664438E-04   1.4463569E+05   -1.7574116E+00
   2.9801431E-04   1.4346946E+05   -1.7568360E+00
   2.9939057E-04   1.4231301E+05   -1.7562604E+00
   3.0077319E-04   1.4116626E+05   -1.7556847E+00
   3.0216219E-04   1.4002912E+05   -1.7551090E+00
   3.0355761E-04   1.3890150E+05   -1.7545332E+00
   3.0495947E-04   1.3778334E+05   -1.7539573E+00
   3.0636780E-04   1.3667454E+05   -1.7533814E+00
   3.0778264E-04   1.3557502E+05   -1.7528055E+00
   3.0920401E-04   1.3448470E+05   -1.7522295E+00
   3.1063195E-04   1.3340351E+05   -1.7516535E+00
   3.1206648E-04   1.3233136E+05   -1.7510775E+00
   3.1350764E-04   1.3126817E+05   -1.7505015E+00
   3.1495545E-04   1.3021387E+05   -1.7499255E+00
   3.1640994E-04   1.2916838E+05   -1.7493495E+00
   3.1787116E-04   1.2813163E+05   -1.7487735E+00
   3.1933912E-04   1.2710354E+05   -1.7481975E+00
   3.2081386E-04   1.2608403E+05   -1.7476215E+00
   3.2229541E-04   1.2507302E+05   -1.7470455E+00
   3.2378381E-04   1.2407046E+05   -1.7464696E+00
   3.2527908E-04   1.2307626E+05   -1.7458937E+00
   3.2678125E-04   1.2209035E+05   -1.7453178E+00
   3.2829036E-04   1.2111265E+05   -1.7447420E+00
   3.2980644E-04   1.2014311E+05   -1.7441663E+00
   3.3132952E-04   1.1918164E+05   -1.7435906E+00
   3.3285963E-04   1.1822818E+05   -1.7430150E+00
   3.3439681E-04   1.1728266E+05   -1.7424395E+00
   3.3594109E-04   1.1634501E+05   -1.7418640E+00
   3.3749250E-04   1.1541516E+05   -1.7412886E+00
   3.3905108E-04   1.1449305E+05   -1.7407133E+00
   3.4061685E-04   1.1357861E+05   -1.7401381E+00
   3.4218986E-04   1.1267176E+05   -1.7395631E+00
   3.4377013E-04   1.1177246E+05   -1.7389881E+00
   3.4535769E-04   1.1088062E+05   -1.7384132E+00
   3.4695259E-04   1.0999620E+05   -1.7378385E+00
   3.4855485E-04   1.0911911E+05   -1.7372639E+00
   3.5016452E-04   1.0824931E+05   -1.7366894E+00
   3.5178161E-04   1.0738672E+05   -1.7361151E+00
   3.5340618E-04   1.0653129E+05   -1.7355409E+00
   3.5503824E-04   1.0568296E+05   -1.7349668E+00
   3.5667785E-04   1.0484165E+05   -1.7343930E+00
   3.5832502E-04   1.0400732E+05   -1.7338193E+00
   3.5997981E-04   1.0317990E+05   -1.7332457E+00
   3.6164223E-04   1.0235934E+05   -1.7326723E+00
   3.6331233E-04   1.0154557E+05   -1.7320992E+00
   3.6499015E-04   1.0073853E+05   -1.7315262E+00
   3.6667571E-04   9.9938170E+04   -1.7309534E+00
   3.6836906E-04   9.9144432E+04   -1.7303808E+00
   3.7007022E-04   9.8357257E+04   -1.7298084E+00
   3.7177925E-04   9.7576589E+04   -1.7292362E+00
   3.7349616E-04   9.6802373E+04   -1.7286642E+00
   3.7522101E-04   9.6034552E+04   -1.7280925E+00
   3.7695382E-04   9.5273073E+04   -1.7275210E+00
   3.7869463E-04   9.4517881E+04   -1.7269497E+00
   3.8044348E-04   9.3768921E+04   -1.7263787E+00
   3.8220041E-04   9.3026141E+04   -1.7258079E+00
   3.8396545E-04   9.2289488E+04   -1.7252373E+00
   3.8573864E-04   9.1558908E+04   -1.7246671E+00
   3.8752002E-04   9.0834351E+04   -1.7240971E+00
   3.8930963E-04   9.0115764E+04   -1.7235273E+00
   3.9110750E-04   8.9403096E+04   -1.7229579E+00
   3.9291368E-04   8.8696297E+04   -1.7223887E+00
   3.9472820E-04   8.7995316E+04   -1.7218198E+00
   3.9655109E-04   8.7300104E+04   -1.7212512E+00
   3.9838241E-04   8.6610612E+04   -1.7206829E+00
   4.0022218E-04   8.5926790E+04   -1.7201149E+00
   4.0207045E-04   8.5248590E+04   -1.7195473E+00
   4.0392725E-04   8.4575964E+04   -1.7189799E+00
   4.0579263E-04   8.3908865E+04   -1.7184129E+00
   4.0766662E-04   8.3247245E+04   -1.7178462E+00
   4.0954927E-04   8.2591057E+04   -1.7172798E+00
   4.1144061E-04   8.1940256E+04   -1.7167138E+00
   4.1334068E-04   8.1294794E+04   -1.7161481E+00
   4.1524953E-04   8.0654627E+04   -1.7155828E+00
   4.1716720E-04   8.0019710E+04   -1.7150178E+00
   4.1909372E-04   7.9389997E+04   -1.7144532E+00
   4.2102914E-04   7.8765444E+04   -1.7138889E+00
   4.2297350E-04   7.8146008E+04   -1.7133251E+00
   4.2492683E-04   7.7531645E+04   -1.7127616E+00
   4.2688919E-04   7.6922311E+04   -1.7121985E+00
   4.2886061E-04   7.6317964E+04   -1.7116358E+00
   4.3084113E-04   7.5718562E+04   -1.7110735E+00
   4.3283080E-04   7.5124062E+04   -1.7105116E+00
   4.3482966E-04   7.4534422E+04   -1.7099501E+00
   4.3683775E-04   7.3949602E+04   -1.7093890E+00
   4.3885511E-04   7.3369559E+04   -1.7088283E+00
   4.4088179E-04   7.2794255E+04   -1.7082681E+00
   4.4291783E-04   7.2223648E+04   -1.7077083E+00
   4.4496327E-04   7.1657698E+04   -1.7071489E+00
   4.4701816E-04   7.1096367E+04   -1.7065899E+00
   4.4908253E-04   7.0539614E+04   -1.7060314E+00
   4.5115644E-04   6.9987401E+04   -1.7054734E+00
   4.5323993E-04   6.9439690E+04   -1.7049158E+00
   4.5533304E-04   6.8896442E+04   -1.7043587E+00
   4.5743582E-04   6.8357619E+04   -1.7038020E+00
   4.5954830E-04   6.7823184E+04   -1.7032459E+00
   4.6167054E-04   6.7293100E+04   -1.7026901E+00
   4.6380259E-04   6.6767330E+04   -1.7021349E+00
   4.6594448E-04   6.6245837E+04   -1.7015802E+00
   4.6809626E-04   6.5728585E+04   -1.7010260E+00
   4.7025797E-04   6.5215538E+04   -1.7004722E+00
   4.7242967E-04   6.4706661E+04   -1.6999190E+00
   4.7461140E-04   6.4201918E+04   -1.6993663E+00
   4.7680321E-04   6.3701275E+04   -1.6988140E+00
   4.7900514E-04   6.3204696E+04   -1.6982624E+00
   4.8121723E-04   6.2712148E+04   -1.6977112E+00
   4.8343954E-04   6.2223596E+04   -1.6971606E+00
   4.8567212E-04   6.1739007E+04   -1.6966104E+00
   4.8791500E-04   6.1258347E+04   -1.6960609E+00
   4.9016825E-04   6.0781582E+04   -1.6955119E+00
   4.9243189E-04   6.0308681E+04   -1.6949634E+00
   4.9470600E-04   5.9839610E+04   -1.6944155E+00
   4.9699060E-04   5.9374338E+04   -1.6938681E+00
   4.9928575E-04   5.8912831E+04   -1.6933213E+00
   5.0159151E-04   5.8455059E+04   -1.6927751E+00
   5.0390791E-04   5.8000990E+04   -1.6922295E+00
   5.0623501E-04   5.7550592E+04   -1.6916844E+00
   5.0857286E-04   5.7103836E+04   -1.6911399E+00
   5.1092150E-04   5.6660689E+04   -1.6905961E+00
   5.1328099E-04   5.6221123E+04   -1.6900528E+00
   5.1565137E-04   5.5785106E+04   -1.6895101E+00
   5.1803270E-04   5.5352609E+04   -1.6889680E+00
   5.2042503E-04   5.4923602E+04   -1.6884265E+00
   5.2282841E-04   5.4498056E+04   -1.6878856E+00
   5.2524289E-04   5.4075942E+04   -1.6873454E+00
   5.2766851E-04   5.3657230E+04   -1.6868057E+00
   5.3010534E-04   5.3241893E+04   -1.6862667E+00
   5.3255342E-04   5.2829903E+04   -1.6857283E+00
   5.3501281E-04   5.2421230E+04   -1.6851906E+00
   5.3748356E-04   5.2015847E+04   -1.6846535E+00
   5.3996571E-04   5.1613727E+04   -1.6841171E+00
   5.4245933E-04   5.1214842E+04   -1.6835813E+00
   5.4496446E-04   5.0819165E+04   -1.6830461E+00
   5.4748117E-04   5.0426669E+04   -1.6825116E+00
   5.5000949E-04   5.0037328E+04   -1.6819778E+00
   5.5254949E-04   4.9651115E+04   -1.6814446E+00
   5.5510123E-04   4.9268004E+04   -1.6809122E+00
   5.5766474E-04   4.8887969E+04   -1.6803803E+00
   5.6024010E-04   4.8510984E+04   -1.6798492E+00
   5.6282734E-04   4.8137024E+04   -1.6793188E+00
   5.6542654E-04   4.7766063E+04   -1.6787890E+00
   5.6803774E-04   4.7398077E+04   -1.6782600E+00
   5.7066099E-04   4.7033040E+04   -1.6777316E+00
   5.7329637E-04   4.6670928E+04   -1.6772039E+00
   5.7594391E-04   4.6311716E+04   -1.6766770E+00
   5.7860368E-04   4.5955381E+04   -1.6761507E+00
   5.8127573E-04   4.5601898E+04   -1.6756252E+00
   5.8396012E-04   4.5251244E+04   -1.6751004E+00
   5.8665691E-04   4.4903394E+04   -1.6745763E+00
   5.8936616E-04   4.4558326E+04   -1.6740529E+00
   5.9208791E-04   4.4216016E+04   -1.6735303E+00
   5.9482223E-04   4.3876441E+04   -1.6730084E+00
   5.9756919E-04   4.3539579E+04   -1.6724872E+00
   6.0032882E-04   4.3205407E+04   -1.6719668E+00
   6.0310120E-04   4.2873902E+04   -1.6714472E+00
   6.0588639E-04   4.2545042E+04   -1.6709282E+00
   6.0868443E-04   4.2218806E+04   -1.6704101E+00
   6.1149540E-04   4.1895172E+04   -1.6698927E+00
   6.1431935E-04   4.1574117E+04   -1.6693760E+00
   6.1715634E-04   4.1255621E+04   -1.6688601E+00
   6.2000644E-04   4.0939663E+04   -1.6683450E+00
   6.2286969E-04   4.0626220E+04   -1.6678307E+00
