#        a       HoverH0(a)       dlogHdloga_of_a(a)
   1.0000000E-04   1.1269025E+06   -1.8810060E+00
   1.0046181E-04   1.1171793E+06   -1.8805877E+00
   1.0092575E-04   1.1075421E+06   -1.8801684E+00
   1.0139184E-04   1.0979901E+06   -1.8797481E+00
   1.0186008E-04   1.0885227E+06   -1.8793268E+00
   1.0233048E-04   1.0791389E+06   -1.8789045E+00
   1.0280305E-04   1.0698382E+06   -1.8784811E+00
   1.0327781E-04   1.0606197E+06   -1.8780568E+00
   1.0375475E-04   1.0514827E+06   -1.8776315E+00
   1.0423390E-04   1.0424264E+06   -1.8772051E+00
   1.0471527E-04   1.0334502E+06   -1.8767778E+00
   1.0519885E-04   1.0245532E+06   -1.8763494E+00
   1.0568467E-04   1.0157349E+06   -1.8759201E+00
   1.0617274E-04   1.0069945E+06   -1.8754898E+00
   1.0666305E-04   9.9833126E+05   -1.8750584E+00
   1.0715563E-04   9.8974453E+05   -1.8746261E+00
   1.0765049E-04   9.8123361E+05   -1.8741928E+00
   1.0814763E-04   9.7279783E+05   -1.8737585E+00
   1.0864707E-04   9.6443649E+05   -1.8733232E+00
   1.0914881E-04   9.5614895E+05   -1.8728869E+00
   1.0965287E-04   9.4793453E+05   -1.8724496E+00
   1.1015926E-04   9.3979257E+05   -1.8720113E+00
   1.1066799E-04   9.3172243E+05   -1.8715720E+00
   1.1117906E-04   9.2372346E+05   -1.8711318E+00
   1.1169250E-04   9.1579503E+05   -1.8706905E+00
   1.1220831E-04   9.0793649E+05   -1.8702483E+00
   1.1272650E-04   9.0014722E+05   -1.8698051E+00
   1.1324708E-04   8.9242660E+05   -1.8693610E+00
   1.1377007E-04   8.8477402E+05   -1.8689158E+00
   1.1429547E-04   8.7718886E+05   -1.8684697E+00
   1.1482330E-04   8.6967051E+05   -1.8680226E+00
   1.1535356E-04   8.6221839E+05   -1.8675745E+00
   1.1588628E-04   8.5483188E+05   -1.8671254E+00
   1.1642145E-04   8.4751041E+05   -1.8666754E+00
   1.1695910E-04   8.4025339E+05   -1.8662244E+00
   1.1749923E-04   8.3306025E+05   -1.8657725E+00
   1.1804185E-04   8.2593040E+05   -1.8653195E+00
   1.1858698E-04   8.1886329E+05   -1.8648656E+00
   1.1913463E-04   8.1185834E+05   -1.8644108E+00
   1.1968481E-04   8.0491501E+05   -1.8639550E+00
   1.2023752E-04   7.9803274E+05   -1.8634982E+00
   1.2079279E-04   7.9121098E+05   -1.8630405E+00
   1.2135063E-04   7.8444919E+05   -1.8625818E+00
   1.2191104E-04   7.7774684E+05   -1.8621222E+00
   1.2247403E-04   7.7110338E+05   -1.8616616E+00
   1.2303963E-04   7.6451830E+05   -1.8612001E+00
   1.2360784E-04   7.5799106E+05   -1.8607376E+00
   1.2417868E-04   7.5152116E+05   -1.8602742E+00
   1.2475215E-04   7.4510807E+05   -1.8598098E+00
   1.2532826E-04   7.3875129E+05   -1.8593445E+00
   1.2590704E-04   7.3245031E+05   -1.8588782E+00
   1.2648850E-04   7.2620464E+05   -1.8584110E+00
   1.2707263E-04   7.2001377E+05   -1.8579429E+00
   1.2765947E-04   7.1387723E+05   -1.8574739E+00
   1.2824901E-04   7.0779451E+05   -1.8570039E+00
   1.2884128E-04   7.0176515E+05   -1.8565330E+00
   1.2943628E-04   6.9578866E+05   -1.8560612E+00
   1.3003403E-04   6.8986457E+05   -1.8555884E+00
   1.3063454E-04   6.8399241E+05   -1.8551147E+00
   1.3123783E-04   6.7817171E+05   -1.8546401E+00
   1.3184390E-04   6.7240202E+05   -1.8541646E+00
   1.3245277E-04   6.6668288E+05   -1.8536882E+00
   1.3306445E-04   6.6101384E+05   -1.8532108E+00
   1.3367895E-04   6.5539444E+05   -1.8527326E+00
   1.3429630E-04   6.4982425E+05   -1.8522534E+00
   1.3491649E-04   6.4430282E+05   -1.8517734E+00
   1.3553955E-04   6.3882972E+05   -1.8512924E+00
   1.3616548E-04   6.3340452E+05   -1.8508105E+00
   1.3679431E-04   6.2802679E+05   -1.8503278E+00
   1.3742604E-04   6.2269610E+05   -1.8498441E+00
   1.3806069E-04   6.1741204E+05   -1.8493596E+00
   1.3869827E-04   6.1217418E+05   -1.8488742E+00
   1.3933879E-04   6.0698212E+05   -1.8483879E+00
   1.3998227E-04   6.0183544E+05   -1.8479007E+00
   1.4062872E-04   5.9673374E+05   -1.8474126E+00
   1.4127816E-04   5.9167663E+05   -1.8469236E+00
   1.4193060E-04   5.8666369E+05   -1.8464338E+00
   1.4258605E-04   5.8169453E+05   -1.8459431E+00
   1.4324453E-04   5.7676877E+05   -1.8454515E+00
   1.4390605E-04   5.7188602E+05   -1.8449591E+00
   1.4457062E-04   5.6704590E+05   -1.8444658E+00
   1.4523826E-04   5.6224802E+05   -1.8439716E+00
   1.4590899E-04   5.5749200E+05   -1.8434766E+00
   1.4658281E-04   5.5277747E+05   -1.8429808E+00
   1.4725974E-04   5.4810407E+05   -1.8424840E+00
   1.4793981E-04   5.4347143E+05   -1.8419865E+00
   1.4862301E-04   5.3887917E+05   -1.8414881E+00
   1.4930936E-04   5.3432695E+05   -1.8409888E+00
   1.4999889E-04   5.2981440E+05   -1.8404887E+00
   1.5069160E-04   5.2534118E+05   -1.8399878E+00
   1.5138751E-04   5.2090692E+05   -1.8394860E+00
   1.5208663E-04   5.1651129E+05   -1.8389835E+00
   1.5278899E-04   5.1215393E+05   -1.8384800E+00
   1.5349458E-04   5.0783452E+05   -1.8379758E+00
   1.5420343E-04   5.0355271E+05   -1.8374708E+00
   1.5491556E-04   4.9930816E+05   -1.8369649E+00
   1.5563098E-04   4.9510054E+05   -1.8364582E+00
   1.5634970E-04   4.9092953E+05   -1.8359507E+00
   1.5707174E-04   4.8679479E+05   -1.8354424E+00
   1.5779711E-04   4.8269601E+05   -1.8349334E+00
   1.5852584E-04   4.7863287E+05   -1.8344235E+00
   1.5925792E-04   4.7460504E+05   -1.8339128E+00
   1.5999339E-04   4.7061222E+05   -1.8334013E+00
   1.6073226E-04   4.6665409E+05   -1.8328890E+00
   1.6147454E-04   4.6273034E+05   -1.8323760E+00
   1.6222024E-04   4.5884067E+05   -1.8318622E+00
   1.6296939E-04   4.5498477E+05   -1.8313476E+00
   1.6372200E-04   4.5116235E+05   -1.8308322E+00
   1.6447809E-04   4.4737310E+05   -1.8303161E+00
   1.6523767E-04   4.4361674E+05   -1.8297992E+00
   1.6600075E-04   4.3989296E+05   -1.8292815E+00
   1.6676736E-04   4.3620148E+05   -1.8287631E+00
   1.6753751E-04   4.3254202E+05   -1.8282439E+00
   1.6831122E-04   4.2891428E+05   -1.8277240E+00
   1.6908849E-04   4.2531799E+05   -1.8272033E+00
   1.6986936E-04   4.2175286E+05   -1.8266819E+00
   1.7065384E-04   4.1821862E+05   -1.8261597E+00
   1.7144193E-04   4.1471500E+05   -1.8256368E+00
   1.7223367E-04   4.1124172E+05   -1.8251132E+00
   1.7302906E-04   4.0779851E+05   -1.8245889E+00
   1.7382813E-04   4.0438511E+05   -1.8240638E+00
   1.7463089E-04   4.0100126E+05   -1.8235380E+00
   1.7543735E-04   3.9764668E+05   -1.8230116E+00
   1.7624754E-04   3.9432112E+05   -1.8224844E+00
   1.7706147E-04   3.9102433E+05   -1.8219564E+00
   1.7787916E-04   3.8775604E+05   -1.8214278E+00
   1.7870062E-04   3.8451601E+05   -1.8208985E+00
   1.7952588E-04   3.8130398E+05   -1.8203685E+00
   1.8035495E-04   3.7811970E+05   -1.8198379E+00
   1.8118785E-04   3.7496294E+05   -1.8193065E+00
   1.8202459E-04   3.7183343E+05   -1.8187744E+00
   1.8286520E-04   3.6873096E+05   -1.8182417E+00
   1.8370969E-04   3.6565527E+05   -1.8177083E+00
   1.8455808E-04   3.6260612E+05   -1.8171743E+00
   1.8541039E-04   3.5958329E+05   -1.8166395E+00
   1.8626663E-04   3.5658654E+05   -1.8161042E+00
   1.8712683E-04   3.5361563E+05   -1.8155681E+00
   1.8799100E-04   3.5067034E+05   -1.8150314E+00
   1.8885917E-04   3.4775045E+05   -1.8144941E+00
   1.8973134E-04   3.4485572E+05   -1.8139562E+00
   1.9060754E-04   3.4198593E+05   -1.8134176E+00
   1.9148778E-04   3.3914087E+05   -1.8128783E+00
   1.9237209E-04   3.3632031E+05   -1.8123385E+00
   1.9326049E-04   3.3352405E+05   -1.8117980E+00
   1.9415299E-04   3.3075185E+05   -1.8112569E+00
   1.9504960E-04   3.2800352E+05   -1.8107152E+00
   1.9595036E-04   3.2527883E+05   -1.8101729E+00
   1.9685528E-04   3.2257759E+05   -1.8096300E+00
   1.9776438E-04   3.1989957E+05   -1.8090865E+00
   1.9867768E-04   3.1724459E+05   -1.8085424E+00
   1.9959519E-04   3.1461243E+05   -1.8079977E+00
   2.0051694E-04   3.1200289E+05   -1.8074524E+00
   2.0144295E-04   3.0941577E+05   -1.8069066E+00
   2.0237324E-04   3.0685088E+05   -1.8063601E+00
   2.0330782E-04   3.0430802E+05   -1.8058131E+00
   2.0424671E-04   3.0178699E+05   -1.8052656E+00
   2.0518995E-04   2.9928760E+05   -1.8047175E+00
   2.0613754E-04   2.9680966E+05   -1.8041688E+00
   2.0708950E-04   2.9435298E+05   -1.8036196E+00
   2.0804586E-04   2.9191737E+05   -1.8030698E+00
   2.0900664E-04   2.8950265E+05   -1.8025195E+00
   2.0997185E-04   2.8710864E+05   -1.8019687E+00
   2.1094152E-04   2.8473514E+05   -1.8014174E+00
   2.1191567E-04   2.8238198E+05   -1.8008655E+00
   2.1289432E-04   2.8004898E+05   -1.8003131E+00
   2.1387749E-04   2.7773597E+05   -1.7997602E+00
   2.1486520E-04   2.7544276E+05   -1.7992067E+00
   2.1585747E-04   2.7316918E+05   -1.7986528E+00
   2.1685432E-04   2.7091506E+05   -1.7980984E+00
   2.1785578E-04   2.6868023E+05   -1.7975435E+00
   2.1886186E-04   2.6646451E+05   -1.7969881E+00
   2.1987259E-04   2.6426775E+05   -1.7964322E+00
   2.2088798E-04   2.6208976E+05   -1.7958759E+00
   2.2190807E-04   2.5993039E+05   -1.7953190E+00
   2.2293286E-04   2.5778948E+05   -1.7947617E+00
   2.2396239E-04   2.5566685E+05   -1.7942040E+00
   2.2499667E-04   2.5356236E+05   -1.7936458E+00
   2.2603573E-04   2.5147583E+05   -1.7930871E+00
   2.2707958E-04   2.4940712E+05   -1.7925280E+00
   2.2812826E-04   2.4735606E+05   -1.7919685E+00
   2.2918178E-04   2.4532250E+05   -1.7914085E+00
   2.3024017E-04   2.4330629E+05   -1.7908481E+00
   2.3130344E-04   2.4130727E+05   -1.7902873E+00
   2.3237162E-04   2.3932530E+05   -1.7897260E+00
   2.3344474E-04   2.3736021E+05   -1.7891644E+00
   2.3452281E-04   2.3541188E+05   -1.7886023E+00
   2.3560586E-04   2.3348014E+05   -1.7880399E+00
   2.3669392E-04   2.3156485E+05   -1.7874770E+00
   2.3778699E-04   2.2966587E+05   -1.7869138E+00
   2.3888512E-04   2.2778305E+05   -1.7863501E+00
   2.3998831E-04   2.2591626E+05   -1.7857861E+00
   2.4109661E-04   2.2406534E+05   -1.7852218E+00
   2.4221001E-04   2.2223017E+05   -1.7846570E+00
   2.4332857E-04   2.2041061E+05   -1.7840919E+00
   2.4445228E-04   2.1860651E+05   -1.7835264E+00
   2.4558119E-04   2.1681774E+05   -1.7829606E+00
   2.4671531E-04   2.1504417E+05   -1.7823945E+00
   2.4785467E-04   2.1328567E+05   -1.7818280E+00
   2.4899928E-04   2.1154209E+05   -1.7812612E+00
   2.5014919E-04   2.0981332E+05   -1.7806940E+00
   2.5130440E-04   2.0809922E+05   -1.7801265E+00
   2.5246495E-04   2.0639967E+05   -1.7795587E+00
   2.5363086E-04   2.0471453E+05   -1.7789906E+00
   2.5480216E-04   2.0304368E+05   -1.7784222E+00
   2.5597886E-04   2.0138699E+05   -1.7778535E+00
   2.5716100E-04   1.9974435E+05   -1.7772845E+00
   2.5834859E-04   1.9811562E+05   -1.7767152E+00
   2.5954168E-04   1.9650069E+05   -1.7761457E+00
   2.6074027E-04   1.9489944E+05   -1.7755758E+00
   2.6194439E-04   1.9331174E+05   -1.7750057E+00
   2.6315408E-04   1.9173748E+05   -1.7744354E+00
   2.6436935E-04   1.9017654E+05   -1.7738647E+00
   2.6559024E-04   1.8862880E+05   -1.7732939E+00
   2.6681676E-04   1.8709415E+05   -1.7727227E+00
   2.6804895E-04   1.8557248E+05   -1.7721514E+00
   2.6928683E-04   1.8406366E+05   -1.7715798E+00
   2.7053042E-04   1.8256760E+05   -1.7710079E+00
   2.7177976E-04   1.8108417E+05   -1.7704359E+00
   2.7303487E-04   1.7961327E+05   -1.7698636E+00
   2.7429577E-04   1.7815478E+05   -1.7692912E+00
   2.7556250E-04   1.7670861E+05   -1.7687185E+00
   2.7683507E-04   1.7527464E+05   -1.7681456E+00
   2.7811353E-04   1.7385276E+05   -1.7675725E+00
   2.7939788E-04   1.7244287E+05   -1.7669993E+00
   2.8068817E-04   1.7104487E+05   -1.7664258E+00
   2.8198442E-04   1.6965865E+05   -1.7658522E+00
   2.8328665E-04   1.6828411E+05   -1.7652785E+00
   2.8459490E-04   1.6692115E+05   -1.7647045E+00
   2.8590919E-04   1.6556966E+05   -1.7641304E+00
   2.8722955E-04   1.6422955E+05   -1.7635562E+00
   2.8855600E-04   1.6290072E+05   -1.7629818E+00
   2.8988859E-04   1.6158307E+05   -1.7624073E+00
   2.9122732E-04   1.6027650E+05   -1.7618326E+00
   2.9257224E-04   1.5898092E+05   -1.7612578E+00
   2.9392337E-04   1.5769623E+05   -1.7606829E+00
   2.9528074E-04   1.5642233E+05   -1.7601079E+00
   2.9664438E-04   1.5515913E+05   -1.7595328E+00
   2.9801431E-04   1.5390655E+05   -1.7589575E+00
   2.9939057E-04   1.5266448E+05   -1.7583822E+00
   3.0077319E-04   1.5143283E+05   -1.7578068E+00
   3.0216219E-04   1.5021153E+05   -1.7572313E+00
   3.0355761E-04   1.4900046E+05   -1.7566557E+00
   3.0495947E-04   1.4779955E+05   -1.7560801E+00
   3.0636780E-04   1.4660871E+05   -1.7555044E+00
   3.0778264E-04   1.4542785E+05   -1.7549286E+00
   3.0920401E-04   1.4425689E+05   -1.7543528E+00
   3.1063195E-04   1.4309573E+05   -1.7537769E+00
   3.1206648E-04   1.4194429E+05   -1.7532010E+00
   3.1350764E-04   1.4080250E+05   -1.7526250E+00
   3.1495545E-04   1.3967025E+05   -1.7520491E+00
   3.1640994E-04   1.3854749E+05   -1.7514731E+00
   3.1787116E-04   1.3743411E+05   -1.7508971E+00
   3.1933912E-04   1.3633004E+05   -1.7503210E+00
   3.2081386E-04   1.3523520E+05   -1.7497450E+00
   3.2229541E-04   1.3414951E+05   -1.7491690E+00
   3.2378381E-04   1.3307288E+05   -1.7485930E+00
   3.2527908E-04   1.3200525E+05   -1.7480170E+00
   3.2678125E-04   1.3094653E+05   -1.7474410E+00
   3.2829036E-04   1.2989665E+05   -1.7468650E+00
   3.2980644E-04   1.2885553E+05   -1.7462891E+00
   3.3132952E-04   1.2782309E+05   -1.7457132E+00
   3.3285963E-04   1.2679925E+05   -1.7451374E+00
   3.3439681E-04   1.2578396E+05   -1.7445616E+00
   3.3594109E-04   1.2477712E+05   -1.7439859E+00
   3.3749250E-04   1.2377867E+05   -1.7434102E+00
   3.3905108E-04   1.2278854E+05   -1.7428346E+00
   3.4061685E-04   1.2180665E+05   -1.7422591E+00
   3.4218986E-04   1.2083293E+05   -1.7416837E+00
   3.4377013E-04   1.1986732E+05   -1.7411083E+00
   3.4535769E-04   1.1890973E+05   -1.7405330E+00
   3.4695259E-04   1.1796011E+05   -1.7399579E+00
   3.4855485E-04   1.1701838E+05   -1.7393828E+00
   3.5016452E-04   1.1608448E+05   -1.7388079E+00
   3.5178161E-04   1.1515833E+05   -1.7382331E+00
   3.5340618E-04   1.1423988E+05   -1.7376584E+00
   3.5503824E-04   1.1332905E+05   -1.7370838E+00
   3.5667785E-04   1.1242578E+05   -1.7365094E+00
   3.5832502E-04   1.1153001E+05   -1.7359351E+00
   3.5997981E-04   1.1064167E+05   -1.7353609E+00
   3.6164223E-04   1.0976069E+05   -1.7347869E+00
   3.6331233E-04   1.0888702E+05   -1.7342131E+00
   3.6499015E-04   1.0802058E+05   -1.7336394E+00
   3.6667571E-04   1.0716132E+05   -1.7330659E+00
   3.6836906E-04   1.0630918E+05   -1.7324926E+00
   3.7007022E-04   1.0546410E+05   -1.7319195E+00
   3.7177925E-04   1.0462600E+05   -1.7313466E+00
   3.7349616E-04   1.0379484E+05   -1.7307738E+00
   3.7522101E-04   1.0297056E+05   -1.7302013E+00
   3.7695382E-04   1.0215309E+05   -1.7296289E+00
   3.7869463E-04   1.0134238E+05   -1.7290568E+00
   3.8044348E-04   1.0053837E+05   -1.7284849E+00
   3.8220041E-04   9.9740996E+04   -1.7279132E+00
   3.8396545E-04   9.8950209E+04   -1.7273418E+00
   3.8573864E-04   9.8165951E+04   -1.7267706E+00
   3.8752002E-04   9.7388164E+04   -1.7261996E+00
   3.8930963E-04   9.6616794E+04   -1.7256289E+00
   3.9110750E-04   9.5851786E+04   -1.7250585E+00
   3.9291368E-04   9.5093085E+04   -1.7244883E+00
   3.9472820E-04   9.4340637E+04   -1.7239184E+00
   3.9655109E-04   9.3594389E+04   -1.7233487E+00
   3.9838241E-04   9.2854287E+04   -1.7227793E+00
   4.0022218E-04   9.2120280E+04   -1.7222102E+00
   4.0207045E-04   9.1392314E+04   -1.7216414E+00
   4.0392725E-04   9.0670339E+04   -1.7210729E+00
   4.0579263E-04   8.9954302E+04   -1.7205047E+00
   4.0766662E-04   8.9244154E+04   -1.7199368E+00
   4.0954927E-04   8.8539844E+04   -1.7193693E+00
   4.1144061E-04   8.7841321E+04   -1.7188020E+00
   4.1334068E-04   8.7148538E+04   -1.7182351E+00
   4.1524953E-04   8.6461443E+04   -1.7176685E+00
   4.1716720E-04   8.5779990E+04   -1.7171022E+00
   4.1909372E-04   8.5104130E+04   -1.7165363E+00
   4.2102914E-04   8.4433815E+04   -1.7159707E+00
   4.2297350E-04   8.3768998E+04   -1.7154055E+00
   4.2492683E-04   8.3109631E+04   -1.7148406E+00
   4.2688919E-04   8.2455670E+04   -1.7142761E+00
   4.2886061E-04   8.1807067E+04   -1.7137120E+00
   4.3084113E-04   8.1163777E+04   -1.7131482E+00
   4.3283080E-04   8.0525754E+04   -1.7125849E+00
   4.3482966E-04   7.9892955E+04   -1.7120219E+00
   4.3683775E-04   7.9265333E+04   -1.7114593E+00
   4.3885511E-04   7.8642846E+04   -1.7108971E+00
   4.4088179E-04   7.8025449E+04   -1.7103353E+00
   4.4291783E-04   7.7413100E+04   -1.7097739E+00
   4.4496327E-04   7.6805754E+04   -1.7092130E+00
   4.4701816E-04   7.6203371E+04   -1.7086524E+00
   4.4908253E-04   7.5605907E+04   -1.7080923E+00
   4.5115644E-04   7.5013321E+04   -1.7075326E+00
   4.5323993E-04   7.4425572E+04   -1.7069734E+00
   4.5533304E-04   7.3842618E+04   -1.7064146E+00
   4.5743582E-04   7.3264419E+04   -1.7058562E+00
   4.5954830E-04   7.2690934E+04   -1.7052983E+00
   4.6167054E-04   7.2122123E+04   -1.7047409E+00
   4.6380259E-04   7.1557947E+04   -1.7041839E+00
   4.6594448E-04   7.0998367E+04   -1.7036274E+00
   4.6809626E-04   7.0443343E+04   -1.7030714E+00
   4.7025797E-04   6.9892836E+04   -1.7025158E+00
   4.7242967E-04   6.9346809E+04   -1.7019607E+00
   4.7461140E-04   6.8805224E+04   -1.7014061E+00
   4.7680321E-04   6.8268043E+04   -1.7008521E+00
   4.7900514E-04   6.7735229E+04   -1.7002985E+00
   4.8121723E-04   6.7206744E+04   -1.6997454E+00
   4.8343954E-04   6.6682553E+04   -1.6991928E+00
   4.8567212E-04   6.6162619E+04   -1.6986408E+00
   4.8791500E-04   6.5646905E+04   -1.6980892E+00
   4.9016825E-04   6.5135377E+04   -1.6975382E+00
   4.9243189E-04   6.4627999E+04   -1.6969877E+00
   4.9470600E-04   6.4124735E+04   -1.6964378E+00
   4.9699060E-04   6.3625552E+04   -1.6958884E+00
   4.9928575E-04   6.3130414E+04   -1.6953396E+00
   5.0159151E-04   6.2639288E+04   -1.6947913E+00
   5.0390791E-04   6.2152139E+04   -1.6942435E+00
   5.0623501E-04   6.1668935E+04   -1.6936963E+00
   5.0857286E-04   6.1189641E+04   -1.6931497E+00
   5.1092150E-04   6.0714225E+04   -1.6926037E+00
   5.1328099E-04   6.0242655E+04   -1.6920582E+00
   5.1565137E-04   5.9774898E+04   -1.6915133E+00
   5.1803270E-04   5.9310921E+04   -1.6909690E+00
   5.2042503E-04   5.8850693E+04   -1.6904253E+00
   5.2282841E-04   5.8394183E+04   -1.6898822E+00
   5.2524289E-04   5.7941358E+04   -1.6893397E+00
   5.2766851E-04   5.7492189E+04   -1.6887978E+00
   5.3010534E-04   5.7046644E+04   -1.6882565E+00
   5.3255342E-04   5.6604693E+04   -1.6877158E+00
   5.3501281E-04   5.6166306E+04   -1.6871757E+00
   5.3748356E-04   5.5731452E+04   -1.6866363E+00
   5.3996571E-04   5.5300103E+04   -1.6860975E+00
   5.4245933E-04   5.4872228E+04   -1.6855593E+00
   5.4496446E-04   5.4447799E+04   -1.6850217E+00
   5.4748117E-04   5.4026786E+04   -1.6844848E+00
   5.5000949E-04   5.3609162E+04   -1.6839486E+00
   5.5254949E-04   5.3194897E+04   -1.6834130E+00
   5.5510123E-04   5.2783964E+04   -1.6828780E+00
   5.5766474E-04   5.2376333E+04   -1.6823438E+00
   5.6024010E-04   5.1971979E+04   -1.6818101E+00
   5.6282734E-04   5.1570873E+04   -1.6812772E+00
   5.6542654E-04   5.1172989E+04   -1.6807449E+00
   5.6803774E-04   5.0778298E+04   -1.6802133E+00
   5.7066099E-04   5.0386775E+04   -1.6796824E+00
   5.7329637E-04   4.9998394E+04   -1.6791521E+00
   5.7594391E-04   4.9613127E+04   -1.6786226E+00
   5.7860368E-04   4.9230948E+04   -1.6780937E+00
   5.8127573E-04   4.8851833E+04   -1.6775656E+00
   5.8396012E-04   4.8475755E+04   -1.6770381E+00
   5.8665691E-04   4.8102689E+04   -1.6765114E+00
   5.8936616E-04   4.7732610E+04   -1.6759854E+00
   5.9208791E-04   4.7365493E+04   -1.6754601E+00
   5.9482223E-04   4.7001313E+04   -1.6749355E+00
   5.9756919E-04   4.6640046E+04   -1.6744116E+00
   6.0032882E-04   4.6281667E+04   -1.6738885E+00
   6.0310120E-04   4.5926152E+04   -1.6733661E+00
   6.0588639E-04   4.5573478E+04   -1.6728444E+00
   6.0868443E-04   4.5223621E+04   -1.6723234E+00
   6.1149540E-04   4.4876558E+04   -1.6718033E+00
   6.1431935E-04   4.4532264E+04   -1.6712838E+00
   6.1715634E-04   4.4190718E+04   -1.6707651E+00
   6.2000644E-04   4.3851896E+04   -1.6702472E+00
   6.2286969E-04   4.3515776E+04   -1.6697300E+00
