#        a       HoverH0(a)       dlogHdloga_of_a(a)
   1.0000000E-04   1.0371895E+06   -1.8678211E+00
   1.0046181E-04   1.0283028E+06   -1.8673726E+00
   1.0092575E-04   1.0194945E+06   -1.8669231E+00
   1.0139184E-04   1.0107636E+06   -1.8664726E+00
   1.0186008E-04   1.0021097E+06   -1.8660212E+00
   1.0233048E-04   9.9353185E+05   -1.8655688E+00
   1.0280305E-04   9.8502951E+05   -1.8651155E+00
   1.0327781E-04   9.7660198E+05   -1.8646612E+00
   1.0375475E-04   9.6824858E+05   -1.8642059E+00
   1.0423390E-04   9.5996864E+05   -1.8637496E+00
   1.0471527E-04   9.5176151E+05   -1.8632925E+00
   1.0519885E-04   9.4362654E+05   -1.8628343E+00
   1.0568467E-04   9.3556308E+05   -1.8623752E+00
   1.0617274E-04   9.2757048E+05   -1.8619151E+00
   1.0666305E-04   9.1964812E+05   -1.8614541E+00
   1.0715563E-04   9.1179536E+05   -1.8609922E+00
   1.0765049E-04   9.0401159E+05   -1.8605293E+00
   1.0814763E-04   8.9629617E+05   -1.8600654E+00
   1.0864707E-04   8.8864851E+05   -1.8596006E+00
   1.0914881E-04   8.8106798E+05   -1.8591349E+00
   1.0965287E-04   8.7355400E+05   -1.8586683E+00
   1.1015926E-04   8.6610596E+05   -1.8582007E+00
   1.1066799E-04   8.5872328E+05   -1.8577321E+00
   1.1117906E-04   8.5140537E+05   -1.8572627E+00
   1.1169250E-04   8.4415164E+05   -1.8567923E+00
   1.1220831E-04   8.3696153E+05   -1.8563209E+00
   1.1272650E-04   8.2983447E+05   -1.8558487E+00
   1.1324708E-04   8.2276989E+05   -1.8553755E+00
   1.1377007E-04   8.1576723E+05   -1.8549014E+00
   1.1429547E-04   8.0882595E+05   -1.8544264E+00
   1.1482330E-04   8.0194548E+05   -1.8539505E+00
   1.1535356E-04   7.9512528E+05   -1.8534737E+00
   1.1588628E-04   7.8836483E+05   -1.8529959E+00
   1.1642145E-04   7.8166357E+05   -1.8525173E+00
   1.1695910E-04   7.7502099E+05   -1.8520377E+00
   1.1749923E-04   7.6843656E+05   -1.8515573E+00
   1.1804185E-04   7.6190975E+05   -1.8510759E+00
   1.1858698E-04   7.5544006E+05   -1.8505937E+00
   1.1913463E-04   7.4902697E+05   -1.8501105E+00
   1.1968481E-04   7.4266997E+05   -1.8496265E+00
   1.2023752E-04   7.3636857E+05   -1.8491415E+00
   1.2079279E-04   7.3012228E+05   -1.8486557E+00
   1.2135063E-04   7.2393059E+05   -1.8481690E+00
   1.2191104E-04   7.1779301E+05   -1.8476814E+00
   1.2247403E-04   7.1170908E+05   -1.8471929E+00
   1.2303963E-04   7.0567830E+05   -1.8467036E+00
   1.2360784E-04   6.9970020E+05   -1.8462134E+00
   1.2417868E-04   6.9377431E+05   -1.8457223E+00
   1.2475215E-04   6.8790017E+05   -1.8452304E+00
   1.2532826E-04   6.8207731E+05   -1.8447375E+00
   1.2590704E-04   6.7630527E+05   -1.8442439E+00
   1.2648850E-04   6.7058361E+05   -1.8437493E+00
   1.2707263E-04   6.6491187E+05   -1.8432539E+00
   1.2765947E-04   6.5928961E+05   -1.8427577E+00
   1.2824901E-04   6.5371638E+05   -1.8422606E+00
   1.2884128E-04   6.4819176E+05   -1.8417627E+00
   1.2943628E-04   6.4271529E+05   -1.8412639E+00
   1.3003403E-04   6.3728657E+05   -1.8407643E+00
   1.3063454E-04   6.3190515E+05   -1.8402638E+00
   1.3123783E-04   6.2657062E+05   -1.8397625E+00
   1.3184390E-04   6.2128256E+05   -1.8392604E+00
   1.3245277E-04   6.1604056E+05   -1.8387574E+00
   1.3306445E-04   6.1084420E+05   -1.8382537E+00
   1.3367895E-04   6.0569308E+05   -1.8377491E+00
   1.3429630E-04   6.0058680E+05   -1.8372437E+00
   1.3491649E-04   5.9552495E+05   -1.8367374E+00
   1.3553955E-04   5.9050714E+05   -1.8362304E+00
   1.3616548E-04   5.8553299E+05   -1.8357226E+00
   1.3679431E-04   5.8060209E+05   -1.8352139E+00
   1.3742604E-04   5.7571407E+05   -1.8347045E+00
   1.3806069E-04   5.7086854E+05   -1.8341942E+00
   1.3869827E-04   5.6606512E+05   -1.8336832E+00
   1.3933879E-04   5.6130344E+05   -1.8331714E+00
   1.3998227E-04   5.5658313E+05   -1.8326588E+00
   1.4062872E-04   5.5190383E+05   -1.8321454E+00
   1.4127816E-04   5.4726515E+05   -1.8316312E+00
   1.4193060E-04   5.4266675E+05   -1.8311163E+00
   1.4258605E-04   5.3810827E+05   -1.8306006E+00
   1.4324453E-04   5.3358934E+05   -1.8300841E+00
   1.4390605E-04   5.2910963E+05   -1.8295669E+00
   1.4457062E-04   5.2466878E+05   -1.8290489E+00
   1.4523826E-04   5.2026644E+05   -1.8285301E+00
   1.4590899E-04   5.1590228E+05   -1.8280106E+00
   1.4658281E-04   5.1157594E+05   -1.8274903E+00
   1.4725974E-04   5.0728711E+05   -1.8269693E+00
   1.4793981E-04   5.0303544E+05   -1.8264476E+00
   1.4862301E-04   4.9882060E+05   -1.8259251E+00
   1.4930936E-04   4.9464227E+05   -1.8254019E+00
   1.4999889E-04   4.9050012E+05   -1.8248780E+00
   1.5069160E-04   4.8639384E+05   -1.8243533E+00
   1.5138751E-04   4.8232310E+05   -1.8238280E+00
   1.5208663E-04   4.7828758E+05   -1.8233019E+00
   1.5278899E-04   4.7428698E+05   -1.8227751E+00
   1.5349458E-04   4.7032098E+05   -1.8222476E+00
   1.5420343E-04   4.6638929E+05   -1.8217194E+00
   1.5491556E-04   4.6249158E+05   -1.8211904E+00
   1.5563098E-04   4.5862757E+05   -1.8206608E+00
   1.5634970E-04   4.5479696E+05   -1.8201305E+00
   1.5707174E-04   4.5099944E+05   -1.8195996E+00
   1.5779711E-04   4.4723472E+05   -1.8190679E+00
   1.5852584E-04   4.4350252E+05   -1.8185355E+00
   1.5925792E-04   4.3980254E+05   -1.8180025E+00
   1.5999339E-04   4.3613450E+05   -1.8174688E+00
   1.6073226E-04   4.3249811E+05   -1.8169345E+00
   1.6147454E-04   4.2889311E+05   -1.8163995E+00
   1.6222024E-04   4.2531920E+05   -1.8158638E+00
   1.6296939E-04   4.2177611E+05   -1.8153275E+00
   1.6372200E-04   4.1826357E+05   -1.8147906E+00
   1.6447809E-04   4.1478132E+05   -1.8142530E+00
   1.6523767E-04   4.1132907E+05   -1.8137147E+00
   1.6600075E-04   4.0790657E+05   -1.8131758E+00
   1.6676736E-04   4.0451355E+05   -1.8126363E+00
   1.6753751E-04   4.0114975E+05   -1.8120962E+00
   1.6831122E-04   3.9781492E+05   -1.8115555E+00
   1.6908849E-04   3.9450879E+05   -1.8110141E+00
   1.6986936E-04   3.9123111E+05   -1.8104722E+00
   1.7065384E-04   3.8798163E+05   -1.8099296E+00
   1.7144193E-04   3.8476011E+05   -1.8093864E+00
   1.7223367E-04   3.8156629E+05   -1.8088426E+00
   1.7302906E-04   3.7839993E+05   -1.8082983E+00
   1.7382813E-04   3.7526079E+05   -1.8077534E+00
   1.7463089E-04   3.7214863E+05   -1.8072078E+00
   1.7543735E-04   3.6906320E+05   -1.8066617E+00
   1.7624754E-04   3.6600428E+05   -1.8061151E+00
   1.7706147E-04   3.6297162E+05   -1.8055678E+00
   1.7787916E-04   3.5996500E+05   -1.8050200E+00
   1.7870062E-04   3.5698419E+05   -1.8044717E+00
   1.7952588E-04   3.5402895E+05   -1.8039228E+00
   1.8035495E-04   3.5109907E+05   -1.8033733E+00
   1.8118785E-04   3.4819432E+05   -1.8028233E+00
   1.8202459E-04   3.4531447E+05   -1.8022728E+00
   1.8286520E-04   3.4245931E+05   -1.8017218E+00
   1.8370969E-04   3.3962862E+05   -1.8011702E+00
   1.8455808E-04   3.3682219E+05   -1.8006181E+00
   1.8541039E-04   3.3403980E+05   -1.8000655E+00
   1.8626663E-04   3.3128123E+05   -1.7995123E+00
   1.8712683E-04   3.2854629E+05   -1.7989587E+00
   1.8799100E-04   3.2583475E+05   -1.7984046E+00
   1.8885917E-04   3.2314642E+05   -1.7978499E+00
   1.8973134E-04   3.2048109E+05   -1.7972948E+00
   1.9060754E-04   3.1783855E+05   -1.7967392E+00
   1.9148778E-04   3.1521861E+05   -1.7961831E+00
   1.9237209E-04   3.1262107E+05   -1.7956266E+00
   1.9326049E-04   3.1004573E+05   -1.7950696E+00
   1.9415299E-04   3.0749239E+05   -1.7945121E+00
   1.9504960E-04   3.0496087E+05   -1.7939541E+00
   1.9595036E-04   3.0245096E+05   -1.7933957E+00
   1.9685528E-04   2.9996248E+05   -1.7928369E+00
   1.9776438E-04   2.9749525E+05   -1.7922776E+00
   1.9867768E-04   2.9504907E+05   -1.7917179E+00
   1.9959519E-04   2.9262375E+05   -1.7911577E+00
   2.0051694E-04   2.9021913E+05   -1.7905972E+00
   2.0144295E-04   2.8783500E+05   -1.7900362E+00
   2.0237324E-04   2.8547120E+05   -1.7894747E+00
   2.0330782E-04   2.8312755E+05   -1.7889129E+00
   2.0424671E-04   2.8080386E+05   -1.7883507E+00
   2.0518995E-04   2.7849997E+05   -1.7877881E+00
   2.0613754E-04   2.7621569E+05   -1.7872251E+00
   2.0708950E-04   2.7395086E+05   -1.7866617E+00
   2.0804586E-04   2.7170531E+05   -1.7860979E+00
   2.0900664E-04   2.6947886E+05   -1.7855337E+00
   2.0997185E-04   2.6727136E+05   -1.7849692E+00
   2.1094152E-04   2.6508262E+05   -1.7844043E+00
   2.1191567E-04   2.6291250E+05   -1.7838391E+00
   2.1289432E-04   2.6076082E+05   -1.7832734E+00
   2.1387749E-04   2.5862742E+05   -1.7827075E+00
   2.1486520E-04   2.5651215E+05   -1.7821412E+00
   2.1585747E-04   2.5441484E+05   -1.7815746E+00
   2.1685432E-04   2.5233534E+05   -1.7810076E+00
   2.1785578E-04   2.5027349E+05   -1.7804403E+00
   2.1886186E-04   2.4822913E+05   -1.7798727E+00
   2.1987259E-04   2.4620212E+05   -1.7793048E+00
   2.2088798E-04   2.4419230E+05   -1.7787366E+00
   2.2190807E-04   2.4219952E+05   -1.7781681E+00
   2.2293286E-04   2.4022364E+05   -1.7775993E+00
   2.2396239E-04   2.3826450E+05   -1.7770301E+00
   2.2499667E-04   2.3632195E+05   -1.7764608E+00
   2.2603573E-04   2.3439586E+05   -1.7758911E+00
   2.2707958E-04   2.3248608E+05   -1.7753211E+00
   2.2812826E-04   2.3059246E+05   -1.7747509E+00
   2.2918178E-04   2.2871486E+05   -1.7741805E+00
   2.3024017E-04   2.2685316E+05   -1.7736097E+00
   2.3130344E-04   2.2500719E+05   -1.7730388E+00
   2.3237162E-04   2.2317684E+05   -1.7724675E+00
   2.3344474E-04   2.2136196E+05   -1.7718961E+00
   2.3452281E-04   2.1956241E+05   -1.7713244E+00
   2.3560586E-04   2.1777807E+05   -1.7707525E+00
   2.3669392E-04   2.1600880E+05   -1.7701804E+00
   2.3778699E-04   2.1425447E+05   -1.7696080E+00
   2.3888512E-04   2.1251494E+05   -1.7690355E+00
   2.3998831E-04   2.1079010E+05   -1.7684627E+00
   2.4109661E-04   2.0907980E+05   -1.7678898E+00
   2.4221001E-04   2.0738393E+05   -1.7673167E+00
   2.4332857E-04   2.0570236E+05   -1.7667433E+00
   2.4445228E-04   2.0403496E+05   -1.7661698E+00
   2.4558119E-04   2.0238162E+05   -1.7655962E+00
   2.4671531E-04   2.0074220E+05   -1.7650223E+00
   2.4785467E-04   1.9911659E+05   -1.7644483E+00
   2.4899928E-04   1.9750466E+05   -1.7638742E+00
   2.5014919E-04   1.9590631E+05   -1.7632999E+00
   2.5130440E-04   1.9432140E+05   -1.7627255E+00
   2.5246495E-04   1.9274982E+05   -1.7621509E+00
   2.5363086E-04   1.9119146E+05   -1.7615762E+00
   2.5480216E-04   1.8964621E+05   -1.7610014E+00
   2.5597886E-04   1.8811393E+05   -1.7604265E+00
   2.5716100E-04   1.8659454E+05   -1.7598514E+00
   2.5834859E-04   1.8508791E+05   -1.7592763E+00
   2.5954168E-04   1.8359392E+05   -1.7587010E+00
   2.6074027E-04   1.8211248E+05   -1.7581257E+00
   2.6194439E-04   1.8064348E+05   -1.7575502E+00
   2.6315408E-04   1.7918679E+05   -1.7569747E+00
   2.6436935E-04   1.7774233E+05   -1.7563991E+00
   2.6559024E-04   1.7630998E+05   -1.7558235E+00
   2.6681676E-04   1.7488963E+05   -1.7552478E+00
   2.6804895E-04   1.7348119E+05   -1.7546720E+00
   2.6928683E-04   1.7208454E+05   -1.7540962E+00
   2.7053042E-04   1.7069960E+05   -1.7535203E+00
   2.7177976E-04   1.6932624E+05   -1.7529444E+00
   2.7303487E-04   1.6796439E+05   -1.7523685E+00
   2.7429577E-04   1.6661392E+05   -1.7517925E+00
   2.7556250E-04   1.6527476E+05   -1.7512165E+00
   2.7683507E-04   1.6394679E+05   -1.7506405E+00
   2.7811353E-04   1.6262993E+05   -1.7500645E+00
   2.7939788E-04   1.6132407E+05   -1.7494885E+00
   2.8068817E-04   1.6002912E+05   -1.7489125E+00
   2.8198442E-04   1.5874498E+05   -1.7483365E+00
   2.8328665E-04   1.5747157E+05   -1.7477606E+00
   2.8459490E-04   1.5620879E+05   -1.7471846E+00
   2.8590919E-04   1.5495655E+05   -1.7466087E+00
   2.8722955E-04   1.5371475E+05   -1.7460328E+00
   2.8855600E-04   1.5248331E+05   -1.7454570E+00
   2.8988859E-04   1.5126213E+05   -1.7448812E+00
   2.9122732E-04   1.5005114E+05   -1.7443054E+00
   2.9257224E-04   1.4885023E+05   -1.7437298E+00
   2.9392337E-04   1.4765933E+05   -1.7431541E+00
   2.9528074E-04   1.4647834E+05   -1.7425786E+00
   2.9664438E-04   1.4530718E+05   -1.7420031E+00
   2.9801431E-04   1.4414577E+05   -1.7414278E+00
   2.9939057E-04   1.4299402E+05   -1.7408525E+00
   3.0077319E-04   1.4185185E+05   -1.7402773E+00
   3.0216219E-04   1.4071918E+05   -1.7397022E+00
   3.0355761E-04   1.3959592E+05   -1.7391272E+00
   3.0495947E-04   1.3848199E+05   -1.7385524E+00
   3.0636780E-04   1.3737732E+05   -1.7379776E+00
   3.0778264E-04   1.3628182E+05   -1.7374030E+00
   3.0920401E-04   1.3519541E+05   -1.7368285E+00
   3.1063195E-04   1.3411802E+05   -1.7362542E+00
   3.1206648E-04   1.3304956E+05   -1.7356800E+00
   3.1350764E-04   1.3198997E+05   -1.7351059E+00
   3.1495545E-04   1.3093916E+05   -1.7345320E+00
   3.1640994E-04   1.2989706E+05   -1.7339583E+00
   3.1787116E-04   1.2886360E+05   -1.7333847E+00
   3.1933912E-04   1.2783870E+05   -1.7328113E+00
   3.2081386E-04   1.2682228E+05   -1.7322381E+00
   3.2229541E-04   1.2581427E+05   -1.7316651E+00
   3.2378381E-04   1.2481461E+05   -1.7310923E+00
   3.2527908E-04   1.2382322E+05   -1.7305197E+00
   3.2678125E-04   1.2284002E+05   -1.7299472E+00
   3.2829036E-04   1.2186495E+05   -1.7293750E+00
   3.2980644E-04   1.2089795E+05   -1.7288030E+00
   3.3132952E-04   1.1993893E+05   -1.7282313E+00
   3.3285963E-04   1.1898783E+05   -1.7276597E+00
   3.3439681E-04   1.1804458E+05   -1.7270884E+00
   3.3594109E-04   1.1710912E+05   -1.7265173E+00
   3.3749250E-04   1.1618138E+05   -1.7259465E+00
   3.3905108E-04   1.1526129E+05   -1.7253760E+00
   3.4061685E-04   1.1434879E+05   -1.7248057E+00
   3.4218986E-04   1.1344381E+05   -1.7242356E+00
   3.4377013E-04   1.1254629E+05   -1.7236658E+00
   3.4535769E-04   1.1165616E+05   -1.7230963E+00
   3.4695259E-04   1.1077337E+05   -1.7225271E+00
   3.4855485E-04   1.0989784E+05   -1.7219582E+00
   3.5016452E-04   1.0902951E+05   -1.7213895E+00
   3.5178161E-04   1.0816833E+05   -1.7208212E+00
   3.5340618E-04   1.0731424E+05   -1.7202532E+00
   3.5503824E-04   1.0646716E+05   -1.7196855E+00
   3.5667785E-04   1.0562705E+05   -1.7191180E+00
   3.5832502E-04   1.0479384E+05   -1.7185510E+00
   3.5997981E-04   1.0396748E+05   -1.7179842E+00
   3.6164223E-04   1.0314790E+05   -1.7174178E+00
   3.6331233E-04   1.0233505E+05   -1.7168517E+00
   3.6499015E-04   1.0152887E+05   -1.7162860E+00
   3.6667571E-04   1.0072930E+05   -1.7157206E+00
   3.6836906E-04   9.9936295E+04   -1.7151555E+00
   3.7007022E-04   9.9149786E+04   -1.7145909E+00
   3.7177925E-04   9.8369723E+04   -1.7140266E+00
   3.7349616E-04   9.7596051E+04   -1.7134626E+00
   3.7522101E-04   9.6828715E+04   -1.7128991E+00
   3.7695382E-04   9.6067661E+04   -1.7123359E+00
   3.7869463E-04   9.5312837E+04   -1.7117732E+00
   3.8044348E-04   9.4564189E+04   -1.7112108E+00
   3.8220041E-04   9.3821664E+04   -1.7106488E+00
   3.8396545E-04   9.3085210E+04   -1.7100872E+00
   3.8573864E-04   9.2354776E+04   -1.7095261E+00
   3.8752002E-04   9.1630311E+04   -1.7089653E+00
   3.8930963E-04   9.0911763E+04   -1.7084050E+00
   3.9110750E-04   9.0199083E+04   -1.7078451E+00
   3.9291368E-04   8.9492220E+04   -1.7072857E+00
   3.9472820E-04   8.8791125E+04   -1.7067267E+00
   3.9655109E-04   8.8095750E+04   -1.7061681E+00
   3.9838241E-04   8.7406046E+04   -1.7056100E+00
   4.0022218E-04   8.6721964E+04   -1.7050523E+00
   4.0207045E-04   8.6043457E+04   -1.7044951E+00
   4.0392725E-04   8.5370478E+04   -1.7039384E+00
   4.0579263E-04   8.4702980E+04   -1.7033821E+00
   4.0766662E-04   8.4040916E+04   -1.7028263E+00
   4.0954927E-04   8.3384240E+04   -1.7022710E+00
   4.1144061E-04   8.2732908E+04   -1.7017162E+00
   4.1334068E-04   8.2086872E+04   -1.7011619E+00
   4.1524953E-04   8.1446089E+04   -1.7006080E+00
   4.1716720E-04   8.0810514E+04   -1.7000547E+00
   4.1909372E-04   8.0180104E+04   -1.6995019E+00
   4.2102914E-04   7.9554814E+04   -1.6989496E+00
   4.2297350E-04   7.8934600E+04   -1.6983978E+00
   4.2492683E-04   7.8319422E+04   -1.6978465E+00
   4.2688919E-04   7.7709235E+04   -1.6972958E+00
   4.2886061E-04   7.7103997E+04   -1.6967456E+00
   4.3084113E-04   7.6503667E+04   -1.6961960E+00
   4.3283080E-04   7.5908204E+04   -1.6956468E+00
   4.3482966E-04   7.5317566E+04   -1.6950983E+00
   4.3683775E-04   7.4731712E+04   -1.6945503E+00
   4.3885511E-04   7.4150602E+04   -1.6940028E+00
   4.4088179E-04   7.3574197E+04   -1.6934559E+00
   4.4291783E-04   7.3002456E+04   -1.6929096E+00
   4.4496327E-04   7.2435340E+04   -1.6923638E+00
   4.4701816E-04   7.1872810E+04   -1.6918187E+00
   4.4908253E-04   7.1314828E+04   -1.6912741E+00
   4.5115644E-04   7.0761356E+04   -1.6907301E+00
   4.5323993E-04   7.0212355E+04   -1.6901867E+00
   4.5533304E-04   6.9667787E+04   -1.6896439E+00
   4.5743582E-04   6.9127616E+04   -1.6891017E+00
   4.5954830E-04   6.8591805E+04   -1.6885601E+00
   4.6167054E-04   6.8060316E+04   -1.6880191E+00
   4.6380259E-04   6.7533114E+04   -1.6874787E+00
   4.6594448E-04   6.7010162E+04   -1.6869390E+00
   4.6809626E-04   6.6491426E+04   -1.6863999E+00
   4.7025797E-04   6.5976868E+04   -1.6858614E+00
   4.7242967E-04   6.5466455E+04   -1.6853235E+00
   4.7461140E-04   6.4960151E+04   -1.6847863E+00
   4.7680321E-04   6.4457923E+04   -1.6842497E+00
   4.7900514E-04   6.3959735E+04   -1.6837138E+00
   4.8121723E-04   6.3465555E+04   -1.6831785E+00
   4.8343954E-04   6.2975348E+04   -1.6826439E+00
   4.8567212E-04   6.2489081E+04   -1.6821100E+00
   4.8791500E-04   6.2006722E+04   -1.6815767E+00
   4.9016825E-04   6.1528237E+04   -1.6810441E+00
   4.9243189E-04   6.1053594E+04   -1.6805122E+00
   4.9470600E-04   6.0582760E+04   -1.6799809E+00
   4.9699060E-04   6.0115705E+04   -1.6794503E+00
   4.9928575E-04   5.9652396E+04   -1.6789205E+00
   5.0159151E-04   5.9192803E+04   -1.6783913E+00
   5.0390791E-04   5.8736893E+04   -1.6778628E+00
   5.0623501E-04   5.8284637E+04   -1.6773350E+00
   5.0857286E-04   5.7836003E+04   -1.6768079E+00
   5.1092150E-04   5.7390962E+04   -1.6762815E+00
   5.1328099E-04   5.6949484E+04   -1.6757559E+00
   5.1565137E-04   5.6511538E+04   -1.6752309E+00
   5.1803270E-04   5.6077096E+04   -1.6747067E+00
   5.2042503E-04   5.5646128E+04   -1.6741832E+00
   5.2282841E-04   5.5218605E+04   -1.6736604E+00
   5.2524289E-04   5.4794499E+04   -1.6731384E+00
   5.2766851E-04   5.4373781E+04   -1.6726171E+00
   5.3010534E-04   5.3956422E+04   -1.6720965E+00
   5.3255342E-04   5.3542396E+04   -1.6715767E+00
   5.3501281E-04   5.3131673E+04   -1.6710577E+00
   5.3748356E-04   5.2724227E+04   -1.6705394E+00
   5.3996571E-04   5.2320031E+04   -1.6700218E+00
   5.4245933E-04   5.1919057E+04   -1.6695050E+00
   5.4496446E-04   5.1521278E+04   -1.6689890E+00
   5.4748117E-04   5.1126669E+04   -1.6684738E+00
   5.5000949E-04   5.0735202E+04   -1.6679593E+00
   5.5254949E-04   5.0346852E+04   -1.6674456E+00
   5.5510123E-04   4.9961593E+04   -1.6669327E+00
   5.5766474E-04   4.9579399E+04   -1.6664205E+00
   5.6024010E-04   4.9200245E+04   -1.6659092E+00
   5.6282734E-04   4.8824105E+04   -1.6653986E+00
   5.6542654E-04   4.8450954E+04   -1.6648888E+00
   5.6803774E-04   4.8080768E+04   -1.6643799E+00
   5.7066099E-04   4.7713523E+04   -1.6638717E+00
   5.7329637E-04   4.7349193E+04   -1.6633643E+00
   5.7594391E-04   4.6987755E+04   -1.6628578E+00
   5.7860368E-04   4.6629185E+04   -1.6623520E+00
   5.8127573E-04   4.6273459E+04   -1.6618471E+00
   5.8396012E-04   4.5920553E+04   -1.6613430E+00
   5.8665691E-04   4.5570445E+04   -1.6608397E+00
   5.8936616E-04   4.5223110E+04   -1.6603372E+00
   5.9208791E-04   4.4878527E+04   -1.6598356E+00
   5.9482223E-04   4.4536672E+04   -1.6593348E+00
   5.9756919E-04   4.4197523E+04   -1.6588348E+00
   6.0032882E-04   4.3861058E+04   -1.6583357E+00
   6.0310120E-04   4.3527254E+04   -1.6578374E+00
   6.0588639E-04   4.3196090E+04   -1.6573400E+00
   6.0868443E-04   4.2867543E+04   -1.6568434E+00
   6.1149540E-04   4.2541593E+04   -1.6563476E+00
   6.1431935E-04   4.2218217E+04   -1.6558527E+00
   6.1715634E-04   4.1897395E+04   -1.6553587E+00
   6.2000644E-04   4.1579106E+04   -1.6548655E+00
   6.2286969E-04   4.1263328E+04   -1.6543732E+00
