#        a       HoverH0(a)       dlogHdloga_of_a(a)
   1.0000000E-04   1.0375741E+06   -1.8598679E+00
   1.0046181E-04   1.0287219E+06   -1.8594027E+00
   1.0092575E-04   1.0199474E+06   -1.8589366E+00
   1.0139184E-04   1.0112500E+06   -1.8584696E+00
   1.0186008E-04   1.0026288E+06   -1.8580016E+00
   1.0233048E-04   9.9408336E+05   -1.8575326E+00
   1.0280305E-04   9.8561283E+05   -1.8570628E+00
   1.0327781E-04   9.7721660E+05   -1.8565920E+00
   1.0375475E-04   9.6889400E+05   -1.8561203E+00
   1.0423390E-04   9.6064437E+05   -1.8556476E+00
   1.0471527E-04   9.5246706E+05   -1.8551741E+00
   1.0519885E-04   9.4436141E+05   -1.8546996E+00
   1.0568467E-04   9.3632680E+05   -1.8542242E+00
   1.0617274E-04   9.2836258E+05   -1.8537479E+00
   1.0666305E-04   9.2046812E+05   -1.8532707E+00
   1.0715563E-04   9.1264281E+05   -1.8527926E+00
   1.0765049E-04   9.0488601E+05   -1.8523135E+00
   1.0814763E-04   8.9719713E+05   -1.8518336E+00
   1.0864707E-04   8.8957555E+05   -1.8513528E+00
   1.0914881E-04   8.8202067E+05   -1.8508710E+00
   1.0965287E-04   8.7453189E+05   -1.8503884E+00
   1.1015926E-04   8.6710863E+05   -1.8499049E+00
   1.1066799E-04   8.5975029E+05   -1.8494204E+00
   1.1117906E-04   8.5245630E+05   -1.8489351E+00
   1.1169250E-04   8.4522608E+05   -1.8484489E+00
   1.1220831E-04   8.3805907E+05   -1.8479619E+00
   1.1272650E-04   8.3095469E+05   -1.8474739E+00
   1.1324708E-04   8.2391240E+05   -1.8469851E+00
   1.1377007E-04   8.1693163E+05   -1.8464954E+00
   1.1429547E-04   8.1001183E+05   -1.8460048E+00
   1.1482330E-04   8.0315247E+05   -1.8455133E+00
   1.1535356E-04   7.9635300E+05   -1.8450210E+00
   1.1588628E-04   7.8961288E+05   -1.8445278E+00
   1.1642145E-04   7.8293159E+05   -1.8440338E+00
   1.1695910E-04   7.7630860E+05   -1.8435389E+00
   1.1749923E-04   7.6974340E+05   -1.8430431E+00
   1.1804185E-04   7.6323546E+05   -1.8425465E+00
   1.1858698E-04   7.5678428E+05   -1.8420491E+00
   1.1913463E-04   7.5038934E+05   -1.8415508E+00
   1.1968481E-04   7.4405015E+05   -1.8410516E+00
   1.2023752E-04   7.3776622E+05   -1.8405517E+00
   1.2079279E-04   7.3153704E+05   -1.8400509E+00
   1.2135063E-04   7.2536214E+05   -1.8395492E+00
   1.2191104E-04   7.1924102E+05   -1.8390468E+00
   1.2247403E-04   7.1317320E+05   -1.8385435E+00
   1.2303963E-04   7.0715822E+05   -1.8380393E+00
   1.2360784E-04   7.0119560E+05   -1.8375344E+00
   1.2417868E-04   6.9528487E+05   -1.8370286E+00
   1.2475215E-04   6.8942558E+05   -1.8365221E+00
   1.2532826E-04   6.8361726E+05   -1.8360147E+00
   1.2590704E-04   6.7785946E+05   -1.8355065E+00
   1.2648850E-04   6.7215173E+05   -1.8349976E+00
   1.2707263E-04   6.6649362E+05   -1.8344878E+00
   1.2765947E-04   6.6088470E+05   -1.8339772E+00
   1.2824901E-04   6.5532452E+05   -1.8334658E+00
   1.2884128E-04   6.4981266E+05   -1.8329537E+00
   1.2943628E-04   6.4434867E+05   -1.8324408E+00
   1.3003403E-04   6.3893215E+05   -1.8319270E+00
   1.3063454E-04   6.3356265E+05   -1.8314125E+00
   1.3123783E-04   6.2823977E+05   -1.8308973E+00
   1.3184390E-04   6.2296309E+05   -1.8303812E+00
   1.3245277E-04   6.1773220E+05   -1.8298645E+00
   1.3306445E-04   6.1254669E+05   -1.8293469E+00
   1.3367895E-04   6.0740616E+05   -1.8288286E+00
   1.3429630E-04   6.0231020E+05   -1.8283095E+00
   1.3491649E-04   5.9725844E+05   -1.8277897E+00
   1.3553955E-04   5.9225046E+05   -1.8272691E+00
   1.3616548E-04   5.8728588E+05   -1.8267478E+00
   1.3679431E-04   5.8236432E+05   -1.8262258E+00
   1.3742604E-04   5.7748539E+05   -1.8257030E+00
   1.3806069E-04   5.7264872E+05   -1.8251795E+00
   1.3869827E-04   5.6785393E+05   -1.8246552E+00
   1.3933879E-04   5.6310065E+05   -1.8241303E+00
   1.3998227E-04   5.5838850E+05   -1.8236046E+00
   1.4062872E-04   5.5371713E+05   -1.8230782E+00
   1.4127816E-04   5.4908617E+05   -1.8225511E+00
   1.4193060E-04   5.4449526E+05   -1.8220233E+00
   1.4258605E-04   5.3994406E+05   -1.8214948E+00
   1.4324453E-04   5.3543220E+05   -1.8209656E+00
   1.4390605E-04   5.3095933E+05   -1.8204357E+00
   1.4457062E-04   5.2652512E+05   -1.8199051E+00
   1.4523826E-04   5.2212922E+05   -1.8193738E+00
   1.4590899E-04   5.1777129E+05   -1.8188419E+00
   1.4658281E-04   5.1345099E+05   -1.8183093E+00
   1.4725974E-04   5.0916799E+05   -1.8177760E+00
   1.4793981E-04   5.0492195E+05   -1.8172420E+00
   1.4862301E-04   5.0071256E+05   -1.8167074E+00
   1.4930936E-04   4.9653948E+05   -1.8161721E+00
   1.4999889E-04   4.9240240E+05   -1.8156362E+00
   1.5069160E-04   4.8830100E+05   -1.8150996E+00
   1.5138751E-04   4.8423495E+05   -1.8145624E+00
   1.5208663E-04   4.8020395E+05   -1.8140245E+00
   1.5278899E-04   4.7620769E+05   -1.8134860E+00
   1.5349458E-04   4.7224586E+05   -1.8129469E+00
   1.5420343E-04   4.6831815E+05   -1.8124071E+00
   1.5491556E-04   4.6442427E+05   -1.8118667E+00
   1.5563098E-04   4.6056391E+05   -1.8113257E+00
   1.5634970E-04   4.5673677E+05   -1.8107841E+00
   1.5707174E-04   4.5294257E+05   -1.8102419E+00
   1.5779711E-04   4.4918101E+05   -1.8096991E+00
   1.5852584E-04   4.4545181E+05   -1.8091556E+00
   1.5925792E-04   4.4175467E+05   -1.8086116E+00
   1.5999339E-04   4.3808931E+05   -1.8080670E+00
   1.6073226E-04   4.3445546E+05   -1.8075219E+00
   1.6147454E-04   4.3085283E+05   -1.8069761E+00
   1.6222024E-04   4.2728115E+05   -1.8064298E+00
   1.6296939E-04   4.2374015E+05   -1.8058829E+00
   1.6372200E-04   4.2022956E+05   -1.8053354E+00
   1.6447809E-04   4.1674910E+05   -1.8047874E+00
   1.6523767E-04   4.1329851E+05   -1.8042388E+00
   1.6600075E-04   4.0987752E+05   -1.8036897E+00
   1.6676736E-04   4.0648588E+05   -1.8031400E+00
   1.6753751E-04   4.0312333E+05   -1.8025898E+00
   1.6831122E-04   3.9978961E+05   -1.8020390E+00
   1.6908849E-04   3.9648446E+05   -1.8014877E+00
   1.6986936E-04   3.9320764E+05   -1.8009360E+00
   1.7065384E-04   3.8995889E+05   -1.8003836E+00
   1.7144193E-04   3.8673797E+05   -1.7998308E+00
   1.7223367E-04   3.8354462E+05   -1.7992775E+00
   1.7302906E-04   3.8037862E+05   -1.7987236E+00
   1.7382813E-04   3.7723972E+05   -1.7981693E+00
   1.7463089E-04   3.7412767E+05   -1.7976145E+00
   1.7543735E-04   3.7104224E+05   -1.7970591E+00
   1.7624754E-04   3.6798320E+05   -1.7965033E+00
   1.7706147E-04   3.6495032E+05   -1.7959471E+00
   1.7787916E-04   3.6194336E+05   -1.7953903E+00
   1.7870062E-04   3.5896210E+05   -1.7948331E+00
   1.7952588E-04   3.5600631E+05   -1.7942754E+00
   1.8035495E-04   3.5307576E+05   -1.7937173E+00
   1.8118785E-04   3.5017024E+05   -1.7931587E+00
   1.8202459E-04   3.4728952E+05   -1.7925997E+00
   1.8286520E-04   3.4443339E+05   -1.7920402E+00
   1.8370969E-04   3.4160163E+05   -1.7914803E+00
   1.8455808E-04   3.3879402E+05   -1.7909200E+00
   1.8541039E-04   3.3601036E+05   -1.7903592E+00
   1.8626663E-04   3.3325043E+05   -1.7897981E+00
   1.8712683E-04   3.3051403E+05   -1.7892365E+00
   1.8799100E-04   3.2780094E+05   -1.7886745E+00
   1.8885917E-04   3.2511097E+05   -1.7881121E+00
   1.8973134E-04   3.2244390E+05   -1.7875493E+00
   1.9060754E-04   3.1979955E+05   -1.7869862E+00
   1.9148778E-04   3.1717770E+05   -1.7864226E+00
   1.9237209E-04   3.1457817E+05   -1.7858587E+00
   1.9326049E-04   3.1200075E+05   -1.7852944E+00
   1.9415299E-04   3.0944526E+05   -1.7847297E+00
   1.9504960E-04   3.0691149E+05   -1.7841646E+00
   1.9595036E-04   3.0439927E+05   -1.7835993E+00
   1.9685528E-04   3.0190839E+05   -1.7830335E+00
   1.9776438E-04   2.9943868E+05   -1.7824674E+00
   1.9867768E-04   2.9698995E+05   -1.7819010E+00
   1.9959519E-04   2.9456201E+05   -1.7813342E+00
   2.0051694E-04   2.9215468E+05   -1.7807671E+00
   2.0144295E-04   2.8976779E+05   -1.7801997E+00
   2.0237324E-04   2.8740114E+05   -1.7796320E+00
   2.0330782E-04   2.8505457E+05   -1.7790640E+00
   2.0424671E-04   2.8272790E+05   -1.7784956E+00
   2.0518995E-04   2.8042096E+05   -1.7779270E+00
   2.0613754E-04   2.7813357E+05   -1.7773580E+00
   2.0708950E-04   2.7586556E+05   -1.7767888E+00
   2.0804586E-04   2.7361676E+05   -1.7762193E+00
   2.0900664E-04   2.7138701E+05   -1.7756495E+00
   2.0997185E-04   2.6917613E+05   -1.7750795E+00
   2.1094152E-04   2.6698397E+05   -1.7745092E+00
   2.1191567E-04   2.6481035E+05   -1.7739386E+00
   2.1289432E-04   2.6265512E+05   -1.7733678E+00
   2.1387749E-04   2.6051812E+05   -1.7727967E+00
   2.1486520E-04   2.5839919E+05   -1.7722254E+00
   2.1585747E-04   2.5629816E+05   -1.7716539E+00
   2.1685432E-04   2.5421489E+05   -1.7710821E+00
   2.1785578E-04   2.5214921E+05   -1.7705101E+00
   2.1886186E-04   2.5010098E+05   -1.7699379E+00
   2.1987259E-04   2.4807005E+05   -1.7693655E+00
   2.2088798E-04   2.4605625E+05   -1.7687928E+00
   2.2190807E-04   2.4405944E+05   -1.7682200E+00
   2.2293286E-04   2.4207948E+05   -1.7676470E+00
   2.2396239E-04   2.4011622E+05   -1.7670738E+00
   2.2499667E-04   2.3816950E+05   -1.7665004E+00
   2.2603573E-04   2.3623920E+05   -1.7659268E+00
   2.2707958E-04   2.3432515E+05   -1.7653531E+00
   2.2812826E-04   2.3242723E+05   -1.7647792E+00
   2.2918178E-04   2.3054529E+05   -1.7642052E+00
   2.3024017E-04   2.2867920E+05   -1.7636310E+00
   2.3130344E-04   2.2682881E+05   -1.7630566E+00
   2.3237162E-04   2.2499398E+05   -1.7624821E+00
   2.3344474E-04   2.2317459E+05   -1.7619075E+00
   2.3452281E-04   2.2137050E+05   -1.7613328E+00
   2.3560586E-04   2.1958158E+05   -1.7607579E+00
   2.3669392E-04   2.1780768E+05   -1.7601830E+00
   2.3778699E-04   2.1604869E+05   -1.7596079E+00
   2.3888512E-04   2.1430448E+05   -1.7590327E+00
   2.3998831E-04   2.1257491E+05   -1.7584574E+00
   2.4109661E-04   2.1085985E+05   -1.7578820E+00
   2.4221001E-04   2.0915919E+05   -1.7573066E+00
   2.4332857E-04   2.0747279E+05   -1.7567310E+00
   2.4445228E-04   2.0580054E+05   -1.7561554E+00
   2.4558119E-04   2.0414231E+05   -1.7555798E+00
   2.4671531E-04   2.0249797E+05   -1.7550040E+00
   2.4785467E-04   2.0086741E+05   -1.7544282E+00
   2.4899928E-04   1.9925052E+05   -1.7538524E+00
   2.5014919E-04   1.9764716E+05   -1.7532765E+00
   2.5130440E-04   1.9605722E+05   -1.7527006E+00
   2.5246495E-04   1.9448059E+05   -1.7521247E+00
   2.5363086E-04   1.9291715E+05   -1.7515487E+00
   2.5480216E-04   1.9136679E+05   -1.7509727E+00
   2.5597886E-04   1.8982939E+05   -1.7503968E+00
   2.5716100E-04   1.8830484E+05   -1.7498208E+00
   2.5834859E-04   1.8679303E+05   -1.7492448E+00
   2.5954168E-04   1.8529385E+05   -1.7486688E+00
   2.6074027E-04   1.8380718E+05   -1.7480928E+00
   2.6194439E-04   1.8233294E+05   -1.7475169E+00
   2.6315408E-04   1.8087099E+05   -1.7469409E+00
   2.6436935E-04   1.7942124E+05   -1.7463651E+00
   2.6559024E-04   1.7798359E+05   -1.7457892E+00
   2.6681676E-04   1.7655792E+05   -1.7452134E+00
   2.6804895E-04   1.7514414E+05   -1.7446376E+00
   2.6928683E-04   1.7374214E+05   -1.7440619E+00
   2.7053042E-04   1.7235182E+05   -1.7434863E+00
   2.7177976E-04   1.7097308E+05   -1.7429107E+00
   2.7303487E-04   1.6960582E+05   -1.7423352E+00
   2.7429577E-04   1.6824994E+05   -1.7417598E+00
   2.7556250E-04   1.6690534E+05   -1.7411845E+00
   2.7683507E-04   1.6557192E+05   -1.7406092E+00
   2.7811353E-04   1.6424959E+05   -1.7400341E+00
   2.7939788E-04   1.6293826E+05   -1.7394591E+00
   2.8068817E-04   1.6163782E+05   -1.7388841E+00
   2.8198442E-04   1.6034819E+05   -1.7383093E+00
   2.8328665E-04   1.5906926E+05   -1.7377347E+00
   2.8459490E-04   1.5780096E+05   -1.7371601E+00
   2.8590919E-04   1.5654318E+05   -1.7365857E+00
   2.8722955E-04   1.5529584E+05   -1.7360114E+00
   2.8855600E-04   1.5405885E+05   -1.7354373E+00
   2.8988859E-04   1.5283211E+05   -1.7348633E+00
   2.9122732E-04   1.5161554E+05   -1.7342895E+00
   2.9257224E-04   1.5040905E+05   -1.7337159E+00
   2.9392337E-04   1.4921256E+05   -1.7331424E+00
   2.9528074E-04   1.4802598E+05   -1.7325691E+00
   2.9664438E-04   1.4684922E+05   -1.7319960E+00
   2.9801431E-04   1.4568220E+05   -1.7314231E+00
   2.9939057E-04   1.4452483E+05   -1.7308503E+00
   3.0077319E-04   1.4337704E+05   -1.7302778E+00
   3.0216219E-04   1.4223874E+05   -1.7297055E+00
   3.0355761E-04   1.4110985E+05   -1.7291334E+00
   3.0495947E-04   1.3999029E+05   -1.7285615E+00
   3.0636780E-04   1.3887998E+05   -1.7279898E+00
   3.0778264E-04   1.3777883E+05   -1.7274184E+00
   3.0920401E-04   1.3668678E+05   -1.7268472E+00
   3.1063195E-04   1.3560374E+05   -1.7262762E+00
   3.1206648E-04   1.3452963E+05   -1.7257055E+00
   3.1350764E-04   1.3346438E+05   -1.7251351E+00
   3.1495545E-04   1.3240792E+05   -1.7245649E+00
   3.1640994E-04   1.3136016E+05   -1.7239950E+00
   3.1787116E-04   1.3032104E+05   -1.7234254E+00
   3.1933912E-04   1.2929047E+05   -1.7228560E+00
   3.2081386E-04   1.2826839E+05   -1.7222869E+00
   3.2229541E-04   1.2725473E+05   -1.7217181E+00
   3.2378381E-04   1.2624940E+05   -1.7211496E+00
   3.2527908E-04   1.2525235E+05   -1.7205814E+00
   3.2678125E-04   1.2426350E+05   -1.7200135E+00
   3.2829036E-04   1.2328277E+05   -1.7194460E+00
   3.2980644E-04   1.2231011E+05   -1.7188787E+00
   3.3132952E-04   1.2134543E+05   -1.7183118E+00
   3.3285963E-04   1.2038868E+05   -1.7177452E+00
   3.3439681E-04   1.1943978E+05   -1.7171789E+00
   3.3594109E-04   1.1849868E+05   -1.7166130E+00
   3.3749250E-04   1.1756529E+05   -1.7160474E+00
   3.3905108E-04   1.1663956E+05   -1.7154822E+00
   3.4061685E-04   1.1572142E+05   -1.7149173E+00
   3.4218986E-04   1.1481081E+05   -1.7143528E+00
   3.4377013E-04   1.1390766E+05   -1.7137887E+00
   3.4535769E-04   1.1301190E+05   -1.7132249E+00
   3.4695259E-04   1.1212349E+05   -1.7126616E+00
   3.4855485E-04   1.1124234E+05   -1.7120986E+00
   3.5016452E-04   1.1036841E+05   -1.7115360E+00
   3.5178161E-04   1.0950162E+05   -1.7109738E+00
   3.5340618E-04   1.0864193E+05   -1.7104120E+00
   3.5503824E-04   1.0778926E+05   -1.7098506E+00
   3.5667785E-04   1.0694356E+05   -1.7092897E+00
   3.5832502E-04   1.0610477E+05   -1.7087291E+00
   3.5997981E-04   1.0527283E+05   -1.7081690E+00
   3.6164223E-04   1.0444768E+05   -1.7076093E+00
   3.6331233E-04   1.0362927E+05   -1.7070500E+00
   3.6499015E-04   1.0281754E+05   -1.7064912E+00
   3.6667571E-04   1.0201242E+05   -1.7059329E+00
   3.6836906E-04   1.0121387E+05   -1.7053750E+00
   3.7007022E-04   1.0042183E+05   -1.7048175E+00
   3.7177925E-04   9.9636248E+04   -1.7042605E+00
   3.7349616E-04   9.8857061E+04   -1.7037040E+00
   3.7522101E-04   9.8084219E+04   -1.7031479E+00
   3.7695382E-04   9.7317668E+04   -1.7025924E+00
   3.7869463E-04   9.6557355E+04   -1.7020373E+00
   3.8044348E-04   9.5803227E+04   -1.7014827E+00
   3.8220041E-04   9.5055232E+04   -1.7009286E+00
   3.8396545E-04   9.4313318E+04   -1.7003750E+00
   3.8573864E-04   9.3577432E+04   -1.6998219E+00
   3.8752002E-04   9.2847525E+04   -1.6992693E+00
   3.8930963E-04   9.2123546E+04   -1.6987173E+00
   3.9110750E-04   9.1405444E+04   -1.6981657E+00
   3.9291368E-04   9.0693171E+04   -1.6976147E+00
   3.9472820E-04   8.9986676E+04   -1.6970642E+00
   3.9655109E-04   8.9285910E+04   -1.6965143E+00
   3.9838241E-04   8.8590827E+04   -1.6959648E+00
   4.0022218E-04   8.7901377E+04   -1.6954160E+00
   4.0207045E-04   8.7217513E+04   -1.6948677E+00
   4.0392725E-04   8.6539188E+04   -1.6943199E+00
   4.0579263E-04   8.5866355E+04   -1.6937727E+00
   4.0766662E-04   8.5198968E+04   -1.6932261E+00
   4.0954927E-04   8.4536982E+04   -1.6926800E+00
   4.1144061E-04   8.3880349E+04   -1.6921345E+00
   4.1334068E-04   8.3229026E+04   -1.6915896E+00
   4.1524953E-04   8.2582968E+04   -1.6910453E+00
   4.1716720E-04   8.1942130E+04   -1.6905016E+00
   4.1909372E-04   8.1306468E+04   -1.6899584E+00
   4.2102914E-04   8.0675939E+04   -1.6894159E+00
   4.2297350E-04   8.0050500E+04   -1.6888740E+00
   4.2492683E-04   7.9430108E+04   -1.6883327E+00
   4.2688919E-04   7.8814721E+04   -1.6877920E+00
   4.2886061E-04   7.8204296E+04   -1.6872519E+00
   4.3084113E-04   7.7598792E+04   -1.6867124E+00
   4.3283080E-04   7.6998167E+04   -1.6861736E+00
   4.3482966E-04   7.6402380E+04   -1.6856354E+00
   4.3683775E-04   7.5811392E+04   -1.6850978E+00
   4.3885511E-04   7.5225161E+04   -1.6845609E+00
   4.4088179E-04   7.4643648E+04   -1.6840246E+00
   4.4291783E-04   7.4066813E+04   -1.6834890E+00
   4.4496327E-04   7.3494617E+04   -1.6829540E+00
   4.4701816E-04   7.2927021E+04   -1.6824197E+00
   4.4908253E-04   7.2363987E+04   -1.6818861E+00
   4.5115644E-04   7.1805475E+04   -1.6813531E+00
   4.5323993E-04   7.1251450E+04   -1.6808208E+00
   4.5533304E-04   7.0701872E+04   -1.6802892E+00
   4.5743582E-04   7.0156706E+04   -1.6797582E+00
   4.5954830E-04   6.9615913E+04   -1.6792279E+00
   4.6167054E-04   6.9079457E+04   -1.6786984E+00
   4.6380259E-04   6.8547303E+04   -1.6781695E+00
   4.6594448E-04   6.8019413E+04   -1.6776413E+00
   4.6809626E-04   6.7495753E+04   -1.6771139E+00
   4.7025797E-04   6.6976287E+04   -1.6765871E+00
   4.7242967E-04   6.6460980E+04   -1.6760610E+00
   4.7461140E-04   6.5949798E+04   -1.6755357E+00
   4.7680321E-04   6.5442706E+04   -1.6750111E+00
   4.7900514E-04   6.4939669E+04   -1.6744872E+00
   4.8121723E-04   6.4440655E+04   -1.6739640E+00
   4.8343954E-04   6.3945629E+04   -1.6734416E+00
   4.8567212E-04   6.3454559E+04   -1.6729199E+00
   4.8791500E-04   6.2967411E+04   -1.6723989E+00
   4.9016825E-04   6.2484153E+04   -1.6718787E+00
   4.9243189E-04   6.2004753E+04   -1.6713592E+00
   4.9470600E-04   6.1529177E+04   -1.6708405E+00
   4.9699060E-04   6.1057395E+04   -1.6703226E+00
   4.9928575E-04   6.0589375E+04   -1.6698054E+00
   5.0159151E-04   6.0125086E+04   -1.6692889E+00
   5.0390791E-04   5.9664496E+04   -1.6687732E+00
   5.0623501E-04   5.9207575E+04   -1.6682583E+00
   5.0857286E-04   5.8754293E+04   -1.6677442E+00
   5.1092150E-04   5.8304619E+04   -1.6672309E+00
   5.1328099E-04   5.7858523E+04   -1.6667183E+00
   5.1565137E-04   5.7415976E+04   -1.6662065E+00
   5.1803270E-04   5.6976949E+04   -1.6656955E+00
   5.2042503E-04   5.6541411E+04   -1.6651853E+00
   5.2282841E-04   5.6109334E+04   -1.6646759E+00
   5.2524289E-04   5.5680690E+04   -1.6641673E+00
   5.2766851E-04   5.5255449E+04   -1.6636595E+00
   5.3010534E-04   5.4833585E+04   -1.6631525E+00
   5.3255342E-04   5.4415068E+04   -1.6626463E+00
   5.3501281E-04   5.3999871E+04   -1.6621409E+00
   5.3748356E-04   5.3587967E+04   -1.6616364E+00
   5.3996571E-04   5.3179329E+04   -1.6611326E+00
   5.4245933E-04   5.2773929E+04   -1.6606297E+00
   5.4496446E-04   5.2371741E+04   -1.6601276E+00
   5.4748117E-04   5.1972738E+04   -1.6596264E+00
   5.5000949E-04   5.1576894E+04   -1.6591259E+00
   5.5254949E-04   5.1184183E+04   -1.6586264E+00
   5.5510123E-04   5.0794578E+04   -1.6581276E+00
   5.5766474E-04   5.0408056E+04   -1.6576297E+00
   5.6024010E-04   5.0024588E+04   -1.6571326E+00
   5.6282734E-04   4.9644152E+04   -1.6566364E+00
   5.6542654E-04   4.9266722E+04   -1.6561411E+00
   5.6803774E-04   4.8892272E+04   -1.6556466E+00
   5.7066099E-04   4.8520779E+04   -1.6551529E+00
   5.7329637E-04   4.8152218E+04   -1.6546601E+00
   5.7594391E-04   4.7786565E+04   -1.6541682E+00
   5.7860368E-04   4.7423796E+04   -1.6536771E+00
   5.8127573E-04   4.7063887E+04   -1.6531870E+00
   5.8396012E-04   4.6706815E+04   -1.6526977E+00
   5.8665691E-04   4.6352557E+04   -1.6522092E+00
   5.8936616E-04   4.6001089E+04   -1.6517217E+00
   5.9208791E-04   4.5652388E+04   -1.6512350E+00
   5.9482223E-04   4.5306433E+04   -1.6507492E+00
   5.9756919E-04   4.4963199E+04   -1.6502643E+00
   6.0032882E-04   4.4622665E+04   -1.6497803E+00
   6.0310120E-04   4.4284809E+04   -1.6492971E+00
   6.0588639E-04   4.3949609E+04   -1.6488149E+00
   6.0868443E-04   4.3617043E+04   -1.6483336E+00
   6.1149540E-04   4.3287089E+04   -1.6478531E+00
   6.1431935E-04   4.2959727E+04   -1.6473736E+00
   6.1715634E-04   4.2634934E+04   -1.6468950E+00
   6.2000644E-04   4.2312690E+04   -1.6464173E+00
   6.2286969E-04   4.1992974E+04   -1.6459405E+00
