#        a       HoverH0(a)       dlogHdloga_of_a(a)
   1.0000000E-04   1.1908066E+06   -1.8841696E+00
   1.0046181E-04   1.1805147E+06   -1.8837590E+00
   1.0092575E-04   1.1703141E+06   -1.8833475E+00
   1.0139184E-04   1.1602037E+06   -1.8829349E+00
   1.0186008E-04   1.1501829E+06   -1.8825212E+00
   1.0233048E-04   1.1402509E+06   -1.8821066E+00
   1.0280305E-04   1.1304067E+06   -1.8816910E+00
   1.0327781E-04   1.1206497E+06   -1.8812743E+00
   1.0375475E-04   1.1109790E+06   -1.8808567E+00
   1.0423390E-04   1.1013940E+06   -1.8804380E+00
   1.0471527E-04   1.0918937E+06   -1.8800184E+00
   1.0519885E-04   1.0824774E+06   -1.8795977E+00
   1.0568467E-04   1.0731445E+06   -1.8791760E+00
   1.0617274E-04   1.0638941E+06   -1.8787533E+00
   1.0666305E-04   1.0547254E+06   -1.8783296E+00
   1.0715563E-04   1.0456379E+06   -1.8779049E+00
   1.0765049E-04   1.0366307E+06   -1.8774792E+00
   1.0814763E-04   1.0277030E+06   -1.8770525E+00
   1.0864707E-04   1.0188543E+06   -1.8766248E+00
   1.0914881E-04   1.0100838E+06   -1.8761961E+00
   1.0965287E-04   1.0013907E+06   -1.8757664E+00
   1.1015926E-04   9.9277440E+05   -1.8753357E+00
   1.1066799E-04   9.8423420E+05   -1.8749040E+00
   1.1117906E-04   9.7576941E+05   -1.8744714E+00
   1.1169250E-04   9.6737936E+05   -1.8740377E+00
   1.1220831E-04   9.5906336E+05   -1.8736030E+00
   1.1272650E-04   9.5082076E+05   -1.8731673E+00
   1.1324708E-04   9.4265089E+05   -1.8727307E+00
   1.1377007E-04   9.3455311E+05   -1.8722931E+00
   1.1429547E-04   9.2652676E+05   -1.8718544E+00
   1.1482330E-04   9.1857120E+05   -1.8714148E+00
   1.1535356E-04   9.1068580E+05   -1.8709742E+00
   1.1588628E-04   9.0286992E+05   -1.8705326E+00
   1.1642145E-04   8.9512295E+05   -1.8700901E+00
   1.1695910E-04   8.8744426E+05   -1.8696465E+00
   1.1749923E-04   8.7983324E+05   -1.8692020E+00
   1.1804185E-04   8.7228928E+05   -1.8687565E+00
   1.1858698E-04   8.6481178E+05   -1.8683100E+00
   1.1913463E-04   8.5740015E+05   -1.8678625E+00
   1.1968481E-04   8.5005380E+05   -1.8674141E+00
   1.2023752E-04   8.4277213E+05   -1.8669647E+00
   1.2079279E-04   8.3555457E+05   -1.8665143E+00
   1.2135063E-04   8.2840054E+05   -1.8660630E+00
   1.2191104E-04   8.2130948E+05   -1.8656107E+00
   1.2247403E-04   8.1428081E+05   -1.8651574E+00
   1.2303963E-04   8.0731398E+05   -1.8647032E+00
   1.2360784E-04   8.0040843E+05   -1.8642480E+00
   1.2417868E-04   7.9356362E+05   -1.8637918E+00
   1.2475215E-04   7.8677900E+05   -1.8633347E+00
   1.2532826E-04   7.8005403E+05   -1.8628767E+00
   1.2590704E-04   7.7338817E+05   -1.8624176E+00
   1.2648850E-04   7.6678090E+05   -1.8619577E+00
   1.2707263E-04   7.6023169E+05   -1.8614967E+00
   1.2765947E-04   7.5374002E+05   -1.8610349E+00
   1.2824901E-04   7.4730538E+05   -1.8605720E+00
   1.2884128E-04   7.4092725E+05   -1.8601083E+00
   1.2943628E-04   7.3460512E+05   -1.8596436E+00
   1.3003403E-04   7.2833851E+05   -1.8591779E+00
   1.3063454E-04   7.2212690E+05   -1.8587113E+00
   1.3123783E-04   7.1596981E+05   -1.8582438E+00
   1.3184390E-04   7.0986674E+05   -1.8577754E+00
   1.3245277E-04   7.0381722E+05   -1.8573060E+00
   1.3306445E-04   6.9782077E+05   -1.8568357E+00
   1.3367895E-04   6.9187690E+05   -1.8563644E+00
   1.3429630E-04   6.8598516E+05   -1.8558923E+00
   1.3491649E-04   6.8014506E+05   -1.8554192E+00
   1.3553955E-04   6.7435616E+05   -1.8549452E+00
   1.3616548E-04   6.6861799E+05   -1.8544702E+00
   1.3679431E-04   6.6293010E+05   -1.8539944E+00
   1.3742604E-04   6.5729204E+05   -1.8535176E+00
   1.3806069E-04   6.5170336E+05   -1.8530400E+00
   1.3869827E-04   6.4616362E+05   -1.8525614E+00
   1.3933879E-04   6.4067239E+05   -1.8520819E+00
   1.3998227E-04   6.3522923E+05   -1.8516015E+00
   1.4062872E-04   6.2983371E+05   -1.8511202E+00
   1.4127816E-04   6.2448540E+05   -1.8506381E+00
   1.4193060E-04   6.1918388E+05   -1.8501550E+00
   1.4258605E-04   6.1392874E+05   -1.8496710E+00
   1.4324453E-04   6.0871956E+05   -1.8491861E+00
   1.4390605E-04   6.0355593E+05   -1.8487004E+00
   1.4457062E-04   5.9843744E+05   -1.8482138E+00
   1.4523826E-04   5.9336369E+05   -1.8477263E+00
   1.4590899E-04   5.8833428E+05   -1.8472379E+00
   1.4658281E-04   5.8334882E+05   -1.8467486E+00
   1.4725974E-04   5.7840691E+05   -1.8462584E+00
   1.4793981E-04   5.7350815E+05   -1.8457674E+00
   1.4862301E-04   5.6865218E+05   -1.8452756E+00
   1.4930936E-04   5.6383860E+05   -1.8447828E+00
   1.4999889E-04   5.5906703E+05   -1.8442892E+00
   1.5069160E-04   5.5433711E+05   -1.8437947E+00
   1.5138751E-04   5.4964846E+05   -1.8432994E+00
   1.5208663E-04   5.4500071E+05   -1.8428032E+00
   1.5278899E-04   5.4039350E+05   -1.8423062E+00
   1.5349458E-04   5.3582646E+05   -1.8418083E+00
   1.5420343E-04   5.3129924E+05   -1.8413096E+00
   1.5491556E-04   5.2681149E+05   -1.8408101E+00
   1.5563098E-04   5.2236284E+05   -1.8403097E+00
   1.5634970E-04   5.1795296E+05   -1.8398085E+00
   1.5707174E-04   5.1358149E+05   -1.8393064E+00
   1.5779711E-04   5.0924809E+05   -1.8388035E+00
   1.5852584E-04   5.0495243E+05   -1.8382998E+00
   1.5925792E-04   5.0069417E+05   -1.8377953E+00
   1.5999339E-04   4.9647297E+05   -1.8372899E+00
   1.6073226E-04   4.9228851E+05   -1.8367838E+00
   1.6147454E-04   4.8814045E+05   -1.8362768E+00
   1.6222024E-04   4.8402848E+05   -1.8357690E+00
   1.6296939E-04   4.7995227E+05   -1.8352605E+00
   1.6372200E-04   4.7591150E+05   -1.8347511E+00
   1.6447809E-04   4.7190587E+05   -1.8342409E+00
   1.6523767E-04   4.6793504E+05   -1.8337299E+00
   1.6600075E-04   4.6399873E+05   -1.8332182E+00
   1.6676736E-04   4.6009661E+05   -1.8327056E+00
   1.6753751E-04   4.5622838E+05   -1.8321923E+00
   1.6831122E-04   4.5239375E+05   -1.8316782E+00
   1.6908849E-04   4.4859241E+05   -1.8311633E+00
   1.6986936E-04   4.4482407E+05   -1.8306477E+00
   1.7065384E-04   4.4108843E+05   -1.8301313E+00
   1.7144193E-04   4.3738521E+05   -1.8296141E+00
   1.7223367E-04   4.3371411E+05   -1.8290961E+00
   1.7302906E-04   4.3007485E+05   -1.8285774E+00
   1.7382813E-04   4.2646715E+05   -1.8280580E+00
   1.7463089E-04   4.2289072E+05   -1.8275378E+00
   1.7543735E-04   4.1934530E+05   -1.8270169E+00
   1.7624754E-04   4.1583059E+05   -1.8264952E+00
   1.7706147E-04   4.1234634E+05   -1.8259728E+00
   1.7787916E-04   4.0889226E+05   -1.8254496E+00
   1.7870062E-04   4.0546810E+05   -1.8249257E+00
   1.7952588E-04   4.0207358E+05   -1.8244011E+00
   1.8035495E-04   3.9870845E+05   -1.8238758E+00
   1.8118785E-04   3.9537243E+05   -1.8233498E+00
   1.8202459E-04   3.9206528E+05   -1.8228230E+00
   1.8286520E-04   3.8878674E+05   -1.8222956E+00
   1.8370969E-04   3.8553655E+05   -1.8217674E+00
   1.8455808E-04   3.8231447E+05   -1.8212385E+00
   1.8541039E-04   3.7912023E+05   -1.8207090E+00
   1.8626663E-04   3.7595361E+05   -1.8201787E+00
   1.8712683E-04   3.7281434E+05   -1.8196478E+00
   1.8799100E-04   3.6970219E+05   -1.8191162E+00
   1.8885917E-04   3.6661692E+05   -1.8185839E+00
   1.8973134E-04   3.6355829E+05   -1.8180509E+00
   1.9060754E-04   3.6052606E+05   -1.8175173E+00
   1.9148778E-04   3.5752000E+05   -1.8169830E+00
   1.9237209E-04   3.5453988E+05   -1.8164480E+00
   1.9326049E-04   3.5158547E+05   -1.8159124E+00
   1.9415299E-04   3.4865653E+05   -1.8153762E+00
   1.9504960E-04   3.4575286E+05   -1.8148392E+00
   1.9595036E-04   3.4287421E+05   -1.8143017E+00
   1.9685528E-04   3.4002038E+05   -1.8137635E+00
   1.9776438E-04   3.3719113E+05   -1.8132247E+00
   1.9867768E-04   3.3438625E+05   -1.8126852E+00
   1.9959519E-04   3.3160554E+05   -1.8121451E+00
   2.0051694E-04   3.2884876E+05   -1.8116044E+00
   2.0144295E-04   3.2611572E+05   -1.8110631E+00
   2.0237324E-04   3.2340619E+05   -1.8105212E+00
   2.0330782E-04   3.2071999E+05   -1.8099787E+00
   2.0424671E-04   3.1805688E+05   -1.8094355E+00
   2.0518995E-04   3.1541668E+05   -1.8088918E+00
   2.0613754E-04   3.1279918E+05   -1.8083475E+00
   2.0708950E-04   3.1020418E+05   -1.8078026E+00
   2.0804586E-04   3.0763149E+05   -1.8072571E+00
   2.0900664E-04   3.0508089E+05   -1.8067110E+00
   2.0997185E-04   3.0255221E+05   -1.8061644E+00
   2.1094152E-04   3.0004524E+05   -1.8056172E+00
   2.1191567E-04   2.9755979E+05   -1.8050695E+00
   2.1289432E-04   2.9509568E+05   -1.8045211E+00
   2.1387749E-04   2.9265271E+05   -1.8039723E+00
   2.1486520E-04   2.9023070E+05   -1.8034229E+00
   2.1585747E-04   2.8782946E+05   -1.8028729E+00
   2.1685432E-04   2.8544882E+05   -1.8023224E+00
   2.1785578E-04   2.8308858E+05   -1.8017714E+00
   2.1886186E-04   2.8074857E+05   -1.8012198E+00
   2.1987259E-04   2.7842862E+05   -1.8006678E+00
   2.2088798E-04   2.7612853E+05   -1.8001152E+00
   2.2190807E-04   2.7384815E+05   -1.7995621E+00
   2.2293286E-04   2.7158729E+05   -1.7990085E+00
   2.2396239E-04   2.6934578E+05   -1.7984544E+00
   2.2499667E-04   2.6712345E+05   -1.7978998E+00
   2.2603573E-04   2.6492014E+05   -1.7973447E+00
   2.2707958E-04   2.6273568E+05   -1.7967891E+00
   2.2812826E-04   2.6056989E+05   -1.7962331E+00
   2.2918178E-04   2.5842262E+05   -1.7956765E+00
   2.3024017E-04   2.5629370E+05   -1.7951195E+00
   2.3130344E-04   2.5418297E+05   -1.7945621E+00
   2.3237162E-04   2.5209027E+05   -1.7940042E+00
   2.3344474E-04   2.5001545E+05   -1.7934458E+00
   2.3452281E-04   2.4795834E+05   -1.7928870E+00
   2.3560586E-04   2.4591879E+05   -1.7923277E+00
   2.3669392E-04   2.4389664E+05   -1.7917680E+00
   2.3778699E-04   2.4189175E+05   -1.7912079E+00
   2.3888512E-04   2.3990395E+05   -1.7906473E+00
   2.3998831E-04   2.3793311E+05   -1.7900863E+00
   2.4109661E-04   2.3597907E+05   -1.7895249E+00
   2.4221001E-04   2.3404168E+05   -1.7889631E+00
   2.4332857E-04   2.3212079E+05   -1.7884009E+00
   2.4445228E-04   2.3021627E+05   -1.7878383E+00
   2.4558119E-04   2.2832797E+05   -1.7872753E+00
   2.4671531E-04   2.2645574E+05   -1.7867119E+00
   2.4785467E-04   2.2459945E+05   -1.7861482E+00
   2.4899928E-04   2.2275896E+05   -1.7855840E+00
   2.5014919E-04   2.2093412E+05   -1.7850195E+00
   2.5130440E-04   2.1912480E+05   -1.7844546E+00
   2.5246495E-04   2.1733086E+05   -1.7838894E+00
   2.5363086E-04   2.1555217E+05   -1.7833238E+00
   2.5480216E-04   2.1378860E+05   -1.7827579E+00
   2.5597886E-04   2.1204000E+05   -1.7821916E+00
   2.5716100E-04   2.1030626E+05   -1.7816250E+00
   2.5834859E-04   2.0858724E+05   -1.7810580E+00
   2.5954168E-04   2.0688281E+05   -1.7804907E+00
   2.6074027E-04   2.0519284E+05   -1.7799231E+00
   2.6194439E-04   2.0351722E+05   -1.7793552E+00
   2.6315408E-04   2.0185580E+05   -1.7787870E+00
   2.6436935E-04   2.0020847E+05   -1.7782185E+00
   2.6559024E-04   1.9857510E+05   -1.7776497E+00
   2.6681676E-04   1.9695558E+05   -1.7770806E+00
   2.6804895E-04   1.9534978E+05   -1.7765112E+00
   2.6928683E-04   1.9375758E+05   -1.7759415E+00
   2.7053042E-04   1.9217886E+05   -1.7753716E+00
   2.7177976E-04   1.9061350E+05   -1.7748014E+00
   2.7303487E-04   1.8906139E+05   -1.7742309E+00
   2.7429577E-04   1.8752241E+05   -1.7736602E+00
   2.7556250E-04   1.8599645E+05   -1.7730892E+00
   2.7683507E-04   1.8448339E+05   -1.7725180E+00
   2.7811353E-04   1.8298312E+05   -1.7719465E+00
   2.7939788E-04   1.8149553E+05   -1.7713749E+00
   2.8068817E-04   1.8002051E+05   -1.7708029E+00
   2.8198442E-04   1.7855795E+05   -1.7702308E+00
   2.8328665E-04   1.7710773E+05   -1.7696585E+00
   2.8459490E-04   1.7566976E+05   -1.7690859E+00
   2.8590919E-04   1.7424392E+05   -1.7685132E+00
   2.8722955E-04   1.7283012E+05   -1.7679402E+00
   2.8855600E-04   1.7142823E+05   -1.7673671E+00
   2.8988859E-04   1.7003817E+05   -1.7667937E+00
   2.9122732E-04   1.6865982E+05   -1.7662202E+00
   2.9257224E-04   1.6729309E+05   -1.7656466E+00
   2.9392337E-04   1.6593787E+05   -1.7650727E+00
   2.9528074E-04   1.6459407E+05   -1.7644987E+00
   2.9664438E-04   1.6326158E+05   -1.7639246E+00
   2.9801431E-04   1.6194030E+05   -1.7633503E+00
   2.9939057E-04   1.6063015E+05   -1.7627758E+00
   3.0077319E-04   1.5933101E+05   -1.7622012E+00
   3.0216219E-04   1.5804281E+05   -1.7616265E+00
   3.0355761E-04   1.5676543E+05   -1.7610517E+00
   3.0495947E-04   1.5549879E+05   -1.7604767E+00
   3.0636780E-04   1.5424279E+05   -1.7599017E+00
   3.0778264E-04   1.5299734E+05   -1.7593265E+00
   3.0920401E-04   1.5176235E+05   -1.7587512E+00
   3.1063195E-04   1.5053773E+05   -1.7581759E+00
   3.1206648E-04   1.4932338E+05   -1.7576004E+00
   3.1350764E-04   1.4811922E+05   -1.7570249E+00
   3.1495545E-04   1.4692517E+05   -1.7564493E+00
   3.1640994E-04   1.4574113E+05   -1.7558736E+00
   3.1787116E-04   1.4456701E+05   -1.7552979E+00
   3.1933912E-04   1.4340273E+05   -1.7547221E+00
   3.2081386E-04   1.4224820E+05   -1.7541462E+00
   3.2229541E-04   1.4110335E+05   -1.7535703E+00
   3.2378381E-04   1.3996808E+05   -1.7529944E+00
   3.2527908E-04   1.3884231E+05   -1.7524184E+00
   3.2678125E-04   1.3772596E+05   -1.7518425E+00
   3.2829036E-04   1.3661896E+05   -1.7512664E+00
   3.2980644E-04   1.3552120E+05   -1.7506904E+00
   3.3132952E-04   1.3443263E+05   -1.7501144E+00
   3.3285963E-04   1.3335315E+05   -1.7495384E+00
   3.3439681E-04   1.3228270E+05   -1.7489623E+00
   3.3594109E-04   1.3122118E+05   -1.7483863E+00
   3.3749250E-04   1.3016853E+05   -1.7478103E+00
   3.3905108E-04   1.2912466E+05   -1.7472343E+00
   3.4061685E-04   1.2808951E+05   -1.7466584E+00
   3.4218986E-04   1.2706299E+05   -1.7460825E+00
   3.4377013E-04   1.2604503E+05   -1.7455066E+00
   3.4535769E-04   1.2503556E+05   -1.7449308E+00
   3.4695259E-04   1.2403451E+05   -1.7443550E+00
   3.4855485E-04   1.2304179E+05   -1.7437793E+00
   3.5016452E-04   1.2205735E+05   -1.7432036E+00
   3.5178161E-04   1.2108110E+05   -1.7426280E+00
   3.5340618E-04   1.2011297E+05   -1.7420525E+00
   3.5503824E-04   1.1915291E+05   -1.7414771E+00
   3.5667785E-04   1.1820083E+05   -1.7409018E+00
   3.5832502E-04   1.1725667E+05   -1.7403266E+00
   3.5997981E-04   1.1632036E+05   -1.7397514E+00
   3.6164223E-04   1.1539183E+05   -1.7391764E+00
   3.6331233E-04   1.1447102E+05   -1.7386015E+00
   3.6499015E-04   1.1355786E+05   -1.7380267E+00
   3.6667571E-04   1.1265228E+05   -1.7374521E+00
   3.6836906E-04   1.1175421E+05   -1.7368775E+00
   3.7007022E-04   1.1086360E+05   -1.7363031E+00
   3.7177925E-04   1.0998038E+05   -1.7357289E+00
   3.7349616E-04   1.0910448E+05   -1.7351548E+00
   3.7522101E-04   1.0823585E+05   -1.7345808E+00
   3.7695382E-04   1.0737441E+05   -1.7340071E+00
   3.7869463E-04   1.0652011E+05   -1.7334334E+00
   3.8044348E-04   1.0567289E+05   -1.7328600E+00
   3.8220041E-04   1.0483269E+05   -1.7322868E+00
   3.8396545E-04   1.0399944E+05   -1.7317137E+00
   3.8573864E-04   1.0317308E+05   -1.7311408E+00
   3.8752002E-04   1.0235356E+05   -1.7305681E+00
   3.8930963E-04   1.0154082E+05   -1.7299957E+00
   3.9110750E-04   1.0073480E+05   -1.7294234E+00
   3.9291368E-04   9.9935435E+04   -1.7288513E+00
   3.9472820E-04   9.9142678E+04   -1.7282795E+00
   3.9655109E-04   9.8356469E+04   -1.7277079E+00
   3.9838241E-04   9.7576752E+04   -1.7271365E+00
   4.0022218E-04   9.6803471E+04   -1.7265654E+00
   4.0207045E-04   9.6036570E+04   -1.7259945E+00
   4.0392725E-04   9.5275996E+04   -1.7254239E+00
   4.0579263E-04   9.4521694E+04   -1.7248535E+00
   4.0766662E-04   9.3773609E+04   -1.7242834E+00
   4.0954927E-04   9.3031690E+04   -1.7237136E+00
   4.1144061E-04   9.2295883E+04   -1.7231440E+00
   4.1334068E-04   9.1566136E+04   -1.7225748E+00
   4.1524953E-04   9.0842397E+04   -1.7220058E+00
   4.1716720E-04   9.0124614E+04   -1.7214371E+00
   4.1909372E-04   8.9412737E+04   -1.7208687E+00
   4.2102914E-04   8.8706715E+04   -1.7203006E+00
   4.2297350E-04   8.8006499E+04   -1.7197328E+00
   4.2492683E-04   8.7312038E+04   -1.7191653E+00
   4.2688919E-04   8.6623284E+04   -1.7185981E+00
   4.2886061E-04   8.5940187E+04   -1.7180313E+00
   4.3084113E-04   8.5262700E+04   -1.7174648E+00
   4.3283080E-04   8.4590774E+04   -1.7168987E+00
   4.3482966E-04   8.3924362E+04   -1.7163329E+00
   4.3683775E-04   8.3263418E+04   -1.7157674E+00
   4.3885511E-04   8.2607894E+04   -1.7152023E+00
   4.4088179E-04   8.1957743E+04   -1.7146375E+00
   4.4291783E-04   8.1312922E+04   -1.7140732E+00
   4.4496327E-04   8.0673383E+04   -1.7135092E+00
   4.4701816E-04   8.0039082E+04   -1.7129455E+00
   4.4908253E-04   7.9409975E+04   -1.7123823E+00
   4.5115644E-04   7.8786017E+04   -1.7118195E+00
   4.5323993E-04   7.8167164E+04   -1.7112570E+00
   4.5533304E-04   7.7553373E+04   -1.7106949E+00
   4.5743582E-04   7.6944601E+04   -1.7101333E+00
   4.5954830E-04   7.6340805E+04   -1.7095721E+00
   4.6167054E-04   7.5741943E+04   -1.7090112E+00
   4.6380259E-04   7.5147973E+04   -1.7084508E+00
   4.6594448E-04   7.4558854E+04   -1.7078909E+00
   4.6809626E-04   7.3974543E+04   -1.7073313E+00
   4.7025797E-04   7.3395001E+04   -1.7067722E+00
   4.7242967E-04   7.2820186E+04   -1.7062136E+00
   4.7461140E-04   7.2250060E+04   -1.7056554E+00
   4.7680321E-04   7.1684581E+04   -1.7050976E+00
   4.7900514E-04   7.1123711E+04   -1.7045403E+00
   4.8121723E-04   7.0567410E+04   -1.7039835E+00
   4.8343954E-04   7.0015640E+04   -1.7034271E+00
   4.8567212E-04   6.9468363E+04   -1.7028713E+00
   4.8791500E-04   6.8925539E+04   -1.7023159E+00
   4.9016825E-04   6.8387132E+04   -1.7017610E+00
   4.9243189E-04   6.7853105E+04   -1.7012065E+00
   4.9470600E-04   6.7323419E+04   -1.7006526E+00
   4.9699060E-04   6.6798038E+04   -1.7000992E+00
   4.9928575E-04   6.6276927E+04   -1.6995463E+00
   5.0159151E-04   6.5760048E+04   -1.6989939E+00
   5.0390791E-04   6.5247366E+04   -1.6984420E+00
   5.0623501E-04   6.4738846E+04   -1.6978907E+00
   5.0857286E-04   6.4234452E+04   -1.6973398E+00
   5.1092150E-04   6.3734150E+04   -1.6967895E+00
   5.1328099E-04   6.3237905E+04   -1.6962398E+00
   5.1565137E-04   6.2745682E+04   -1.6956906E+00
   5.1803270E-04   6.2257449E+04   -1.6951419E+00
   5.2042503E-04   6.1773170E+04   -1.6945938E+00
   5.2282841E-04   6.1292813E+04   -1.6940462E+00
   5.2524289E-04   6.0816344E+04   -1.6934992E+00
   5.2766851E-04   6.0343732E+04   -1.6929528E+00
   5.3010534E-04   5.9874943E+04   -1.6924070E+00
   5.3255342E-04   5.9409945E+04   -1.6918617E+00
   5.3501281E-04   5.8948706E+04   -1.6913170E+00
   5.3748356E-04   5.8491195E+04   -1.6907729E+00
   5.3996571E-04   5.8037381E+04   -1.6902294E+00
   5.4245933E-04   5.7587231E+04   -1.6896865E+00
   5.4496446E-04   5.7140716E+04   -1.6891442E+00
   5.4748117E-04   5.6697804E+04   -1.6886025E+00
   5.5000949E-04   5.6258466E+04   -1.6880614E+00
   5.5254949E-04   5.5822672E+04   -1.6875209E+00
   5.5510123E-04   5.5390391E+04   -1.6869811E+00
   5.5766474E-04   5.4961594E+04   -1.6864418E+00
   5.6024010E-04   5.4536252E+04   -1.6859032E+00
   5.6282734E-04   5.4114336E+04   -1.6853653E+00
   5.6542654E-04   5.3695817E+04   -1.6848279E+00
   5.6803774E-04   5.3280666E+04   -1.6842913E+00
   5.7066099E-04   5.2868856E+04   -1.6837552E+00
   5.7329637E-04   5.2460359E+04   -1.6832198E+00
   5.7594391E-04   5.2055146E+04   -1.6826851E+00
   5.7860368E-04   5.1653190E+04   -1.6821511E+00
   5.8127573E-04   5.1254464E+04   -1.6816177E+00
   5.8396012E-04   5.0858941E+04   -1.6810849E+00
   5.8665691E-04   5.0466594E+04   -1.6805529E+00
   5.8936616E-04   5.0077396E+04   -1.6800215E+00
   5.9208791E-04   4.9691321E+04   -1.6794908E+00
   5.9482223E-04   4.9308344E+04   -1.6789608E+00
   5.9756919E-04   4.8928437E+04   -1.6784315E+00
   6.0032882E-04   4.8551576E+04   -1.6779029E+00
   6.0310120E-04   4.8177734E+04   -1.6773750E+00
   6.0588639E-04   4.7806888E+04   -1.6768478E+00
   6.0868443E-04   4.7439011E+04   -1.6763213E+00
   6.1149540E-04   4.7074079E+04   -1.6757955E+00
   6.1431935E-04   4.6712068E+04   -1.6752704E+00
   6.1715634E-04   4.6352952E+04   -1.6747461E+00
   6.2000644E-04   4.5996709E+04   -1.6742225E+00
   6.2286969E-04   4.5643313E+04   -1.6736996E+00
