#        a       HoverH0(a)       dlogHdloga_of_a(a)
   1.0000000E-04   1.1030035E+06   -1.8609017E+00
   1.0046181E-04   1.0935879E+06   -1.8604386E+00
   1.0092575E-04   1.0842550E+06   -1.8599746E+00
   1.0139184E-04   1.0750040E+06   -1.8595096E+00
   1.0186008E-04   1.0658342E+06   -1.8590437E+00
   1.0233048E-04   1.0567450E+06   -1.8585769E+00
   1.0280305E-04   1.0477354E+06   -1.8581091E+00
   1.0327781E-04   1.0388050E+06   -1.8576404E+00
   1.0375475E-04   1.0299529E+06   -1.8571708E+00
   1.0423390E-04   1.0211784E+06   -1.8567002E+00
   1.0471527E-04   1.0124809E+06   -1.8562287E+00
   1.0519885E-04   1.0038597E+06   -1.8557563E+00
   1.0568467E-04   9.9531398E+05   -1.8552829E+00
   1.0617274E-04   9.8684321E+05   -1.8548086E+00
   1.0666305E-04   9.7844667E+05   -1.8543335E+00
   1.0715563E-04   9.7012370E+05   -1.8538574E+00
   1.0765049E-04   9.6187363E+05   -1.8533804E+00
   1.0814763E-04   9.5369583E+05   -1.8529024E+00
   1.0864707E-04   9.4558964E+05   -1.8524236E+00
   1.0914881E-04   9.3755442E+05   -1.8519439E+00
   1.0965287E-04   9.2958953E+05   -1.8514632E+00
   1.1015926E-04   9.2169436E+05   -1.8509817E+00
   1.1066799E-04   9.1386826E+05   -1.8504993E+00
   1.1117906E-04   9.0611064E+05   -1.8500160E+00
   1.1169250E-04   8.9842086E+05   -1.8495317E+00
   1.1220831E-04   8.9079834E+05   -1.8490466E+00
   1.1272650E-04   8.8324247E+05   -1.8485606E+00
   1.1324708E-04   8.7575264E+05   -1.8480738E+00
   1.1377007E-04   8.6832829E+05   -1.8475860E+00
   1.1429547E-04   8.6096881E+05   -1.8470974E+00
   1.1482330E-04   8.5367363E+05   -1.8466079E+00
   1.1535356E-04   8.4644217E+05   -1.8461175E+00
   1.1588628E-04   8.3927387E+05   -1.8456262E+00
   1.1642145E-04   8.3216816E+05   -1.8451341E+00
   1.1695910E-04   8.2512449E+05   -1.8446411E+00
   1.1749923E-04   8.1814229E+05   -1.8441473E+00
   1.1804185E-04   8.1122102E+05   -1.8436526E+00
   1.1858698E-04   8.0436014E+05   -1.8431570E+00
   1.1913463E-04   7.9755911E+05   -1.8426606E+00
   1.1968481E-04   7.9081739E+05   -1.8421634E+00
   1.2023752E-04   7.8413446E+05   -1.8416653E+00
   1.2079279E-04   7.7750979E+05   -1.8411663E+00
   1.2135063E-04   7.7094286E+05   -1.8406665E+00
   1.2191104E-04   7.6443316E+05   -1.8401659E+00
   1.2247403E-04   7.5798018E+05   -1.8396645E+00
   1.2303963E-04   7.5158340E+05   -1.8391622E+00
   1.2360784E-04   7.4524234E+05   -1.8386591E+00
   1.2417868E-04   7.3895649E+05   -1.8381551E+00
   1.2475215E-04   7.3272536E+05   -1.8376504E+00
   1.2532826E-04   7.2654846E+05   -1.8371448E+00
   1.2590704E-04   7.2042532E+05   -1.8366385E+00
   1.2648850E-04   7.1435544E+05   -1.8361313E+00
   1.2707263E-04   7.0833837E+05   -1.8356233E+00
   1.2765947E-04   7.0237362E+05   -1.8351145E+00
   1.2824901E-04   6.9646074E+05   -1.8346049E+00
   1.2884128E-04   6.9059925E+05   -1.8340945E+00
   1.2943628E-04   6.8478871E+05   -1.8335833E+00
   1.3003403E-04   6.7902866E+05   -1.8330713E+00
   1.3063454E-04   6.7331864E+05   -1.8325586E+00
   1.3123783E-04   6.6765822E+05   -1.8320450E+00
   1.3184390E-04   6.6204696E+05   -1.8315307E+00
   1.3245277E-04   6.5648441E+05   -1.8310156E+00
   1.3306445E-04   6.5097014E+05   -1.8304998E+00
   1.3367895E-04   6.4550373E+05   -1.8299832E+00
   1.3429630E-04   6.4008474E+05   -1.8294658E+00
   1.3491649E-04   6.3471276E+05   -1.8289476E+00
   1.3553955E-04   6.2938737E+05   -1.8284287E+00
   1.3616548E-04   6.2410815E+05   -1.8279091E+00
   1.3679431E-04   6.1887470E+05   -1.8273887E+00
   1.3742604E-04   6.1368661E+05   -1.8268676E+00
   1.3806069E-04   6.0854347E+05   -1.8263457E+00
   1.3869827E-04   6.0344489E+05   -1.8258231E+00
   1.3933879E-04   5.9839046E+05   -1.8252997E+00
   1.3998227E-04   5.9337980E+05   -1.8247757E+00
   1.4062872E-04   5.8841252E+05   -1.8242509E+00
   1.4127816E-04   5.8348824E+05   -1.8237253E+00
   1.4193060E-04   5.7860657E+05   -1.8231991E+00
   1.4258605E-04   5.7376713E+05   -1.8226722E+00
   1.4324453E-04   5.6896955E+05   -1.8221445E+00
   1.4390605E-04   5.6421345E+05   -1.8216162E+00
   1.4457062E-04   5.5949848E+05   -1.8210871E+00
   1.4523826E-04   5.5482426E+05   -1.8205574E+00
   1.4590899E-04   5.5019044E+05   -1.8200270E+00
   1.4658281E-04   5.4559665E+05   -1.8194959E+00
   1.4725974E-04   5.4104255E+05   -1.8189641E+00
   1.4793981E-04   5.3652777E+05   -1.8184316E+00
   1.4862301E-04   5.3205197E+05   -1.8178985E+00
   1.4930936E-04   5.2761480E+05   -1.8173647E+00
   1.4999889E-04   5.2321593E+05   -1.8168302E+00
   1.5069160E-04   5.1885501E+05   -1.8162950E+00
   1.5138751E-04   5.1453171E+05   -1.8157593E+00
   1.5208663E-04   5.1024569E+05   -1.8152228E+00
   1.5278899E-04   5.0599662E+05   -1.8146857E+00
   1.5349458E-04   5.0178419E+05   -1.8141480E+00
   1.5420343E-04   4.9760805E+05   -1.8136097E+00
   1.5491556E-04   4.9346790E+05   -1.8130707E+00
   1.5563098E-04   4.8936341E+05   -1.8125311E+00
   1.5634970E-04   4.8529426E+05   -1.8119908E+00
   1.5707174E-04   4.8126015E+05   -1.8114500E+00
   1.5779711E-04   4.7726076E+05   -1.8109085E+00
   1.5852584E-04   4.7329579E+05   -1.8103664E+00
   1.5925792E-04   4.6936494E+05   -1.8098237E+00
   1.5999339E-04   4.6546789E+05   -1.8092804E+00
   1.6073226E-04   4.6160436E+05   -1.8087366E+00
   1.6147454E-04   4.5777404E+05   -1.8081921E+00
   1.6222024E-04   4.5397665E+05   -1.8076470E+00
   1.6296939E-04   4.5021189E+05   -1.8071014E+00
   1.6372200E-04   4.4647947E+05   -1.8065552E+00
   1.6447809E-04   4.4277911E+05   -1.8060084E+00
   1.6523767E-04   4.3911053E+05   -1.8054611E+00
   1.6600075E-04   4.3547344E+05   -1.8049132E+00
   1.6676736E-04   4.3186756E+05   -1.8043647E+00
   1.6753751E-04   4.2829263E+05   -1.8038157E+00
   1.6831122E-04   4.2474836E+05   -1.8032662E+00
   1.6908849E-04   4.2123449E+05   -1.8027161E+00
   1.6986936E-04   4.1775075E+05   -1.8021655E+00
   1.7065384E-04   4.1429687E+05   -1.8016143E+00
   1.7144193E-04   4.1087260E+05   -1.8010626E+00
   1.7223367E-04   4.0747766E+05   -1.8005105E+00
   1.7302906E-04   4.0411180E+05   -1.7999577E+00
   1.7382813E-04   4.0077477E+05   -1.7994045E+00
   1.7463089E-04   3.9746630E+05   -1.7988508E+00
   1.7543735E-04   3.9418616E+05   -1.7982966E+00
   1.7624754E-04   3.9093408E+05   -1.7977418E+00
   1.7706147E-04   3.8770982E+05   -1.7971866E+00
   1.7787916E-04   3.8451314E+05   -1.7966309E+00
   1.7870062E-04   3.8134380E+05   -1.7960748E+00
   1.7952588E-04   3.7820154E+05   -1.7955181E+00
   1.8035495E-04   3.7508614E+05   -1.7949610E+00
   1.8118785E-04   3.7199736E+05   -1.7944035E+00
   1.8202459E-04   3.6893496E+05   -1.7938454E+00
   1.8286520E-04   3.6589872E+05   -1.7932870E+00
   1.8370969E-04   3.6288840E+05   -1.7927280E+00
   1.8455808E-04   3.5990377E+05   -1.7921687E+00
   1.8541039E-04   3.5694460E+05   -1.7916089E+00
   1.8626663E-04   3.5401069E+05   -1.7910486E+00
   1.8712683E-04   3.5110179E+05   -1.7904880E+00
   1.8799100E-04   3.4821770E+05   -1.7899269E+00
   1.8885917E-04   3.4535819E+05   -1.7893654E+00
   1.8973134E-04   3.4252304E+05   -1.7888035E+00
   1.9060754E-04   3.3971206E+05   -1.7882412E+00
   1.9148778E-04   3.3692501E+05   -1.7876785E+00
   1.9237209E-04   3.3416170E+05   -1.7871154E+00
   1.9326049E-04   3.3142191E+05   -1.7865520E+00
   1.9415299E-04   3.2870544E+05   -1.7859881E+00
   1.9504960E-04   3.2601208E+05   -1.7854239E+00
   1.9595036E-04   3.2334163E+05   -1.7848593E+00
   1.9685528E-04   3.2069389E+05   -1.7842943E+00
   1.9776438E-04   3.1806866E+05   -1.7837290E+00
   1.9867768E-04   3.1546574E+05   -1.7831634E+00
   1.9959519E-04   3.1288493E+05   -1.7825974E+00
   2.0051694E-04   3.1032606E+05   -1.7820310E+00
   2.0144295E-04   3.0778891E+05   -1.7814643E+00
   2.0237324E-04   3.0527330E+05   -1.7808973E+00
   2.0330782E-04   3.0277904E+05   -1.7803300E+00
   2.0424671E-04   3.0030595E+05   -1.7797623E+00
   2.0518995E-04   2.9785384E+05   -1.7791943E+00
   2.0613754E-04   2.9542252E+05   -1.7786261E+00
   2.0708950E-04   2.9301182E+05   -1.7780575E+00
   2.0804586E-04   2.9062155E+05   -1.7774886E+00
   2.0900664E-04   2.8825153E+05   -1.7769195E+00
   2.0997185E-04   2.8590160E+05   -1.7763500E+00
   2.1094152E-04   2.8357156E+05   -1.7757803E+00
   2.1191567E-04   2.8126125E+05   -1.7752103E+00
   2.1289432E-04   2.7897050E+05   -1.7746401E+00
   2.1387749E-04   2.7669913E+05   -1.7740695E+00
   2.1486520E-04   2.7444698E+05   -1.7734988E+00
   2.1585747E-04   2.7221387E+05   -1.7729278E+00
   2.1685432E-04   2.6999964E+05   -1.7723565E+00
   2.1785578E-04   2.6780413E+05   -1.7717850E+00
   2.1886186E-04   2.6562718E+05   -1.7712133E+00
   2.1987259E-04   2.6346861E+05   -1.7706414E+00
   2.2088798E-04   2.6132827E+05   -1.7700692E+00
   2.2190807E-04   2.5920601E+05   -1.7694968E+00
   2.2293286E-04   2.5710165E+05   -1.7689242E+00
   2.2396239E-04   2.5501506E+05   -1.7683515E+00
   2.2499667E-04   2.5294606E+05   -1.7677785E+00
   2.2603573E-04   2.5089452E+05   -1.7672053E+00
   2.2707958E-04   2.4886027E+05   -1.7666320E+00
   2.2812826E-04   2.4684317E+05   -1.7660584E+00
   2.2918178E-04   2.4484306E+05   -1.7654848E+00
   2.3024017E-04   2.4285980E+05   -1.7649109E+00
   2.3130344E-04   2.4089325E+05   -1.7643369E+00
   2.3237162E-04   2.3894325E+05   -1.7637627E+00
   2.3344474E-04   2.3700966E+05   -1.7631884E+00
   2.3452281E-04   2.3509234E+05   -1.7626140E+00
   2.3560586E-04   2.3319115E+05   -1.7620394E+00
   2.3669392E-04   2.3130595E+05   -1.7614647E+00
   2.3778699E-04   2.2943659E+05   -1.7608898E+00
   2.3888512E-04   2.2758295E+05   -1.7603149E+00
   2.3998831E-04   2.2574488E+05   -1.7597398E+00
   2.4109661E-04   2.2392224E+05   -1.7591646E+00
   2.4221001E-04   2.2211491E+05   -1.7585894E+00
   2.4332857E-04   2.2032276E+05   -1.7580140E+00
   2.4445228E-04   2.1854564E+05   -1.7574386E+00
   2.4558119E-04   2.1678343E+05   -1.7568631E+00
   2.4671531E-04   2.1503600E+05   -1.7562875E+00
   2.4785467E-04   2.1330323E+05   -1.7557118E+00
   2.4899928E-04   2.1158497E+05   -1.7551361E+00
   2.5014919E-04   2.0988112E+05   -1.7545603E+00
   2.5130440E-04   2.0819154E+05   -1.7539845E+00
   2.5246495E-04   2.0651610E+05   -1.7534086E+00
   2.5363086E-04   2.0485470E+05   -1.7528327E+00
   2.5480216E-04   2.0320720E+05   -1.7522568E+00
   2.5597886E-04   2.0157348E+05   -1.7516808E+00
   2.5716100E-04   1.9995343E+05   -1.7511049E+00
   2.5834859E-04   1.9834692E+05   -1.7505289E+00
   2.5954168E-04   1.9675385E+05   -1.7499529E+00
   2.6074027E-04   1.9517409E+05   -1.7493769E+00
   2.6194439E-04   1.9360752E+05   -1.7488009E+00
   2.6315408E-04   1.9205404E+05   -1.7482249E+00
   2.6436935E-04   1.9051353E+05   -1.7476490E+00
   2.6559024E-04   1.8898588E+05   -1.7470730E+00
   2.6681676E-04   1.8747098E+05   -1.7464971E+00
   2.6804895E-04   1.8596871E+05   -1.7459213E+00
   2.6928683E-04   1.8447897E+05   -1.7453455E+00
   2.7053042E-04   1.8300165E+05   -1.7447697E+00
   2.7177976E-04   1.8153664E+05   -1.7441940E+00
   2.7303487E-04   1.8008384E+05   -1.7436183E+00
   2.7429577E-04   1.7864313E+05   -1.7430427E+00
   2.7556250E-04   1.7721443E+05   -1.7424672E+00
   2.7683507E-04   1.7579761E+05   -1.7418918E+00
   2.7811353E-04   1.7439259E+05   -1.7413164E+00
   2.7939788E-04   1.7299925E+05   -1.7407412E+00
   2.8068817E-04   1.7161750E+05   -1.7401660E+00
   2.8198442E-04   1.7024724E+05   -1.7395909E+00
   2.8328665E-04   1.6888837E+05   -1.7390160E+00
   2.8459490E-04   1.6754078E+05   -1.7384412E+00
   2.8590919E-04   1.6620439E+05   -1.7378664E+00
   2.8722955E-04   1.6487909E+05   -1.7372919E+00
   2.8855600E-04   1.6356480E+05   -1.7367174E+00
   2.8988859E-04   1.6226141E+05   -1.7361431E+00
   2.9122732E-04   1.6096883E+05   -1.7355689E+00
   2.9257224E-04   1.5968698E+05   -1.7349949E+00
   2.9392337E-04   1.5841575E+05   -1.7344211E+00
   2.9528074E-04   1.5715505E+05   -1.7338474E+00
   2.9664438E-04   1.5590480E+05   -1.7332739E+00
   2.9801431E-04   1.5466491E+05   -1.7327005E+00
   2.9939057E-04   1.5343528E+05   -1.7321274E+00
   3.0077319E-04   1.5221582E+05   -1.7315544E+00
   3.0216219E-04   1.5100646E+05   -1.7309816E+00
   3.0355761E-04   1.4980711E+05   -1.7304091E+00
   3.0495947E-04   1.4861767E+05   -1.7298367E+00
   3.0636780E-04   1.4743806E+05   -1.7292645E+00
   3.0778264E-04   1.4626820E+05   -1.7286926E+00
   3.0920401E-04   1.4510801E+05   -1.7281209E+00
   3.1063195E-04   1.4395739E+05   -1.7275494E+00
   3.1206648E-04   1.4281628E+05   -1.7269781E+00
   3.1350764E-04   1.4168459E+05   -1.7264071E+00
   3.1495545E-04   1.4056223E+05   -1.7258364E+00
   3.1640994E-04   1.3944913E+05   -1.7252659E+00
   3.1787116E-04   1.3834521E+05   -1.7246956E+00
   3.1933912E-04   1.3725039E+05   -1.7241256E+00
   3.2081386E-04   1.3616459E+05   -1.7235559E+00
   3.2229541E-04   1.3508773E+05   -1.7229865E+00
   3.2378381E-04   1.3401974E+05   -1.7224173E+00
   3.2527908E-04   1.3296055E+05   -1.7218485E+00
   3.2678125E-04   1.3191007E+05   -1.7212799E+00
   3.2829036E-04   1.3086823E+05   -1.7207116E+00
   3.2980644E-04   1.2983496E+05   -1.7201437E+00
   3.3132952E-04   1.2881019E+05   -1.7195760E+00
   3.3285963E-04   1.2779383E+05   -1.7190087E+00
   3.3439681E-04   1.2678583E+05   -1.7184417E+00
   3.3594109E-04   1.2578611E+05   -1.7178750E+00
   3.3749250E-04   1.2479460E+05   -1.7173087E+00
   3.3905108E-04   1.2381123E+05   -1.7167427E+00
   3.4061685E-04   1.2283592E+05   -1.7161770E+00
   3.4218986E-04   1.2186862E+05   -1.7156117E+00
   3.4377013E-04   1.2090925E+05   -1.7150468E+00
   3.4535769E-04   1.1995774E+05   -1.7144822E+00
   3.4695259E-04   1.1901403E+05   -1.7139180E+00
   3.4855485E-04   1.1807805E+05   -1.7133541E+00
   3.5016452E-04   1.1714973E+05   -1.7127907E+00
   3.5178161E-04   1.1622902E+05   -1.7122276E+00
   3.5340618E-04   1.1531584E+05   -1.7116649E+00
   3.5503824E-04   1.1441013E+05   -1.7111026E+00
   3.5667785E-04   1.1351183E+05   -1.7105407E+00
   3.5832502E-04   1.1262088E+05   -1.7099793E+00
   3.5997981E-04   1.1173720E+05   -1.7094182E+00
   3.6164223E-04   1.1086075E+05   -1.7088575E+00
   3.6331233E-04   1.0999145E+05   -1.7082973E+00
   3.6499015E-04   1.0912926E+05   -1.7077375E+00
   3.6667571E-04   1.0827410E+05   -1.7071782E+00
   3.6836906E-04   1.0742592E+05   -1.7066193E+00
   3.7007022E-04   1.0658466E+05   -1.7060608E+00
   3.7177925E-04   1.0575025E+05   -1.7055028E+00
   3.7349616E-04   1.0492265E+05   -1.7049452E+00
   3.7522101E-04   1.0410180E+05   -1.7043881E+00
   3.7695382E-04   1.0328763E+05   -1.7038315E+00
   3.7869463E-04   1.0248009E+05   -1.7032753E+00
   3.8044348E-04   1.0167912E+05   -1.7027196E+00
   3.8220041E-04   1.0088468E+05   -1.7021644E+00
   3.8396545E-04   1.0009669E+05   -1.7016097E+00
   3.8573864E-04   9.9315117E+04   -1.7010555E+00
   3.8752002E-04   9.8539896E+04   -1.7005018E+00
   3.8930963E-04   9.7770975E+04   -1.6999486E+00
   3.9110750E-04   9.7008302E+04   -1.6993959E+00
   3.9291368E-04   9.6251823E+04   -1.6988437E+00
   3.9472820E-04   9.5501486E+04   -1.6982920E+00
   3.9655109E-04   9.4757239E+04   -1.6977409E+00
   3.9838241E-04   9.4019030E+04   -1.6971903E+00
   4.0022218E-04   9.3286809E+04   -1.6966402E+00
   4.0207045E-04   9.2560525E+04   -1.6960907E+00
   4.0392725E-04   9.1840128E+04   -1.6955417E+00
   4.0579263E-04   9.1125569E+04   -1.6949932E+00
   4.0766662E-04   9.0416797E+04   -1.6944453E+00
   4.0954927E-04   8.9713764E+04   -1.6938980E+00
   4.1144061E-04   8.9016422E+04   -1.6933512E+00
   4.1334068E-04   8.8324723E+04   -1.6928050E+00
   4.1524953E-04   8.7638620E+04   -1.6922594E+00
   4.1716720E-04   8.6958064E+04   -1.6917144E+00
   4.1909372E-04   8.6283010E+04   -1.6911699E+00
   4.2102914E-04   8.5613410E+04   -1.6906261E+00
   4.2297350E-04   8.4949220E+04   -1.6900828E+00
   4.2492683E-04   8.4290394E+04   -1.6895401E+00
   4.2688919E-04   8.3636886E+04   -1.6889981E+00
   4.2886061E-04   8.2988652E+04   -1.6884566E+00
   4.3084113E-04   8.2345648E+04   -1.6879157E+00
   4.3283080E-04   8.1707829E+04   -1.6873755E+00
   4.3482966E-04   8.1075152E+04   -1.6868359E+00
   4.3683775E-04   8.0447574E+04   -1.6862969E+00
   4.3885511E-04   7.9825052E+04   -1.6857586E+00
   4.4088179E-04   7.9207544E+04   -1.6852209E+00
   4.4291783E-04   7.8595006E+04   -1.6846838E+00
   4.4496327E-04   7.7987399E+04   -1.6841474E+00
   4.4701816E-04   7.7384680E+04   -1.6836116E+00
   4.4908253E-04   7.6786809E+04   -1.6830765E+00
   4.5115644E-04   7.6193745E+04   -1.6825420E+00
   4.5323993E-04   7.5605447E+04   -1.6820082E+00
   4.5533304E-04   7.5021876E+04   -1.6814751E+00
   4.5743582E-04   7.4442992E+04   -1.6809426E+00
   4.5954830E-04   7.3868756E+04   -1.6804108E+00
   4.6167054E-04   7.3299129E+04   -1.6798797E+00
   4.6380259E-04   7.2734073E+04   -1.6793493E+00
   4.6594448E-04   7.2173548E+04   -1.6788196E+00
   4.6809626E-04   7.1617519E+04   -1.6782905E+00
   4.7025797E-04   7.1065945E+04   -1.6777622E+00
   4.7242967E-04   7.0518792E+04   -1.6772345E+00
   4.7461140E-04   6.9976021E+04   -1.6767076E+00
   4.7680321E-04   6.9437596E+04   -1.6761814E+00
   4.7900514E-04   6.8903481E+04   -1.6756559E+00
   4.8121723E-04   6.8373639E+04   -1.6751311E+00
   4.8343954E-04   6.7848037E+04   -1.6746070E+00
   4.8567212E-04   6.7326637E+04   -1.6740837E+00
   4.8791500E-04   6.6809404E+04   -1.6735611E+00
   4.9016825E-04   6.6296305E+04   -1.6730392E+00
   4.9243189E-04   6.5787305E+04   -1.6725181E+00
   4.9470600E-04   6.5282369E+04   -1.6719977E+00
   4.9699060E-04   6.4781464E+04   -1.6714781E+00
   4.9928575E-04   6.4284556E+04   -1.6709592E+00
   5.0159151E-04   6.3791612E+04   -1.6704410E+00
   5.0390791E-04   6.3302599E+04   -1.6699236E+00
   5.0623501E-04   6.2817484E+04   -1.6694070E+00
   5.0857286E-04   6.2336236E+04   -1.6688912E+00
   5.1092150E-04   6.1858821E+04   -1.6683761E+00
   5.1328099E-04   6.1385208E+04   -1.6678618E+00
   5.1565137E-04   6.0915365E+04   -1.6673483E+00
   5.1803270E-04   6.0449262E+04   -1.6668355E+00
   5.2042503E-04   5.9986866E+04   -1.6663235E+00
   5.2282841E-04   5.9528148E+04   -1.6658124E+00
   5.2524289E-04   5.9073077E+04   -1.6653020E+00
   5.2766851E-04   5.8621622E+04   -1.6647924E+00
   5.3010534E-04   5.8173754E+04   -1.6642836E+00
   5.3255342E-04   5.7729443E+04   -1.6637756E+00
   5.3501281E-04   5.7288659E+04   -1.6632684E+00
   5.3748356E-04   5.6851374E+04   -1.6627620E+00
   5.3996571E-04   5.6417558E+04   -1.6622565E+00
   5.4245933E-04   5.5987182E+04   -1.6617517E+00
   5.4496446E-04   5.5560219E+04   -1.6612478E+00
   5.4748117E-04   5.5136640E+04   -1.6607447E+00
   5.5000949E-04   5.4716417E+04   -1.6602424E+00
   5.5254949E-04   5.4299522E+04   -1.6597409E+00
   5.5510123E-04   5.3885928E+04   -1.6592403E+00
   5.5766474E-04   5.3475607E+04   -1.6587405E+00
   5.6024010E-04   5.3068533E+04   -1.6582416E+00
   5.6282734E-04   5.2664679E+04   -1.6577435E+00
   5.6542654E-04   5.2264017E+04   -1.6572462E+00
   5.6803774E-04   5.1866523E+04   -1.6567498E+00
   5.7066099E-04   5.1472169E+04   -1.6562543E+00
   5.7329637E-04   5.1080931E+04   -1.6557596E+00
   5.7594391E-04   5.0692781E+04   -1.6552657E+00
   5.7860368E-04   5.0307696E+04   -1.6547727E+00
   5.8127573E-04   4.9925649E+04   -1.6542806E+00
   5.8396012E-04   4.9546616E+04   -1.6537893E+00
   5.8665691E-04   4.9170571E+04   -1.6532990E+00
   5.8936616E-04   4.8797491E+04   -1.6528094E+00
   5.9208791E-04   4.8427350E+04   -1.6523208E+00
   5.9482223E-04   4.8060126E+04   -1.6518330E+00
   5.9756919E-04   4.7695793E+04   -1.6513462E+00
   6.0032882E-04   4.7334328E+04   -1.6508602E+00
   6.0310120E-04   4.6975707E+04   -1.6503750E+00
   6.0588639E-04   4.6619908E+04   -1.6498908E+00
   6.0868443E-04   4.6266906E+04   -1.6494075E+00
   6.1149540E-04   4.5916680E+04   -1.6489250E+00
   6.1431935E-04   4.5569206E+04   -1.6484435E+00
   6.1715634E-04   4.5224461E+04   -1.6479629E+00
   6.2000644E-04   4.4882425E+04   -1.6474831E+00
   6.2286969E-04   4.4543073E+04   -1.6470043E+00
