#        a       HoverH0(a)       dlogHdloga_of_a(a)
   1.0000000E-04   1.0571442E+06   -1.8654401E+00
   1.0046181E-04   1.0480981E+06   -1.8649865E+00
   1.0092575E-04   1.0391316E+06   -1.8645319E+00
   1.0139184E-04   1.0302439E+06   -1.8640763E+00
   1.0186008E-04   1.0214345E+06   -1.8636198E+00
   1.0233048E-04   1.0127024E+06   -1.8631623E+00
   1.0280305E-04   1.0040472E+06   -1.8627039E+00
   1.0327781E-04   9.9546803E+05   -1.8622445E+00
   1.0375475E-04   9.8696426E+05   -1.8617842E+00
   1.0423390E-04   9.7853521E+05   -1.8613229E+00
   1.0471527E-04   9.7018021E+05   -1.8608607E+00
   1.0519885E-04   9.6189860E+05   -1.8603976E+00
   1.0568467E-04   9.5368971E+05   -1.8599334E+00
   1.0617274E-04   9.4555291E+05   -1.8594684E+00
   1.0666305E-04   9.3748754E+05   -1.8590024E+00
   1.0715563E-04   9.2949296E+05   -1.8585355E+00
   1.0765049E-04   9.2156855E+05   -1.8580676E+00
   1.0814763E-04   9.1371366E+05   -1.8575988E+00
   1.0864707E-04   9.0592769E+05   -1.8571291E+00
   1.0914881E-04   8.9821001E+05   -1.8566584E+00
   1.0965287E-04   8.9056000E+05   -1.8561868E+00
   1.1015926E-04   8.8297707E+05   -1.8557143E+00
   1.1066799E-04   8.7546062E+05   -1.8552409E+00
   1.1117906E-04   8.6801005E+05   -1.8547666E+00
   1.1169250E-04   8.6062476E+05   -1.8542913E+00
   1.1220831E-04   8.5330419E+05   -1.8538151E+00
   1.1272650E-04   8.4604774E+05   -1.8533380E+00
   1.1324708E-04   8.3885484E+05   -1.8528600E+00
   1.1377007E-04   8.3172493E+05   -1.8523811E+00
   1.1429547E-04   8.2465745E+05   -1.8519013E+00
   1.1482330E-04   8.1765183E+05   -1.8514206E+00
   1.1535356E-04   8.1070752E+05   -1.8509390E+00
   1.1588628E-04   8.0382397E+05   -1.8504565E+00
   1.1642145E-04   7.9700065E+05   -1.8499731E+00
   1.1695910E-04   7.9023700E+05   -1.8494888E+00
   1.1749923E-04   7.8353251E+05   -1.8490036E+00
   1.1804185E-04   7.7688663E+05   -1.8485175E+00
   1.1858698E-04   7.7029885E+05   -1.8480305E+00
   1.1913463E-04   7.6376865E+05   -1.8475427E+00
   1.1968481E-04   7.5729551E+05   -1.8470540E+00
   1.2023752E-04   7.5087892E+05   -1.8465644E+00
   1.2079279E-04   7.4451839E+05   -1.8460739E+00
   1.2135063E-04   7.3821340E+05   -1.8455826E+00
   1.2191104E-04   7.3196347E+05   -1.8450904E+00
   1.2247403E-04   7.2576810E+05   -1.8445974E+00
   1.2303963E-04   7.1962680E+05   -1.8441034E+00
   1.2360784E-04   7.1353909E+05   -1.8436087E+00
   1.2417868E-04   7.0750450E+05   -1.8431130E+00
   1.2475215E-04   7.0152254E+05   -1.8426165E+00
   1.2532826E-04   6.9559276E+05   -1.8421192E+00
   1.2590704E-04   6.8971468E+05   -1.8416210E+00
   1.2648850E-04   6.8388784E+05   -1.8411220E+00
   1.2707263E-04   6.7811179E+05   -1.8406221E+00
   1.2765947E-04   6.7238608E+05   -1.8401215E+00
   1.2824901E-04   6.6671025E+05   -1.8396199E+00
   1.2884128E-04   6.6108386E+05   -1.8391176E+00
   1.2943628E-04   6.5550647E+05   -1.8386144E+00
   1.3003403E-04   6.4997764E+05   -1.8381104E+00
   1.3063454E-04   6.4449694E+05   -1.8376056E+00
   1.3123783E-04   6.3906395E+05   -1.8370999E+00
   1.3184390E-04   6.3367823E+05   -1.8365935E+00
   1.3245277E-04   6.2833937E+05   -1.8360862E+00
   1.3306445E-04   6.2304694E+05   -1.8355781E+00
   1.3367895E-04   6.1780054E+05   -1.8350693E+00
   1.3429630E-04   6.1259976E+05   -1.8345596E+00
   1.3491649E-04   6.0744418E+05   -1.8340491E+00
   1.3553955E-04   6.0233341E+05   -1.8335379E+00
   1.3616548E-04   5.9726705E+05   -1.8330258E+00
   1.3679431E-04   5.9224470E+05   -1.8325130E+00
   1.3742604E-04   5.8726597E+05   -1.8319994E+00
   1.3806069E-04   5.8233048E+05   -1.8314850E+00
   1.3869827E-04   5.7743783E+05   -1.8309699E+00
   1.3933879E-04   5.7258765E+05   -1.8304539E+00
   1.3998227E-04   5.6777956E+05   -1.8299372E+00
   1.4062872E-04   5.6301319E+05   -1.8294198E+00
   1.4127816E-04   5.5828816E+05   -1.8289016E+00
   1.4193060E-04   5.5360411E+05   -1.8283826E+00
   1.4258605E-04   5.4896067E+05   -1.8278629E+00
   1.4324453E-04   5.4435748E+05   -1.8273424E+00
   1.4390605E-04   5.3979418E+05   -1.8268212E+00
   1.4457062E-04   5.3527043E+05   -1.8262993E+00
   1.4523826E-04   5.3078587E+05   -1.8257766E+00
   1.4590899E-04   5.2634015E+05   -1.8252532E+00
   1.4658281E-04   5.2193292E+05   -1.8247290E+00
   1.4725974E-04   5.1756384E+05   -1.8242042E+00
   1.4793981E-04   5.1323259E+05   -1.8236786E+00
   1.4862301E-04   5.0893881E+05   -1.8231523E+00
   1.4930936E-04   5.0468217E+05   -1.8226253E+00
   1.4999889E-04   5.0046236E+05   -1.8220976E+00
   1.5069160E-04   4.9627903E+05   -1.8215692E+00
   1.5138751E-04   4.9213188E+05   -1.8210401E+00
   1.5208663E-04   4.8802057E+05   -1.8205103E+00
   1.5278899E-04   4.8394478E+05   -1.8199798E+00
   1.5349458E-04   4.7990421E+05   -1.8194486E+00
   1.5420343E-04   4.7589855E+05   -1.8189168E+00
   1.5491556E-04   4.7192747E+05   -1.8183842E+00
   1.5563098E-04   4.6799068E+05   -1.8178510E+00
   1.5634970E-04   4.6408787E+05   -1.8173172E+00
   1.5707174E-04   4.6021874E+05   -1.8167826E+00
   1.5779711E-04   4.5638299E+05   -1.8162474E+00
   1.5852584E-04   4.5258033E+05   -1.8157116E+00
   1.5925792E-04   4.4881046E+05   -1.8151751E+00
   1.5999339E-04   4.4507310E+05   -1.8146379E+00
   1.6073226E-04   4.4136795E+05   -1.8141002E+00
   1.6147454E-04   4.3769473E+05   -1.8135617E+00
   1.6222024E-04   4.3405315E+05   -1.8130227E+00
   1.6296939E-04   4.3044295E+05   -1.8124830E+00
   1.6372200E-04   4.2686383E+05   -1.8119427E+00
   1.6447809E-04   4.2331553E+05   -1.8114018E+00
   1.6523767E-04   4.1979777E+05   -1.8108603E+00
   1.6600075E-04   4.1631028E+05   -1.8103181E+00
   1.6676736E-04   4.1285280E+05   -1.8097754E+00
   1.6753751E-04   4.0942505E+05   -1.8092321E+00
   1.6831122E-04   4.0602679E+05   -1.8086881E+00
   1.6908849E-04   4.0265773E+05   -1.8081436E+00
   1.6986936E-04   3.9931764E+05   -1.8075985E+00
   1.7065384E-04   3.9600624E+05   -1.8070528E+00
   1.7144193E-04   3.9272330E+05   -1.8065066E+00
   1.7223367E-04   3.8946855E+05   -1.8059597E+00
   1.7302906E-04   3.8624175E+05   -1.8054123E+00
   1.7382813E-04   3.8304265E+05   -1.8048644E+00
   1.7463089E-04   3.7987100E+05   -1.8043159E+00
   1.7543735E-04   3.7672657E+05   -1.8037668E+00
   1.7624754E-04   3.7360912E+05   -1.8032172E+00
   1.7706147E-04   3.7051840E+05   -1.8026671E+00
   1.7787916E-04   3.6745418E+05   -1.8021164E+00
   1.7870062E-04   3.6441623E+05   -1.8015652E+00
   1.7952588E-04   3.6140431E+05   -1.8010135E+00
   1.8035495E-04   3.5841820E+05   -1.8004612E+00
   1.8118785E-04   3.5545766E+05   -1.7999085E+00
   1.8202459E-04   3.5252248E+05   -1.7993552E+00
   1.8286520E-04   3.4961242E+05   -1.7988014E+00
   1.8370969E-04   3.4672728E+05   -1.7982472E+00
   1.8455808E-04   3.4386682E+05   -1.7976924E+00
   1.8541039E-04   3.4103083E+05   -1.7971371E+00
   1.8626663E-04   3.3821910E+05   -1.7965814E+00
   1.8712683E-04   3.3543141E+05   -1.7960252E+00
   1.8799100E-04   3.3266755E+05   -1.7954685E+00
   1.8885917E-04   3.2992731E+05   -1.7949113E+00
   1.8973134E-04   3.2721048E+05   -1.7943537E+00
   1.9060754E-04   3.2451685E+05   -1.7937957E+00
   1.9148778E-04   3.2184623E+05   -1.7932371E+00
   1.9237209E-04   3.1919841E+05   -1.7926782E+00
   1.9326049E-04   3.1657319E+05   -1.7921188E+00
   1.9415299E-04   3.1397036E+05   -1.7915589E+00
   1.9504960E-04   3.1138975E+05   -1.7909986E+00
   1.9595036E-04   3.0883114E+05   -1.7904380E+00
   1.9685528E-04   3.0629434E+05   -1.7898768E+00
   1.9776438E-04   3.0377917E+05   -1.7893153E+00
   1.9867768E-04   3.0128543E+05   -1.7887534E+00
   1.9959519E-04   2.9881294E+05   -1.7881910E+00
   2.0051694E-04   2.9636150E+05   -1.7876283E+00
   2.0144295E-04   2.9393094E+05   -1.7870652E+00
   2.0237324E-04   2.9152107E+05   -1.7865017E+00
   2.0330782E-04   2.8913171E+05   -1.7859378E+00
   2.0424671E-04   2.8676268E+05   -1.7853735E+00
   2.0518995E-04   2.8441380E+05   -1.7848089E+00
   2.0613754E-04   2.8208489E+05   -1.7842439E+00
   2.0708950E-04   2.7977578E+05   -1.7836786E+00
   2.0804586E-04   2.7748630E+05   -1.7831129E+00
   2.0900664E-04   2.7521626E+05   -1.7825468E+00
   2.0997185E-04   2.7296552E+05   -1.7819804E+00
   2.1094152E-04   2.7073388E+05   -1.7814137E+00
   2.1191567E-04   2.6852119E+05   -1.7808467E+00
   2.1289432E-04   2.6632728E+05   -1.7802793E+00
   2.1387749E-04   2.6415199E+05   -1.7797116E+00
   2.1486520E-04   2.6199515E+05   -1.7791436E+00
   2.1585747E-04   2.5985660E+05   -1.7785753E+00
   2.1685432E-04   2.5773618E+05   -1.7780067E+00
   2.1785578E-04   2.5563374E+05   -1.7774378E+00
   2.1886186E-04   2.5354911E+05   -1.7768686E+00
   2.1987259E-04   2.5148213E+05   -1.7762991E+00
   2.2088798E-04   2.4943267E+05   -1.7757294E+00
   2.2190807E-04   2.4740055E+05   -1.7751594E+00
   2.2293286E-04   2.4538564E+05   -1.7745891E+00
   2.2396239E-04   2.4338778E+05   -1.7740185E+00
   2.2499667E-04   2.4140681E+05   -1.7734478E+00
   2.2603573E-04   2.3944260E+05   -1.7728767E+00
   2.2707958E-04   2.3749500E+05   -1.7723054E+00
   2.2812826E-04   2.3556386E+05   -1.7717339E+00
   2.2918178E-04   2.3364903E+05   -1.7711622E+00
   2.3024017E-04   2.3175038E+05   -1.7705902E+00
   2.3130344E-04   2.2986777E+05   -1.7700180E+00
   2.3237162E-04   2.2800105E+05   -1.7694456E+00
   2.3344474E-04   2.2615009E+05   -1.7688730E+00
   2.3452281E-04   2.2431474E+05   -1.7683002E+00
   2.3560586E-04   2.2249488E+05   -1.7677272E+00
   2.3669392E-04   2.2069036E+05   -1.7671540E+00
   2.3778699E-04   2.1890106E+05   -1.7665807E+00
   2.3888512E-04   2.1712684E+05   -1.7660071E+00
   2.3998831E-04   2.1536757E+05   -1.7654334E+00
   2.4109661E-04   2.1362312E+05   -1.7648595E+00
   2.4221001E-04   2.1189336E+05   -1.7642855E+00
   2.4332857E-04   2.1017816E+05   -1.7637113E+00
   2.4445228E-04   2.0847739E+05   -1.7631370E+00
   2.4558119E-04   2.0679094E+05   -1.7625625E+00
   2.4671531E-04   2.0511867E+05   -1.7619879E+00
   2.4785467E-04   2.0346046E+05   -1.7614132E+00
   2.4899928E-04   2.0181619E+05   -1.7608383E+00
   2.5014919E-04   2.0018574E+05   -1.7602634E+00
   2.5130440E-04   1.9856899E+05   -1.7596883E+00
   2.5246495E-04   1.9696582E+05   -1.7591131E+00
   2.5363086E-04   1.9537611E+05   -1.7585378E+00
   2.5480216E-04   1.9379975E+05   -1.7579625E+00
   2.5597886E-04   1.9223661E+05   -1.7573870E+00
   2.5716100E-04   1.9068658E+05   -1.7568115E+00
   2.5834859E-04   1.8914956E+05   -1.7562359E+00
   2.5954168E-04   1.8762542E+05   -1.7556602E+00
   2.6074027E-04   1.8611406E+05   -1.7550845E+00
   2.6194439E-04   1.8461536E+05   -1.7545087E+00
   2.6315408E-04   1.8312921E+05   -1.7539329E+00
   2.6436935E-04   1.8165552E+05   -1.7533570E+00
   2.6559024E-04   1.8019415E+05   -1.7527811E+00
   2.6681676E-04   1.7874502E+05   -1.7522051E+00
   2.6804895E-04   1.7730802E+05   -1.7516292E+00
   2.6928683E-04   1.7588303E+05   -1.7510532E+00
   2.7053042E-04   1.7446996E+05   -1.7504772E+00
   2.7177976E-04   1.7306870E+05   -1.7499012E+00
   2.7303487E-04   1.7167915E+05   -1.7493252E+00
   2.7429577E-04   1.7030121E+05   -1.7487492E+00
   2.7556250E-04   1.6893477E+05   -1.7481732E+00
   2.7683507E-04   1.6757975E+05   -1.7475973E+00
   2.7811353E-04   1.6623603E+05   -1.7470213E+00
   2.7939788E-04   1.6490353E+05   -1.7464454E+00
   2.8068817E-04   1.6358214E+05   -1.7458696E+00
   2.8198442E-04   1.6227177E+05   -1.7452937E+00
   2.8328665E-04   1.6097233E+05   -1.7447180E+00
   2.8459490E-04   1.5968371E+05   -1.7441422E+00
   2.8590919E-04   1.5840583E+05   -1.7435666E+00
   2.8722955E-04   1.5713859E+05   -1.7429910E+00
   2.8855600E-04   1.5588191E+05   -1.7424155E+00
   2.8988859E-04   1.5463568E+05   -1.7418400E+00
   2.9122732E-04   1.5339983E+05   -1.7412647E+00
   2.9257224E-04   1.5217425E+05   -1.7406894E+00
   2.9392337E-04   1.5095887E+05   -1.7401143E+00
   2.9528074E-04   1.4975359E+05   -1.7395392E+00
   2.9664438E-04   1.4855832E+05   -1.7389643E+00
   2.9801431E-04   1.4737299E+05   -1.7383894E+00
   2.9939057E-04   1.4619750E+05   -1.7378147E+00
   3.0077319E-04   1.4503177E+05   -1.7372402E+00
   3.0216219E-04   1.4387572E+05   -1.7366657E+00
   3.0355761E-04   1.4272926E+05   -1.7360914E+00
   3.0495947E-04   1.4159231E+05   -1.7355173E+00
   3.0636780E-04   1.4046479E+05   -1.7349433E+00
   3.0778264E-04   1.3934662E+05   -1.7343694E+00
   3.0920401E-04   1.3823771E+05   -1.7337957E+00
   3.1063195E-04   1.3713799E+05   -1.7332222E+00
   3.1206648E-04   1.3604738E+05   -1.7326489E+00
   3.1350764E-04   1.3496579E+05   -1.7320758E+00
   3.1495545E-04   1.3389316E+05   -1.7315028E+00
   3.1640994E-04   1.3282941E+05   -1.7309300E+00
   3.1787116E-04   1.3177445E+05   -1.7303575E+00
   3.1933912E-04   1.3072822E+05   -1.7297851E+00
   3.2081386E-04   1.2969064E+05   -1.7292130E+00
   3.2229541E-04   1.2866163E+05   -1.7286410E+00
   3.2378381E-04   1.2764112E+05   -1.7280693E+00
   3.2527908E-04   1.2662904E+05   -1.7274979E+00
   3.2678125E-04   1.2562531E+05   -1.7269266E+00
   3.2829036E-04   1.2462987E+05   -1.7263556E+00
   3.2980644E-04   1.2364264E+05   -1.7257849E+00
   3.3132952E-04   1.2266355E+05   -1.7252144E+00
   3.3285963E-04   1.2169254E+05   -1.7246442E+00
   3.3439681E-04   1.2072953E+05   -1.7240742E+00
   3.3594109E-04   1.1977446E+05   -1.7235045E+00
   3.3749250E-04   1.1882725E+05   -1.7229351E+00
   3.3905108E-04   1.1788784E+05   -1.7223660E+00
   3.4061685E-04   1.1695617E+05   -1.7217971E+00
   3.4218986E-04   1.1603216E+05   -1.7212286E+00
   3.4377013E-04   1.1511576E+05   -1.7206603E+00
   3.4535769E-04   1.1420689E+05   -1.7200924E+00
   3.4695259E-04   1.1330550E+05   -1.7195247E+00
   3.4855485E-04   1.1241151E+05   -1.7189574E+00
   3.5016452E-04   1.1152486E+05   -1.7183904E+00
   3.5178161E-04   1.1064550E+05   -1.7178238E+00
   3.5340618E-04   1.0977336E+05   -1.7172575E+00
   3.5503824E-04   1.0890838E+05   -1.7166915E+00
   3.5667785E-04   1.0805050E+05   -1.7161259E+00
   3.5832502E-04   1.0719965E+05   -1.7155606E+00
   3.5997981E-04   1.0635578E+05   -1.7149956E+00
   3.6164223E-04   1.0551883E+05   -1.7144311E+00
   3.6331233E-04   1.0468873E+05   -1.7138669E+00
   3.6499015E-04   1.0386544E+05   -1.7133031E+00
   3.6667571E-04   1.0304889E+05   -1.7127396E+00
   3.6836906E-04   1.0223902E+05   -1.7121766E+00
   3.7007022E-04   1.0143578E+05   -1.7116139E+00
   3.7177925E-04   1.0063911E+05   -1.7110517E+00
   3.7349616E-04   9.9848957E+04   -1.7104898E+00
   3.7522101E-04   9.9065265E+04   -1.7099284E+00
   3.7695382E-04   9.8287977E+04   -1.7093673E+00
   3.7869463E-04   9.7517041E+04   -1.7088067E+00
   3.8044348E-04   9.6752401E+04   -1.7082465E+00
   3.8220041E-04   9.5994005E+04   -1.7076868E+00
   3.8396545E-04   9.5241799E+04   -1.7071274E+00
   3.8573864E-04   9.4495730E+04   -1.7065686E+00
   3.8752002E-04   9.3755747E+04   -1.7060101E+00
   3.8930963E-04   9.3021798E+04   -1.7054521E+00
   3.9110750E-04   9.2293832E+04   -1.7048946E+00
   3.9291368E-04   9.1571798E+04   -1.7043375E+00
   3.9472820E-04   9.0855645E+04   -1.7037809E+00
   3.9655109E-04   9.0145325E+04   -1.7032248E+00
   3.9838241E-04   8.9440786E+04   -1.7026692E+00
   4.0022218E-04   8.8741981E+04   -1.7021140E+00
   4.0207045E-04   8.8048862E+04   -1.7015593E+00
   4.0392725E-04   8.7361379E+04   -1.7010052E+00
   4.0579263E-04   8.6679485E+04   -1.7004515E+00
   4.0766662E-04   8.6003133E+04   -1.6998983E+00
   4.0954927E-04   8.5332276E+04   -1.6993456E+00
   4.1144061E-04   8.4666867E+04   -1.6987935E+00
   4.1334068E-04   8.4006861E+04   -1.6982418E+00
   4.1524953E-04   8.3352211E+04   -1.6976907E+00
   4.1716720E-04   8.2702873E+04   -1.6971402E+00
   4.1909372E-04   8.2058801E+04   -1.6965901E+00
   4.2102914E-04   8.1419951E+04   -1.6960406E+00
   4.2297350E-04   8.0786280E+04   -1.6954917E+00
   4.2492683E-04   8.0157742E+04   -1.6949433E+00
   4.2688919E-04   7.9534296E+04   -1.6943954E+00
   4.2886061E-04   7.8915899E+04   -1.6938481E+00
   4.3084113E-04   7.8302506E+04   -1.6933014E+00
   4.3283080E-04   7.7694077E+04   -1.6927553E+00
   4.3482966E-04   7.7090570E+04   -1.6922097E+00
   4.3683775E-04   7.6491942E+04   -1.6916647E+00
   4.3885511E-04   7.5898154E+04   -1.6911203E+00
   4.4088179E-04   7.5309163E+04   -1.6905764E+00
   4.4291783E-04   7.4724931E+04   -1.6900332E+00
   4.4496327E-04   7.4145416E+04   -1.6894906E+00
   4.4701816E-04   7.3570580E+04   -1.6889486E+00
   4.4908253E-04   7.3000382E+04   -1.6884071E+00
   4.5115644E-04   7.2434784E+04   -1.6878663E+00
   4.5323993E-04   7.1873747E+04   -1.6873261E+00
   4.5533304E-04   7.1317234E+04   -1.6867866E+00
   4.5743582E-04   7.0765205E+04   -1.6862476E+00
   4.5954830E-04   7.0217623E+04   -1.6857093E+00
   4.6167054E-04   6.9674451E+04   -1.6851717E+00
   4.6380259E-04   6.9135653E+04   -1.6846347E+00
   4.6594448E-04   6.8601190E+04   -1.6840983E+00
   4.6809626E-04   6.8071027E+04   -1.6835625E+00
   4.7025797E-04   6.7545128E+04   -1.6830275E+00
   4.7242967E-04   6.7023457E+04   -1.6824930E+00
   4.7461140E-04   6.6505979E+04   -1.6819593E+00
   4.7680321E-04   6.5992658E+04   -1.6814262E+00
   4.7900514E-04   6.5483460E+04   -1.6808938E+00
   4.8121723E-04   6.4978350E+04   -1.6803621E+00
   4.8343954E-04   6.4477295E+04   -1.6798310E+00
   4.8567212E-04   6.3980259E+04   -1.6793006E+00
   4.8791500E-04   6.3487210E+04   -1.6787710E+00
   4.9016825E-04   6.2998115E+04   -1.6782420E+00
   4.9243189E-04   6.2512939E+04   -1.6777137E+00
   4.9470600E-04   6.2031651E+04   -1.6771861E+00
   4.9699060E-04   6.1554218E+04   -1.6766592E+00
   4.9928575E-04   6.1080608E+04   -1.6761331E+00
   5.0159151E-04   6.0610788E+04   -1.6756076E+00
   5.0390791E-04   6.0144728E+04   -1.6750829E+00
   5.0623501E-04   5.9682396E+04   -1.6745589E+00
   5.0857286E-04   5.9223760E+04   -1.6740356E+00
   5.1092150E-04   5.8768791E+04   -1.6735130E+00
   5.1328099E-04   5.8317457E+04   -1.6729912E+00
   5.1565137E-04   5.7869728E+04   -1.6724701E+00
   5.1803270E-04   5.7425575E+04   -1.6719498E+00
   5.2042503E-04   5.6984967E+04   -1.6714302E+00
   5.2282841E-04   5.6547874E+04   -1.6709114E+00
   5.2524289E-04   5.6114269E+04   -1.6703933E+00
   5.2766851E-04   5.5684121E+04   -1.6698760E+00
   5.3010534E-04   5.5257402E+04   -1.6693594E+00
   5.3255342E-04   5.4834084E+04   -1.6688436E+00
   5.3501281E-04   5.4414137E+04   -1.6683286E+00
   5.3748356E-04   5.3997535E+04   -1.6678143E+00
   5.3996571E-04   5.3584249E+04   -1.6673008E+00
   5.4245933E-04   5.3174253E+04   -1.6667881E+00
   5.4496446E-04   5.2767518E+04   -1.6662762E+00
   5.4748117E-04   5.2364017E+04   -1.6657651E+00
   5.5000949E-04   5.1963724E+04   -1.6652548E+00
   5.5254949E-04   5.1566613E+04   -1.6647452E+00
   5.5510123E-04   5.1172656E+04   -1.6642365E+00
   5.5766474E-04   5.0781828E+04   -1.6637286E+00
   5.6024010E-04   5.0394103E+04   -1.6632215E+00
   5.6282734E-04   5.0009454E+04   -1.6627151E+00
   5.6542654E-04   4.9627858E+04   -1.6622096E+00
   5.6803774E-04   4.9249287E+04   -1.6617049E+00
   5.7066099E-04   4.8873718E+04   -1.6612011E+00
   5.7329637E-04   4.8501126E+04   -1.6606980E+00
   5.7594391E-04   4.8131485E+04   -1.6601958E+00
   5.7860368E-04   4.7764773E+04   -1.6596944E+00
   5.8127573E-04   4.7400963E+04   -1.6591939E+00
   5.8396012E-04   4.7040033E+04   -1.6586941E+00
   5.8665691E-04   4.6681959E+04   -1.6581952E+00
   5.8936616E-04   4.6326717E+04   -1.6576972E+00
   5.9208791E-04   4.5974283E+04   -1.6572000E+00
   5.9482223E-04   4.5624635E+04   -1.6567037E+00
   5.9756919E-04   4.5277750E+04   -1.6562082E+00
   6.0032882E-04   4.4933604E+04   -1.6557135E+00
   6.0310120E-04   4.4592176E+04   -1.6552197E+00
   6.0588639E-04   4.4253443E+04   -1.6547268E+00
   6.0868443E-04   4.3917382E+04   -1.6542348E+00
   6.1149540E-04   4.3583973E+04   -1.6537436E+00
   6.1431935E-04   4.3253192E+04   -1.6532532E+00
   6.1715634E-04   4.2925019E+04   -1.6527638E+00
   6.2000644E-04   4.2599431E+04   -1.6522752E+00
   6.2286969E-04   4.2276409E+04   -1.6517875E+00
