#        a       HoverH0(a)       dlogHdloga_of_a(a)
   1.0000000E-04   1.1239229E+06   -1.8474626E+00
   1.0046181E-04   1.1143978E+06   -1.8469737E+00
   1.0092575E-04   1.1049559E+06   -1.8464840E+00
   1.0139184E-04   1.0955964E+06   -1.8459934E+00
   1.0186008E-04   1.0863187E+06   -1.8455019E+00
   1.0233048E-04   1.0771220E+06   -1.8450096E+00
   1.0280305E-04   1.0680056E+06   -1.8445164E+00
   1.0327781E-04   1.0589688E+06   -1.8440223E+00
   1.0375475E-04   1.0500108E+06   -1.8435274E+00
   1.0423390E-04   1.0411310E+06   -1.8430316E+00
   1.0471527E-04   1.0323286E+06   -1.8425350E+00
   1.0519885E-04   1.0236030E+06   -1.8420376E+00
   1.0568467E-04   1.0149534E+06   -1.8415392E+00
   1.0617274E-04   1.0063793E+06   -1.8410401E+00
   1.0666305E-04   9.9787988E+05   -1.8405401E+00
   1.0715563E-04   9.8945454E+05   -1.8400393E+00
   1.0765049E-04   9.8110261E+05   -1.8395376E+00
   1.0814763E-04   9.7282342E+05   -1.8390351E+00
   1.0864707E-04   9.6461633E+05   -1.8385318E+00
   1.0914881E-04   9.5648070E+05   -1.8380277E+00
   1.0965287E-04   9.4841589E+05   -1.8375227E+00
   1.1015926E-04   9.4042127E+05   -1.8370170E+00
   1.1066799E-04   9.3249622E+05   -1.8365104E+00
   1.1117906E-04   9.2464011E+05   -1.8360030E+00
   1.1169250E-04   9.1685233E+05   -1.8354948E+00
   1.1220831E-04   9.0913228E+05   -1.8349858E+00
   1.1272650E-04   9.0147934E+05   -1.8344760E+00
   1.1324708E-04   8.9389293E+05   -1.8339654E+00
   1.1377007E-04   8.8637245E+05   -1.8334541E+00
   1.1429547E-04   8.7891731E+05   -1.8329419E+00
   1.1482330E-04   8.7152694E+05   -1.8324289E+00
   1.1535356E-04   8.6420075E+05   -1.8319152E+00
   1.1588628E-04   8.5693817E+05   -1.8314007E+00
   1.1642145E-04   8.4973865E+05   -1.8308854E+00
   1.1695910E-04   8.4260161E+05   -1.8303694E+00
   1.1749923E-04   8.3552650E+05   -1.8298526E+00
   1.1804185E-04   8.2851278E+05   -1.8293350E+00
   1.1858698E-04   8.2155989E+05   -1.8288167E+00
   1.1913463E-04   8.1466730E+05   -1.8282976E+00
   1.1968481E-04   8.0783447E+05   -1.8277778E+00
   1.2023752E-04   8.0106087E+05   -1.8272572E+00
   1.2079279E-04   7.9434597E+05   -1.8267359E+00
   1.2135063E-04   7.8768925E+05   -1.8262138E+00
   1.2191104E-04   7.8109020E+05   -1.8256910E+00
   1.2247403E-04   7.7454830E+05   -1.8251675E+00
   1.2303963E-04   7.6806304E+05   -1.8246432E+00
   1.2360784E-04   7.6163393E+05   -1.8241183E+00
   1.2417868E-04   7.5526046E+05   -1.8235926E+00
   1.2475215E-04   7.4894213E+05   -1.8230662E+00
   1.2532826E-04   7.4267847E+05   -1.8225391E+00
   1.2590704E-04   7.3646898E+05   -1.8220113E+00
   1.2648850E-04   7.3031319E+05   -1.8214827E+00
   1.2707263E-04   7.2421061E+05   -1.8209535E+00
   1.2765947E-04   7.1816078E+05   -1.8204236E+00
   1.2824901E-04   7.1216323E+05   -1.8198930E+00
   1.2884128E-04   7.0621749E+05   -1.8193617E+00
   1.2943628E-04   7.0032311E+05   -1.8188298E+00
   1.3003403E-04   6.9447963E+05   -1.8182971E+00
   1.3063454E-04   6.8868660E+05   -1.8177638E+00
   1.3123783E-04   6.8294357E+05   -1.8172299E+00
   1.3184390E-04   6.7725010E+05   -1.8166952E+00
   1.3245277E-04   6.7160575E+05   -1.8161599E+00
   1.3306445E-04   6.6601009E+05   -1.8156240E+00
   1.3367895E-04   6.6046267E+05   -1.8150874E+00
   1.3429630E-04   6.5496309E+05   -1.8145502E+00
   1.3491649E-04   6.4951090E+05   -1.8140123E+00
   1.3553955E-04   6.4410570E+05   -1.8134738E+00
   1.3616548E-04   6.3874707E+05   -1.8129346E+00
   1.3679431E-04   6.3343460E+05   -1.8123949E+00
   1.3742604E-04   6.2816787E+05   -1.8118545E+00
   1.3806069E-04   6.2294648E+05   -1.8113135E+00
   1.3869827E-04   6.1777004E+05   -1.8107719E+00
   1.3933879E-04   6.1263814E+05   -1.8102296E+00
   1.3998227E-04   6.0755039E+05   -1.8096868E+00
   1.4062872E-04   6.0250639E+05   -1.8091434E+00
   1.4127816E-04   5.9750578E+05   -1.8085994E+00
   1.4193060E-04   5.9254815E+05   -1.8080547E+00
   1.4258605E-04   5.8763313E+05   -1.8075096E+00
   1.4324453E-04   5.8276034E+05   -1.8069638E+00
   1.4390605E-04   5.7792941E+05   -1.8064174E+00
   1.4457062E-04   5.7313998E+05   -1.8058705E+00
   1.4523826E-04   5.6839167E+05   -1.8053231E+00
   1.4590899E-04   5.6368412E+05   -1.8047750E+00
   1.4658281E-04   5.5901697E+05   -1.8042264E+00
   1.4725974E-04   5.5438987E+05   -1.8036773E+00
   1.4793981E-04   5.4980246E+05   -1.8031276E+00
   1.4862301E-04   5.4525439E+05   -1.8025774E+00
   1.4930936E-04   5.4074531E+05   -1.8020267E+00
   1.4999889E-04   5.3627488E+05   -1.8014754E+00
   1.5069160E-04   5.3184276E+05   -1.8009236E+00
   1.5138751E-04   5.2744862E+05   -1.8003713E+00
   1.5208663E-04   5.2309211E+05   -1.7998184E+00
   1.5278899E-04   5.1877290E+05   -1.7992651E+00
   1.5349458E-04   5.1449067E+05   -1.7987112E+00
   1.5420343E-04   5.1024510E+05   -1.7981569E+00
   1.5491556E-04   5.0603585E+05   -1.7976021E+00
   1.5563098E-04   5.0186260E+05   -1.7970467E+00
   1.5634970E-04   4.9772505E+05   -1.7964909E+00
   1.5707174E-04   4.9362288E+05   -1.7959347E+00
   1.5779711E-04   4.8955576E+05   -1.7953779E+00
   1.5852584E-04   4.8552341E+05   -1.7948207E+00
   1.5925792E-04   4.8152550E+05   -1.7942630E+00
   1.5999339E-04   4.7756175E+05   -1.7937049E+00
   1.6073226E-04   4.7363183E+05   -1.7931463E+00
   1.6147454E-04   4.6973547E+05   -1.7925873E+00
   1.6222024E-04   4.6587236E+05   -1.7920278E+00
   1.6296939E-04   4.6204222E+05   -1.7914679E+00
   1.6372200E-04   4.5824475E+05   -1.7909076E+00
   1.6447809E-04   4.5447966E+05   -1.7903468E+00
   1.6523767E-04   4.5074667E+05   -1.7897856E+00
   1.6600075E-04   4.4704550E+05   -1.7892241E+00
   1.6676736E-04   4.4337587E+05   -1.7886621E+00
   1.6753751E-04   4.3973750E+05   -1.7880997E+00
   1.6831122E-04   4.3613011E+05   -1.7875369E+00
   1.6908849E-04   4.3255344E+05   -1.7869737E+00
   1.6986936E-04   4.2900722E+05   -1.7864102E+00
   1.7065384E-04   4.2549118E+05   -1.7858462E+00
   1.7144193E-04   4.2200505E+05   -1.7852819E+00
   1.7223367E-04   4.1854857E+05   -1.7847172E+00
   1.7302906E-04   4.1512148E+05   -1.7841522E+00
   1.7382813E-04   4.1172352E+05   -1.7835868E+00
   1.7463089E-04   4.0835445E+05   -1.7830211E+00
   1.7543735E-04   4.0501399E+05   -1.7824550E+00
   1.7624754E-04   4.0170192E+05   -1.7818886E+00
   1.7706147E-04   3.9841796E+05   -1.7813218E+00
   1.7787916E-04   3.9516189E+05   -1.7807547E+00
   1.7870062E-04   3.9193345E+05   -1.7801873E+00
   1.7952588E-04   3.8873240E+05   -1.7796196E+00
   1.8035495E-04   3.8555851E+05   -1.7790515E+00
   1.8118785E-04   3.8241153E+05   -1.7784832E+00
   1.8202459E-04   3.7929123E+05   -1.7779146E+00
   1.8286520E-04   3.7619737E+05   -1.7773456E+00
   1.8370969E-04   3.7312973E+05   -1.7767764E+00
   1.8455808E-04   3.7008808E+05   -1.7762069E+00
   1.8541039E-04   3.6707219E+05   -1.7756371E+00
   1.8626663E-04   3.6408182E+05   -1.7750671E+00
   1.8712683E-04   3.6111677E+05   -1.7744968E+00
   1.8799100E-04   3.5817681E+05   -1.7739262E+00
   1.8885917E-04   3.5526171E+05   -1.7733554E+00
   1.8973134E-04   3.5237127E+05   -1.7727843E+00
   1.9060754E-04   3.4950526E+05   -1.7722130E+00
   1.9148778E-04   3.4666348E+05   -1.7716415E+00
   1.9237209E-04   3.4384571E+05   -1.7710697E+00
   1.9326049E-04   3.4105174E+05   -1.7704977E+00
   1.9415299E-04   3.3828136E+05   -1.7699255E+00
   1.9504960E-04   3.3553438E+05   -1.7693531E+00
   1.9595036E-04   3.3281058E+05   -1.7687805E+00
   1.9685528E-04   3.3010976E+05   -1.7682077E+00
   1.9776438E-04   3.2743172E+05   -1.7676346E+00
   1.9867768E-04   3.2477627E+05   -1.7670614E+00
   1.9959519E-04   3.2214320E+05   -1.7664881E+00
   2.0051694E-04   3.1953233E+05   -1.7659145E+00
   2.0144295E-04   3.1694345E+05   -1.7653408E+00
   2.0237324E-04   3.1437638E+05   -1.7647669E+00
   2.0330782E-04   3.1183092E+05   -1.7641929E+00
   2.0424671E-04   3.0930690E+05   -1.7636187E+00
   2.0518995E-04   3.0680411E+05   -1.7630443E+00
   2.0613754E-04   3.0432239E+05   -1.7624699E+00
   2.0708950E-04   3.0186153E+05   -1.7618953E+00
   2.0804586E-04   2.9942137E+05   -1.7613205E+00
   2.0900664E-04   2.9700172E+05   -1.7607457E+00
   2.0997185E-04   2.9460241E+05   -1.7601707E+00
   2.1094152E-04   2.9222325E+05   -1.7595956E+00
   2.1191567E-04   2.8986407E+05   -1.7590205E+00
   2.1289432E-04   2.8752470E+05   -1.7584452E+00
   2.1387749E-04   2.8520497E+05   -1.7578698E+00
   2.1486520E-04   2.8290470E+05   -1.7572944E+00
   2.1585747E-04   2.8062373E+05   -1.7567188E+00
   2.1685432E-04   2.7836189E+05   -1.7561432E+00
   2.1785578E-04   2.7611901E+05   -1.7555676E+00
   2.1886186E-04   2.7389493E+05   -1.7549919E+00
   2.1987259E-04   2.7168948E+05   -1.7544161E+00
   2.2088798E-04   2.6950251E+05   -1.7538403E+00
   2.2190807E-04   2.6733385E+05   -1.7532644E+00
   2.2293286E-04   2.6518335E+05   -1.7526885E+00
   2.2396239E-04   2.6305084E+05   -1.7521126E+00
   2.2499667E-04   2.6093618E+05   -1.7515366E+00
   2.2603573E-04   2.5883920E+05   -1.7509607E+00
   2.2707958E-04   2.5675975E+05   -1.7503847E+00
   2.2812826E-04   2.5469769E+05   -1.7498087E+00
   2.2918178E-04   2.5265286E+05   -1.7492327E+00
   2.3024017E-04   2.5062510E+05   -1.7486568E+00
   2.3130344E-04   2.4861429E+05   -1.7480808E+00
   2.3237162E-04   2.4662026E+05   -1.7475049E+00
   2.3344474E-04   2.4464287E+05   -1.7469290E+00
   2.3452281E-04   2.4268198E+05   -1.7463531E+00
   2.3560586E-04   2.4073745E+05   -1.7457772E+00
   2.3669392E-04   2.3880914E+05   -1.7452014E+00
   2.3778699E-04   2.3689689E+05   -1.7446257E+00
   2.3888512E-04   2.3500059E+05   -1.7440500E+00
   2.3998831E-04   2.3312008E+05   -1.7434744E+00
   2.4109661E-04   2.3125523E+05   -1.7428988E+00
   2.4221001E-04   2.2940590E+05   -1.7423233E+00
   2.4332857E-04   2.2757197E+05   -1.7417479E+00
   2.4445228E-04   2.2575330E+05   -1.7411726E+00
   2.4558119E-04   2.2394976E+05   -1.7405974E+00
   2.4671531E-04   2.2216121E+05   -1.7400223E+00
   2.4785467E-04   2.2038754E+05   -1.7394473E+00
   2.4899928E-04   2.1862860E+05   -1.7388724E+00
   2.5014919E-04   2.1688427E+05   -1.7382976E+00
   2.5130440E-04   2.1515444E+05   -1.7377229E+00
   2.5246495E-04   2.1343896E+05   -1.7371484E+00
   2.5363086E-04   2.1173772E+05   -1.7365740E+00
   2.5480216E-04   2.1005060E+05   -1.7359997E+00
   2.5597886E-04   2.0837747E+05   -1.7354256E+00
   2.5716100E-04   2.0671822E+05   -1.7348517E+00
   2.5834859E-04   2.0507272E+05   -1.7342779E+00
   2.5954168E-04   2.0344085E+05   -1.7337043E+00
   2.6074027E-04   2.0182251E+05   -1.7331308E+00
   2.6194439E-04   2.0021756E+05   -1.7325575E+00
   2.6315408E-04   1.9862591E+05   -1.7319844E+00
   2.6436935E-04   1.9704743E+05   -1.7314115E+00
   2.6559024E-04   1.9548201E+05   -1.7308388E+00
   2.6681676E-04   1.9392953E+05   -1.7302663E+00
   2.6804895E-04   1.9238990E+05   -1.7296940E+00
   2.6928683E-04   1.9086299E+05   -1.7291219E+00
   2.7053042E-04   1.8934869E+05   -1.7285500E+00
   2.7177976E-04   1.8784691E+05   -1.7279784E+00
   2.7303487E-04   1.8635753E+05   -1.7274070E+00
   2.7429577E-04   1.8488044E+05   -1.7268358E+00
   2.7556250E-04   1.8341555E+05   -1.7262649E+00
   2.7683507E-04   1.8196274E+05   -1.7256942E+00
   2.7811353E-04   1.8052191E+05   -1.7251238E+00
   2.7939788E-04   1.7909296E+05   -1.7245536E+00
   2.8068817E-04   1.7767579E+05   -1.7239837E+00
   2.8198442E-04   1.7627029E+05   -1.7234141E+00
   2.8328665E-04   1.7487638E+05   -1.7228448E+00
   2.8459490E-04   1.7349394E+05   -1.7222757E+00
   2.8590919E-04   1.7212288E+05   -1.7217069E+00
   2.8722955E-04   1.7076310E+05   -1.7211385E+00
   2.8855600E-04   1.6941451E+05   -1.7205703E+00
   2.8988859E-04   1.6807701E+05   -1.7200024E+00
   2.9122732E-04   1.6675050E+05   -1.7194349E+00
   2.9257224E-04   1.6543490E+05   -1.7188676E+00
   2.9392337E-04   1.6413010E+05   -1.7183007E+00
   2.9528074E-04   1.6283602E+05   -1.7177342E+00
   2.9664438E-04   1.6155257E+05   -1.7171679E+00
   2.9801431E-04   1.6027965E+05   -1.7166020E+00
   2.9939057E-04   1.5901717E+05   -1.7160365E+00
   3.0077319E-04   1.5776505E+05   -1.7154713E+00
   3.0216219E-04   1.5652319E+05   -1.7149064E+00
   3.0355761E-04   1.5529152E+05   -1.7143420E+00
   3.0495947E-04   1.5406994E+05   -1.7137779E+00
   3.0636780E-04   1.5285836E+05   -1.7132141E+00
   3.0778264E-04   1.5165671E+05   -1.7126508E+00
   3.0920401E-04   1.5046489E+05   -1.7120878E+00
   3.1063195E-04   1.4928282E+05   -1.7115253E+00
   3.1206648E-04   1.4811043E+05   -1.7109631E+00
   3.1350764E-04   1.4694762E+05   -1.7104013E+00
   3.1495545E-04   1.4579432E+05   -1.7098400E+00
   3.1640994E-04   1.4465045E+05   -1.7092791E+00
   3.1787116E-04   1.4351592E+05   -1.7087185E+00
   3.1933912E-04   1.4239066E+05   -1.7081584E+00
   3.2081386E-04   1.4127458E+05   -1.7075988E+00
   3.2229541E-04   1.4016761E+05   -1.7070396E+00
   3.2378381E-04   1.3906968E+05   -1.7064808E+00
   3.2527908E-04   1.3798070E+05   -1.7059224E+00
   3.2678125E-04   1.3690060E+05   -1.7053646E+00
   3.2829036E-04   1.3582930E+05   -1.7048071E+00
   3.2980644E-04   1.3476673E+05   -1.7042502E+00
   3.3132952E-04   1.3371282E+05   -1.7036937E+00
   3.3285963E-04   1.3266749E+05   -1.7031377E+00
   3.3439681E-04   1.3163067E+05   -1.7025821E+00
   3.3594109E-04   1.3060229E+05   -1.7020271E+00
   3.3749250E-04   1.2958227E+05   -1.7014725E+00
   3.3905108E-04   1.2857055E+05   -1.7009184E+00
   3.4061685E-04   1.2756705E+05   -1.7003649E+00
   3.4218986E-04   1.2657170E+05   -1.6998118E+00
   3.4377013E-04   1.2558445E+05   -1.6992593E+00
   3.4535769E-04   1.2460521E+05   -1.6987072E+00
   3.4695259E-04   1.2363392E+05   -1.6981557E+00
   3.4855485E-04   1.2267051E+05   -1.6976047E+00
   3.5016452E-04   1.2171492E+05   -1.6970543E+00
   3.5178161E-04   1.2076708E+05   -1.6965044E+00
   3.5340618E-04   1.1982692E+05   -1.6959550E+00
   3.5503824E-04   1.1889438E+05   -1.6954061E+00
   3.5667785E-04   1.1796940E+05   -1.6948579E+00
   3.5832502E-04   1.1705191E+05   -1.6943101E+00
   3.5997981E-04   1.1614185E+05   -1.6937630E+00
   3.6164223E-04   1.1523916E+05   -1.6932164E+00
   3.6331233E-04   1.1434377E+05   -1.6926704E+00
   3.6499015E-04   1.1345562E+05   -1.6921249E+00
   3.6667571E-04   1.1257465E+05   -1.6915800E+00
   3.6836906E-04   1.1170081E+05   -1.6910358E+00
   3.7007022E-04   1.1083402E+05   -1.6904921E+00
   3.7177925E-04   1.0997424E+05   -1.6899490E+00
   3.7349616E-04   1.0912139E+05   -1.6894065E+00
   3.7522101E-04   1.0827544E+05   -1.6888646E+00
   3.7695382E-04   1.0743631E+05   -1.6883233E+00
   3.7869463E-04   1.0660394E+05   -1.6877826E+00
   3.8044348E-04   1.0577829E+05   -1.6872426E+00
   3.8220041E-04   1.0495930E+05   -1.6867031E+00
   3.8396545E-04   1.0414691E+05   -1.6861643E+00
   3.8573864E-04   1.0334106E+05   -1.6856262E+00
   3.8752002E-04   1.0254170E+05   -1.6850887E+00
   3.8930963E-04   1.0174877E+05   -1.6845518E+00
   3.9110750E-04   1.0096223E+05   -1.6840155E+00
   3.9291368E-04   1.0018201E+05   -1.6834799E+00
   3.9472820E-04   9.9408067E+04   -1.6829450E+00
   3.9655109E-04   9.8640347E+04   -1.6824107E+00
   3.9838241E-04   9.7878796E+04   -1.6818771E+00
   4.0022218E-04   9.7123363E+04   -1.6813442E+00
   4.0207045E-04   9.6373998E+04   -1.6808119E+00
   4.0392725E-04   9.5630649E+04   -1.6802803E+00
   4.0579263E-04   9.4893266E+04   -1.6797494E+00
   4.0766662E-04   9.4161798E+04   -1.6792192E+00
   4.0954927E-04   9.3436198E+04   -1.6786897E+00
   4.1144061E-04   9.2716414E+04   -1.6781609E+00
   4.1334068E-04   9.2002400E+04   -1.6776327E+00
   4.1524953E-04   9.1294106E+04   -1.6771053E+00
   4.1716720E-04   9.0591485E+04   -1.6765786E+00
   4.1909372E-04   8.9894489E+04   -1.6760526E+00
   4.2102914E-04   8.9203072E+04   -1.6755273E+00
   4.2297350E-04   8.8517187E+04   -1.6750027E+00
   4.2492683E-04   8.7836788E+04   -1.6744788E+00
   4.2688919E-04   8.7161830E+04   -1.6739557E+00
   4.2886061E-04   8.6492266E+04   -1.6734333E+00
   4.3084113E-04   8.5828052E+04   -1.6729117E+00
   4.3283080E-04   8.5169144E+04   -1.6723907E+00
   4.3482966E-04   8.4515497E+04   -1.6718706E+00
   4.3683775E-04   8.3867067E+04   -1.6713511E+00
   4.3885511E-04   8.3223811E+04   -1.6708325E+00
   4.4088179E-04   8.2585686E+04   -1.6703145E+00
   4.4291783E-04   8.1952649E+04   -1.6697974E+00
   4.4496327E-04   8.1324659E+04   -1.6692810E+00
   4.4701816E-04   8.0701672E+04   -1.6687654E+00
   4.4908253E-04   8.0083648E+04   -1.6682505E+00
   4.5115644E-04   7.9470545E+04   -1.6677364E+00
   4.5323993E-04   7.8862323E+04   -1.6672231E+00
   4.5533304E-04   7.8258940E+04   -1.6667106E+00
   4.5743582E-04   7.7660358E+04   -1.6661988E+00
   4.5954830E-04   7.7066535E+04   -1.6656879E+00
   4.6167054E-04   7.6477433E+04   -1.6651777E+00
   4.6380259E-04   7.5893012E+04   -1.6646684E+00
   4.6594448E-04   7.5313234E+04   -1.6641598E+00
   4.6809626E-04   7.4738060E+04   -1.6636521E+00
   4.7025797E-04   7.4167452E+04   -1.6631451E+00
   4.7242967E-04   7.3601372E+04   -1.6626390E+00
   4.7461140E-04   7.3039783E+04   -1.6621336E+00
   4.7680321E-04   7.2482648E+04   -1.6616291E+00
   4.7900514E-04   7.1929929E+04   -1.6611254E+00
   4.8121723E-04   7.1381591E+04   -1.6606226E+00
   4.8343954E-04   7.0837597E+04   -1.6601205E+00
   4.8567212E-04   7.0297911E+04   -1.6596193E+00
   4.8791500E-04   6.9762498E+04   -1.6591189E+00
   4.9016825E-04   6.9231322E+04   -1.6586194E+00
   4.9243189E-04   6.8704349E+04   -1.6581207E+00
   4.9470600E-04   6.8181543E+04   -1.6576228E+00
   4.9699060E-04   6.7662870E+04   -1.6571258E+00
   4.9928575E-04   6.7148297E+04   -1.6566297E+00
   5.0159151E-04   6.6637790E+04   -1.6561343E+00
   5.0390791E-04   6.6131314E+04   -1.6556399E+00
   5.0623501E-04   6.5628837E+04   -1.6551463E+00
   5.0857286E-04   6.5130326E+04   -1.6546536E+00
   5.1092150E-04   6.4635749E+04   -1.6541617E+00
   5.1328099E-04   6.4145072E+04   -1.6536707E+00
   5.1565137E-04   6.3658264E+04   -1.6531805E+00
   5.1803270E-04   6.3175293E+04   -1.6526913E+00
   5.2042503E-04   6.2696128E+04   -1.6522029E+00
   5.2282841E-04   6.2220737E+04   -1.6517154E+00
   5.2524289E-04   6.1749089E+04   -1.6512288E+00
   5.2766851E-04   6.1281153E+04   -1.6507430E+00
   5.3010534E-04   6.0816900E+04   -1.6502582E+00
   5.3255342E-04   6.0356298E+04   -1.6497742E+00
   5.3501281E-04   5.9899318E+04   -1.6492911E+00
   5.3748356E-04   5.9445930E+04   -1.6488090E+00
   5.3996571E-04   5.8996105E+04   -1.6483277E+00
   5.4245933E-04   5.8549814E+04   -1.6478473E+00
   5.4496446E-04   5.8107027E+04   -1.6473678E+00
   5.4748117E-04   5.7667716E+04   -1.6468892E+00
   5.5000949E-04   5.7231852E+04   -1.6464116E+00
   5.5254949E-04   5.6799408E+04   -1.6459348E+00
   5.5510123E-04   5.6370355E+04   -1.6454590E+00
   5.5766474E-04   5.5944665E+04   -1.6449841E+00
   5.6024010E-04   5.5522312E+04   -1.6445100E+00
   5.6282734E-04   5.5103267E+04   -1.6440370E+00
   5.6542654E-04   5.4687504E+04   -1.6435648E+00
   5.6803774E-04   5.4274996E+04   -1.6430935E+00
   5.7066099E-04   5.3865716E+04   -1.6426232E+00
   5.7329637E-04   5.3459639E+04   -1.6421538E+00
   5.7594391E-04   5.3056737E+04   -1.6416854E+00
   5.7860368E-04   5.2656985E+04   -1.6412179E+00
   5.8127573E-04   5.2260358E+04   -1.6407513E+00
   5.8396012E-04   5.1866830E+04   -1.6402856E+00
   5.8665691E-04   5.1476375E+04   -1.6398209E+00
   5.8936616E-04   5.1088969E+04   -1.6393571E+00
   5.9208791E-04   5.0704587E+04   -1.6388943E+00
   5.9482223E-04   5.0323204E+04   -1.6384324E+00
   5.9756919E-04   4.9944796E+04   -1.6379715E+00
   6.0032882E-04   4.9569338E+04   -1.6375115E+00
   6.0310120E-04   4.9196807E+04   -1.6370525E+00
   6.0588639E-04   4.8827179E+04   -1.6365944E+00
   6.0868443E-04   4.8460430E+04   -1.6361373E+00
   6.1149540E-04   4.8096537E+04   -1.6356811E+00
   6.1431935E-04   4.7735477E+04   -1.6352259E+00
   6.1715634E-04   4.7377226E+04   -1.6347717E+00
   6.2000644E-04   4.7021763E+04   -1.6343184E+00
   6.2286969E-04   4.6669064E+04   -1.6338661E+00
