#        a       HoverH0(a)       dlogHdloga_of_a(a)
   1.0000000E-04   1.1257125E+06   -1.8963744E+00
   1.0046181E-04   1.1159204E+06   -1.8959954E+00
   1.0092575E-04   1.1062154E+06   -1.8956153E+00
   1.0139184E-04   1.0965968E+06   -1.8952343E+00
   1.0186008E-04   1.0870637E+06   -1.8948522E+00
   1.0233048E-04   1.0776154E+06   -1.8944691E+00
   1.0280305E-04   1.0682510E+06   -1.8940849E+00
   1.0327781E-04   1.0589700E+06   -1.8936998E+00
   1.0375475E-04   1.0497714E+06   -1.8933136E+00
   1.0423390E-04   1.0406546E+06   -1.8929264E+00
   1.0471527E-04   1.0316188E+06   -1.8925382E+00
   1.0519885E-04   1.0226633E+06   -1.8921489E+00
   1.0568467E-04   1.0137873E+06   -1.8917587E+00
   1.0617274E-04   1.0049902E+06   -1.8913674E+00
   1.0666305E-04   9.9627127E+05   -1.8909751E+00
   1.0715563E-04   9.8762973E+05   -1.8905818E+00
   1.0765049E-04   9.7906493E+05   -1.8901874E+00
   1.0814763E-04   9.7057618E+05   -1.8897921E+00
   1.0864707E-04   9.6216277E+05   -1.8893957E+00
   1.0914881E-04   9.5382404E+05   -1.8889983E+00
   1.0965287E-04   9.4555931E+05   -1.8885999E+00
   1.1015926E-04   9.3736792E+05   -1.8882004E+00
   1.1066799E-04   9.2924920E+05   -1.8878000E+00
   1.1117906E-04   9.2120250E+05   -1.8873985E+00
   1.1169250E-04   9.1322718E+05   -1.8869960E+00
   1.1220831E-04   9.0532257E+05   -1.8865925E+00
   1.1272650E-04   8.9748806E+05   -1.8861879E+00
   1.1324708E-04   8.8972301E+05   -1.8857824E+00
   1.1377007E-04   8.8202680E+05   -1.8853758E+00
   1.1429547E-04   8.7439879E+05   -1.8849682E+00
   1.1482330E-04   8.6683839E+05   -1.8845596E+00
   1.1535356E-04   8.5934498E+05   -1.8841500E+00
   1.1588628E-04   8.5191795E+05   -1.8837394E+00
   1.1642145E-04   8.4455671E+05   -1.8833278E+00
   1.1695910E-04   8.3726067E+05   -1.8829151E+00
   1.1749923E-04   8.3002923E+05   -1.8825015E+00
   1.1804185E-04   8.2286183E+05   -1.8820868E+00
   1.1858698E-04   8.1575788E+05   -1.8816711E+00
   1.1913463E-04   8.0871680E+05   -1.8812544E+00
   1.1968481E-04   8.0173805E+05   -1.8808367E+00
   1.2023752E-04   7.9482104E+05   -1.8804180E+00
   1.2079279E-04   7.8796524E+05   -1.8799983E+00
   1.2135063E-04   7.8117009E+05   -1.8795775E+00
   1.2191104E-04   7.7443503E+05   -1.8791558E+00
   1.2247403E-04   7.6775954E+05   -1.8787330E+00
   1.2303963E-04   7.6114307E+05   -1.8783093E+00
   1.2360784E-04   7.5458510E+05   -1.8778846E+00
   1.2417868E-04   7.4808510E+05   -1.8774588E+00
   1.2475215E-04   7.4164255E+05   -1.8770321E+00
   1.2532826E-04   7.3525692E+05   -1.8766043E+00
   1.2590704E-04   7.2892772E+05   -1.8761755E+00
   1.2648850E-04   7.2265442E+05   -1.8757458E+00
   1.2707263E-04   7.1643654E+05   -1.8753150E+00
   1.2765947E-04   7.1027357E+05   -1.8748833E+00
   1.2824901E-04   7.0416501E+05   -1.8744506E+00
   1.2884128E-04   6.9811039E+05   -1.8740168E+00
   1.2943628E-04   6.9210921E+05   -1.8735821E+00
   1.3003403E-04   6.8616099E+05   -1.8731464E+00
   1.3063454E-04   6.8026526E+05   -1.8727097E+00
   1.3123783E-04   6.7442155E+05   -1.8722720E+00
   1.3184390E-04   6.6862939E+05   -1.8718333E+00
   1.3245277E-04   6.6288831E+05   -1.8713936E+00
   1.3306445E-04   6.5719786E+05   -1.8709530E+00
   1.3367895E-04   6.5155759E+05   -1.8705113E+00
   1.3429630E-04   6.4596703E+05   -1.8700687E+00
   1.3491649E-04   6.4042576E+05   -1.8696251E+00
   1.3553955E-04   6.3493331E+05   -1.8691805E+00
   1.3616548E-04   6.2948926E+05   -1.8687350E+00
   1.3679431E-04   6.2409318E+05   -1.8682884E+00
   1.3742604E-04   6.1874462E+05   -1.8678409E+00
   1.3806069E-04   6.1344317E+05   -1.8673925E+00
   1.3869827E-04   6.0818840E+05   -1.8669430E+00
   1.3933879E-04   6.0297989E+05   -1.8664926E+00
   1.3998227E-04   5.9781723E+05   -1.8660412E+00
   1.4062872E-04   5.9270001E+05   -1.8655888E+00
   1.4127816E-04   5.8762781E+05   -1.8651355E+00
   1.4193060E-04   5.8260024E+05   -1.8646812E+00
   1.4258605E-04   5.7761689E+05   -1.8642260E+00
   1.4324453E-04   5.7267737E+05   -1.8637698E+00
   1.4390605E-04   5.6778129E+05   -1.8633126E+00
   1.4457062E-04   5.6292825E+05   -1.8628545E+00
   1.4523826E-04   5.5811787E+05   -1.8623954E+00
   1.4590899E-04   5.5334978E+05   -1.8619354E+00
   1.4658281E-04   5.4862358E+05   -1.8614744E+00
   1.4725974E-04   5.4393890E+05   -1.8610125E+00
   1.4793981E-04   5.3929537E+05   -1.8605496E+00
   1.4862301E-04   5.3469263E+05   -1.8600858E+00
   1.4930936E-04   5.3013030E+05   -1.8596210E+00
   1.4999889E-04   5.2560803E+05   -1.8591553E+00
   1.5069160E-04   5.2112546E+05   -1.8586887E+00
   1.5138751E-04   5.1668222E+05   -1.8582211E+00
   1.5208663E-04   5.1227798E+05   -1.8577526E+00
   1.5278899E-04   5.0791237E+05   -1.8572832E+00
   1.5349458E-04   5.0358506E+05   -1.8568128E+00
   1.5420343E-04   4.9929570E+05   -1.8563415E+00
   1.5491556E-04   4.9504395E+05   -1.8558693E+00
   1.5563098E-04   4.9082948E+05   -1.8553961E+00
   1.5634970E-04   4.8665194E+05   -1.8549221E+00
   1.5707174E-04   4.8251102E+05   -1.8544471E+00
   1.5779711E-04   4.7840638E+05   -1.8539712E+00
   1.5852584E-04   4.7433770E+05   -1.8534944E+00
   1.5925792E-04   4.7030466E+05   -1.8530167E+00
   1.5999339E-04   4.6630693E+05   -1.8525380E+00
   1.6073226E-04   4.6234420E+05   -1.8520585E+00
   1.6147454E-04   4.5841617E+05   -1.8515781E+00
   1.6222024E-04   4.5452251E+05   -1.8510967E+00
   1.6296939E-04   4.5066293E+05   -1.8506145E+00
   1.6372200E-04   4.4683712E+05   -1.8501314E+00
   1.6447809E-04   4.4304477E+05   -1.8496474E+00
   1.6523767E-04   4.3928559E+05   -1.8491624E+00
   1.6600075E-04   4.3555927E+05   -1.8486766E+00
   1.6676736E-04   4.3186554E+05   -1.8481900E+00
   1.6753751E-04   4.2820409E+05   -1.8477024E+00
   1.6831122E-04   4.2457463E+05   -1.8472140E+00
   1.6908849E-04   4.2097689E+05   -1.8467246E+00
   1.6986936E-04   4.1741058E+05   -1.8462344E+00
   1.7065384E-04   4.1387541E+05   -1.8457434E+00
   1.7144193E-04   4.1037111E+05   -1.8452514E+00
   1.7223367E-04   4.0689741E+05   -1.8447586E+00
   1.7302906E-04   4.0345403E+05   -1.8442650E+00
   1.7382813E-04   4.0004070E+05   -1.8437705E+00
   1.7463089E-04   3.9665715E+05   -1.8432751E+00
   1.7543735E-04   3.9330312E+05   -1.8427789E+00
   1.7624754E-04   3.8997834E+05   -1.8422818E+00
   1.7706147E-04   3.8668255E+05   -1.8417839E+00
   1.7787916E-04   3.8341550E+05   -1.8412851E+00
   1.7870062E-04   3.8017692E+05   -1.8407855E+00
   1.7952588E-04   3.7696657E+05   -1.8402851E+00
   1.8035495E-04   3.7378419E+05   -1.8397838E+00
   1.8118785E-04   3.7062953E+05   -1.8392817E+00
   1.8202459E-04   3.6750235E+05   -1.8387787E+00
   1.8286520E-04   3.6440240E+05   -1.8382750E+00
   1.8370969E-04   3.6132944E+05   -1.8377704E+00
   1.8455808E-04   3.5828322E+05   -1.8372650E+00
   1.8541039E-04   3.5526352E+05   -1.8367588E+00
   1.8626663E-04   3.5227008E+05   -1.8362518E+00
   1.8712683E-04   3.4930269E+05   -1.8357440E+00
   1.8799100E-04   3.4636110E+05   -1.8352353E+00
   1.8885917E-04   3.4344509E+05   -1.8347259E+00
   1.8973134E-04   3.4055443E+05   -1.8342157E+00
   1.9060754E-04   3.3768890E+05   -1.8337047E+00
   1.9148778E-04   3.3484826E+05   -1.8331929E+00
   1.9237209E-04   3.3203231E+05   -1.8326803E+00
   1.9326049E-04   3.2924081E+05   -1.8321669E+00
   1.9415299E-04   3.2647356E+05   -1.8316527E+00
   1.9504960E-04   3.2373033E+05   -1.8311378E+00
   1.9595036E-04   3.2101091E+05   -1.8306221E+00
   1.9685528E-04   3.1831510E+05   -1.8301056E+00
   1.9776438E-04   3.1564267E+05   -1.8295884E+00
   1.9867768E-04   3.1299343E+05   -1.8290704E+00
   1.9959519E-04   3.1036717E+05   -1.8285517E+00
   2.0051694E-04   3.0776367E+05   -1.8280322E+00
   2.0144295E-04   3.0518275E+05   -1.8275119E+00
   2.0237324E-04   3.0262420E+05   -1.8269909E+00
   2.0330782E-04   3.0008782E+05   -1.8264692E+00
   2.0424671E-04   2.9757341E+05   -1.8259467E+00
   2.0518995E-04   2.9508078E+05   -1.8254236E+00
   2.0613754E-04   2.9260974E+05   -1.8248996E+00
   2.0708950E-04   2.9016009E+05   -1.8243750E+00
   2.0804586E-04   2.8773164E+05   -1.8238496E+00
   2.0900664E-04   2.8532421E+05   -1.8233235E+00
   2.0997185E-04   2.8293761E+05   -1.8227967E+00
   2.1094152E-04   2.8057166E+05   -1.8222692E+00
   2.1191567E-04   2.7822616E+05   -1.8217410E+00
   2.1289432E-04   2.7590094E+05   -1.8212121E+00
   2.1387749E-04   2.7359583E+05   -1.8206825E+00
   2.1486520E-04   2.7131063E+05   -1.8201522E+00
   2.1585747E-04   2.6904518E+05   -1.8196212E+00
   2.1685432E-04   2.6679930E+05   -1.8190896E+00
   2.1785578E-04   2.6457282E+05   -1.8185572E+00
   2.1886186E-04   2.6236556E+05   -1.8180242E+00
   2.1987259E-04   2.6017735E+05   -1.8174905E+00
   2.2088798E-04   2.5800803E+05   -1.8169562E+00
   2.2190807E-04   2.5585743E+05   -1.8164212E+00
   2.2293286E-04   2.5372538E+05   -1.8158855E+00
   2.2396239E-04   2.5161171E+05   -1.8153492E+00
   2.2499667E-04   2.4951627E+05   -1.8148122E+00
   2.2603573E-04   2.4743890E+05   -1.8142746E+00
   2.2707958E-04   2.4537943E+05   -1.8137364E+00
   2.2812826E-04   2.4333770E+05   -1.8131975E+00
   2.2918178E-04   2.4131356E+05   -1.8126580E+00
   2.3024017E-04   2.3930686E+05   -1.8121179E+00
   2.3130344E-04   2.3731743E+05   -1.8115771E+00
   2.3237162E-04   2.3534512E+05   -1.8110358E+00
   2.3344474E-04   2.3338980E+05   -1.8104938E+00
   2.3452281E-04   2.3145129E+05   -1.8099512E+00
   2.3560586E-04   2.2952946E+05   -1.8094081E+00
   2.3669392E-04   2.2762416E+05   -1.8088643E+00
   2.3778699E-04   2.2573524E+05   -1.8083199E+00
   2.3888512E-04   2.2386256E+05   -1.8077750E+00
   2.3998831E-04   2.2200597E+05   -1.8072295E+00
   2.4109661E-04   2.2016533E+05   -1.8066834E+00
   2.4221001E-04   2.1834050E+05   -1.8061367E+00
   2.4332857E-04   2.1653134E+05   -1.8055894E+00
   2.4445228E-04   2.1473772E+05   -1.8050416E+00
   2.4558119E-04   2.1295948E+05   -1.8044933E+00
   2.4671531E-04   2.1119651E+05   -1.8039444E+00
   2.4785467E-04   2.0944867E+05   -1.8033949E+00
   2.4899928E-04   2.0771581E+05   -1.8028449E+00
   2.5014919E-04   2.0599782E+05   -1.8022944E+00
   2.5130440E-04   2.0429455E+05   -1.8017433E+00
   2.5246495E-04   2.0260588E+05   -1.8011917E+00
   2.5363086E-04   2.0093168E+05   -1.8006396E+00
   2.5480216E-04   1.9927182E+05   -1.8000870E+00
   2.5597886E-04   1.9762617E+05   -1.7995338E+00
   2.5716100E-04   1.9599462E+05   -1.7989802E+00
   2.5834859E-04   1.9437703E+05   -1.7984260E+00
   2.5954168E-04   1.9277328E+05   -1.7978714E+00
   2.6074027E-04   1.9118325E+05   -1.7973163E+00
   2.6194439E-04   1.8960683E+05   -1.7967606E+00
   2.6315408E-04   1.8804388E+05   -1.7962045E+00
   2.6436935E-04   1.8649430E+05   -1.7956480E+00
   2.6559024E-04   1.8495796E+05   -1.7950909E+00
   2.6681676E-04   1.8343475E+05   -1.7945334E+00
   2.6804895E-04   1.8192455E+05   -1.7939755E+00
   2.6928683E-04   1.8042725E+05   -1.7934170E+00
   2.7053042E-04   1.7894273E+05   -1.7928582E+00
   2.7177976E-04   1.7747088E+05   -1.7922989E+00
   2.7303487E-04   1.7601159E+05   -1.7917391E+00
   2.7429577E-04   1.7456475E+05   -1.7911790E+00
   2.7556250E-04   1.7313025E+05   -1.7906184E+00
   2.7683507E-04   1.7170799E+05   -1.7900573E+00
   2.7811353E-04   1.7029785E+05   -1.7894959E+00
   2.7939788E-04   1.6889972E+05   -1.7889341E+00
   2.8068817E-04   1.6751351E+05   -1.7883718E+00
   2.8198442E-04   1.6613911E+05   -1.7878092E+00
   2.8328665E-04   1.6477641E+05   -1.7872461E+00
   2.8459490E-04   1.6342531E+05   -1.7866827E+00
   2.8590919E-04   1.6208571E+05   -1.7861189E+00
   2.8722955E-04   1.6075751E+05   -1.7855547E+00
   2.8855600E-04   1.5944060E+05   -1.7849902E+00
   2.8988859E-04   1.5813490E+05   -1.7844252E+00
   2.9122732E-04   1.5684030E+05   -1.7838600E+00
   2.9257224E-04   1.5555670E+05   -1.7832943E+00
   2.9392337E-04   1.5428401E+05   -1.7827283E+00
   2.9528074E-04   1.5302213E+05   -1.7821620E+00
   2.9664438E-04   1.5177097E+05   -1.7815954E+00
   2.9801431E-04   1.5053043E+05   -1.7810284E+00
   2.9939057E-04   1.4930042E+05   -1.7804611E+00
   3.0077319E-04   1.4808085E+05   -1.7798934E+00
   3.0216219E-04   1.4687162E+05   -1.7793255E+00
   3.0355761E-04   1.4567265E+05   -1.7787572E+00
   3.0495947E-04   1.4448385E+05   -1.7781887E+00
   3.0636780E-04   1.4330512E+05   -1.7776198E+00
   3.0778264E-04   1.4213639E+05   -1.7770507E+00
   3.0920401E-04   1.4097755E+05   -1.7764813E+00
   3.1063195E-04   1.3982853E+05   -1.7759116E+00
   3.1206648E-04   1.3868924E+05   -1.7753416E+00
   3.1350764E-04   1.3755959E+05   -1.7747713E+00
   3.1495545E-04   1.3643950E+05   -1.7742008E+00
   3.1640994E-04   1.3532889E+05   -1.7736301E+00
   3.1787116E-04   1.3422767E+05   -1.7730591E+00
   3.1933912E-04   1.3313576E+05   -1.7724878E+00
   3.2081386E-04   1.3205309E+05   -1.7719163E+00
   3.2229541E-04   1.3097956E+05   -1.7713446E+00
   3.2378381E-04   1.2991510E+05   -1.7707726E+00
   3.2527908E-04   1.2885963E+05   -1.7702005E+00
   3.2678125E-04   1.2781308E+05   -1.7696281E+00
   3.2829036E-04   1.2677535E+05   -1.7690555E+00
   3.2980644E-04   1.2574639E+05   -1.7684827E+00
   3.3132952E-04   1.2472611E+05   -1.7679097E+00
   3.3285963E-04   1.2371443E+05   -1.7673365E+00
   3.3439681E-04   1.2271128E+05   -1.7667632E+00
   3.3594109E-04   1.2171659E+05   -1.7661896E+00
   3.3749250E-04   1.2073027E+05   -1.7656159E+00
   3.3905108E-04   1.1975227E+05   -1.7650420E+00
   3.4061685E-04   1.1878251E+05   -1.7644680E+00
   3.4218986E-04   1.1782091E+05   -1.7638938E+00
   3.4377013E-04   1.1686740E+05   -1.7633195E+00
   3.4535769E-04   1.1592192E+05   -1.7627450E+00
   3.4695259E-04   1.1498439E+05   -1.7621704E+00
   3.4855485E-04   1.1405474E+05   -1.7615956E+00
   3.5016452E-04   1.1313291E+05   -1.7610208E+00
   3.5178161E-04   1.1221883E+05   -1.7604458E+00
   3.5340618E-04   1.1131243E+05   -1.7598707E+00
   3.5503824E-04   1.1041364E+05   -1.7592955E+00
   3.5667785E-04   1.0952240E+05   -1.7587202E+00
   3.5832502E-04   1.0863864E+05   -1.7581448E+00
   3.5997981E-04   1.0776230E+05   -1.7575693E+00
   3.6164223E-04   1.0689331E+05   -1.7569937E+00
   3.6331233E-04   1.0603162E+05   -1.7564181E+00
   3.6499015E-04   1.0517714E+05   -1.7558424E+00
   3.6667571E-04   1.0432983E+05   -1.7552666E+00
   3.6836906E-04   1.0348962E+05   -1.7546908E+00
   3.7007022E-04   1.0265644E+05   -1.7541149E+00
   3.7177925E-04   1.0183025E+05   -1.7535390E+00
   3.7349616E-04   1.0101097E+05   -1.7529630E+00
   3.7522101E-04   1.0019855E+05   -1.7523870E+00
   3.7695382E-04   9.9392931E+04   -1.7518110E+00
   3.7869463E-04   9.8594049E+04   -1.7512349E+00
   3.8044348E-04   9.7801847E+04   -1.7506589E+00
   3.8220041E-04   9.7016268E+04   -1.7500828E+00
   3.8396545E-04   9.6237254E+04   -1.7495068E+00
   3.8573864E-04   9.5464749E+04   -1.7489307E+00
   3.8752002E-04   9.4698697E+04   -1.7483547E+00
   3.8930963E-04   9.3939040E+04   -1.7477786E+00
   3.9110750E-04   9.3185725E+04   -1.7472026E+00
   3.9291368E-04   9.2438696E+04   -1.7466266E+00
   3.9472820E-04   9.1697899E+04   -1.7460507E+00
   3.9655109E-04   9.0963281E+04   -1.7454748E+00
   3.9838241E-04   9.0234786E+04   -1.7448989E+00
   4.0022218E-04   8.9512364E+04   -1.7443231E+00
   4.0207045E-04   8.8795961E+04   -1.7437474E+00
   4.0392725E-04   8.8085525E+04   -1.7431717E+00
   4.0579263E-04   8.7381006E+04   -1.7425961E+00
   4.0766662E-04   8.6682350E+04   -1.7420205E+00
   4.0954927E-04   8.5989509E+04   -1.7414451E+00
   4.1144061E-04   8.5302432E+04   -1.7408697E+00
   4.1334068E-04   8.4621069E+04   -1.7402945E+00
   4.1524953E-04   8.3945371E+04   -1.7397193E+00
   4.1716720E-04   8.3275289E+04   -1.7391443E+00
   4.1909372E-04   8.2610775E+04   -1.7385693E+00
   4.2102914E-04   8.1951780E+04   -1.7379945E+00
   4.2297350E-04   8.1298258E+04   -1.7374198E+00
   4.2492683E-04   8.0650161E+04   -1.7368452E+00
   4.2688919E-04   8.0007442E+04   -1.7362708E+00
   4.2886061E-04   7.9370055E+04   -1.7356965E+00
   4.3084113E-04   7.8737954E+04   -1.7351224E+00
   4.3283080E-04   7.8111094E+04   -1.7345484E+00
   4.3482966E-04   7.7489429E+04   -1.7339746E+00
   4.3683775E-04   7.6872915E+04   -1.7334010E+00
   4.3885511E-04   7.6261508E+04   -1.7328275E+00
   4.4088179E-04   7.5655163E+04   -1.7322542E+00
   4.4291783E-04   7.5053838E+04   -1.7316811E+00
   4.4496327E-04   7.4457489E+04   -1.7311082E+00
   4.4701816E-04   7.3866072E+04   -1.7305355E+00
   4.4908253E-04   7.3279547E+04   -1.7299630E+00
   4.5115644E-04   7.2697871E+04   -1.7293907E+00
   4.5323993E-04   7.2121002E+04   -1.7288186E+00
   4.5533304E-04   7.1548900E+04   -1.7282468E+00
   4.5743582E-04   7.0981522E+04   -1.7276752E+00
   4.5954830E-04   7.0418830E+04   -1.7271038E+00
   4.6167054E-04   6.9860781E+04   -1.7265326E+00
   4.6380259E-04   6.9307338E+04   -1.7259617E+00
   4.6594448E-04   6.8758460E+04   -1.7253911E+00
   4.6809626E-04   6.8214107E+04   -1.7248207E+00
   4.7025797E-04   6.7674243E+04   -1.7242505E+00
   4.7242967E-04   6.7138827E+04   -1.7236807E+00
   4.7461140E-04   6.6607822E+04   -1.7231111E+00
   4.7680321E-04   6.6081190E+04   -1.7225418E+00
   4.7900514E-04   6.5558894E+04   -1.7219727E+00
   4.8121723E-04   6.5040896E+04   -1.7214040E+00
   4.8343954E-04   6.4527161E+04   -1.7208356E+00
   4.8567212E-04   6.4017651E+04   -1.7202674E+00
   4.8791500E-04   6.3512330E+04   -1.7196996E+00
   4.9016825E-04   6.3011163E+04   -1.7191321E+00
   4.9243189E-04   6.2514114E+04   -1.7185649E+00
   4.9470600E-04   6.2021147E+04   -1.7179981E+00
   4.9699060E-04   6.1532229E+04   -1.7174316E+00
   4.9928575E-04   6.1047324E+04   -1.7168654E+00
   5.0159151E-04   6.0566398E+04   -1.7162996E+00
   5.0390791E-04   6.0089418E+04   -1.7157341E+00
   5.0623501E-04   5.9616349E+04   -1.7151689E+00
   5.0857286E-04   5.9147159E+04   -1.7146042E+00
   5.1092150E-04   5.8681814E+04   -1.7140398E+00
   5.1328099E-04   5.8220282E+04   -1.7134757E+00
   5.1565137E-04   5.7762529E+04   -1.7129121E+00
   5.1803270E-04   5.7308524E+04   -1.7123488E+00
   5.2042503E-04   5.6858236E+04   -1.7117859E+00
   5.2282841E-04   5.6411631E+04   -1.7112235E+00
   5.2524289E-04   5.5968680E+04   -1.7106614E+00
   5.2766851E-04   5.5529350E+04   -1.7100997E+00
   5.3010534E-04   5.5093611E+04   -1.7095384E+00
   5.3255342E-04   5.4661433E+04   -1.7089776E+00
   5.3501281E-04   5.4232785E+04   -1.7084172E+00
   5.3748356E-04   5.3807638E+04   -1.7078572E+00
   5.3996571E-04   5.3385961E+04   -1.7072976E+00
   5.4245933E-04   5.2967725E+04   -1.7067385E+00
   5.4496446E-04   5.2552901E+04   -1.7061798E+00
   5.4748117E-04   5.2141460E+04   -1.7056215E+00
   5.5000949E-04   5.1733373E+04   -1.7050638E+00
   5.5254949E-04   5.1328612E+04   -1.7045065E+00
   5.5510123E-04   5.0927148E+04   -1.7039496E+00
   5.5766474E-04   5.0528954E+04   -1.7033932E+00
   5.6024010E-04   5.0134002E+04   -1.7028373E+00
   5.6282734E-04   4.9742265E+04   -1.7022819E+00
   5.6542654E-04   4.9353714E+04   -1.7017270E+00
   5.6803774E-04   4.8968324E+04   -1.7011725E+00
   5.7066099E-04   4.8586067E+04   -1.7006186E+00
   5.7329637E-04   4.8206917E+04   -1.7000651E+00
   5.7594391E-04   4.7830848E+04   -1.6995122E+00
   5.7860368E-04   4.7457834E+04   -1.6989598E+00
   5.8127573E-04   4.7087848E+04   -1.6984079E+00
   5.8396012E-04   4.6720866E+04   -1.6978565E+00
   5.8665691E-04   4.6356861E+04   -1.6973056E+00
   5.8936616E-04   4.5995809E+04   -1.6967553E+00
   5.9208791E-04   4.5637685E+04   -1.6962055E+00
   5.9482223E-04   4.5282464E+04   -1.6956563E+00
   5.9756919E-04   4.4930121E+04   -1.6951076E+00
   6.0032882E-04   4.4580632E+04   -1.6945595E+00
   6.0310120E-04   4.4233974E+04   -1.6940119E+00
   6.0588639E-04   4.3890122E+04   -1.6934649E+00
   6.0868443E-04   4.3549052E+04   -1.6929184E+00
   6.1149540E-04   4.3210742E+04   -1.6923725E+00
   6.1431935E-04   4.2875168E+04   -1.6918272E+00
   6.1715634E-04   4.2542307E+04   -1.6912825E+00
   6.2000644E-04   4.2212135E+04   -1.6907384E+00
   6.2286969E-04   4.1884631E+04   -1.6901949E+00
