#        a       HoverH0(a)       dlogHdloga_of_a(a)
   1.0000000E-04   1.0822192E+06   -1.8423682E+00
   1.0046181E-04   1.0730727E+06   -1.8418705E+00
   1.0092575E-04   1.0640060E+06   -1.8413719E+00
   1.0139184E-04   1.0550183E+06   -1.8408725E+00
   1.0186008E-04   1.0461089E+06   -1.8403722E+00
   1.0233048E-04   1.0372771E+06   -1.8398711E+00
   1.0280305E-04   1.0285223E+06   -1.8393692E+00
   1.0327781E-04   1.0198438E+06   -1.8388664E+00
   1.0375475E-04   1.0112408E+06   -1.8383628E+00
   1.0423390E-04   1.0027127E+06   -1.8378584E+00
   1.0471527E-04   9.9425887E+05   -1.8373532E+00
   1.0519885E-04   9.8587859E+05   -1.8368471E+00
   1.0568467E-04   9.7757122E+05   -1.8363403E+00
   1.0617274E-04   9.6933613E+05   -1.8358326E+00
   1.0666305E-04   9.6117265E+05   -1.8353242E+00
   1.0715563E-04   9.5308016E+05   -1.8348149E+00
   1.0765049E-04   9.4505803E+05   -1.8343049E+00
   1.0814763E-04   9.3710562E+05   -1.8337940E+00
   1.0864707E-04   9.2922232E+05   -1.8332824E+00
   1.0914881E-04   9.2140751E+05   -1.8327699E+00
   1.0965287E-04   9.1366058E+05   -1.8322567E+00
   1.1015926E-04   9.0598092E+05   -1.8317427E+00
   1.1066799E-04   8.9836795E+05   -1.8312280E+00
   1.1117906E-04   8.9082106E+05   -1.8307125E+00
   1.1169250E-04   8.8333967E+05   -1.8301961E+00
   1.1220831E-04   8.7592320E+05   -1.8296791E+00
   1.1272650E-04   8.6857107E+05   -1.8291613E+00
   1.1324708E-04   8.6128270E+05   -1.8286427E+00
   1.1377007E-04   8.5405754E+05   -1.8281233E+00
   1.1429547E-04   8.4689501E+05   -1.8276033E+00
   1.1482330E-04   8.3979457E+05   -1.8270824E+00
   1.1535356E-04   8.3275565E+05   -1.8265609E+00
   1.1588628E-04   8.2577773E+05   -1.8260386E+00
   1.1642145E-04   8.1886024E+05   -1.8255155E+00
   1.1695910E-04   8.1200266E+05   -1.8249918E+00
   1.1749923E-04   8.0520445E+05   -1.8244673E+00
   1.1804185E-04   7.9846508E+05   -1.8239421E+00
   1.1858698E-04   7.9178405E+05   -1.8234161E+00
   1.1913463E-04   7.8516081E+05   -1.8228895E+00
   1.1968481E-04   7.7859488E+05   -1.8223622E+00
   1.2023752E-04   7.7208572E+05   -1.8218341E+00
   1.2079279E-04   7.6563285E+05   -1.8213054E+00
   1.2135063E-04   7.5923576E+05   -1.8207759E+00
   1.2191104E-04   7.5289396E+05   -1.8202458E+00
   1.2247403E-04   7.4660696E+05   -1.8197150E+00
   1.2303963E-04   7.4037426E+05   -1.8191834E+00
   1.2360784E-04   7.3419540E+05   -1.8186513E+00
   1.2417868E-04   7.2806989E+05   -1.8181184E+00
   1.2475215E-04   7.2199726E+05   -1.8175849E+00
   1.2532826E-04   7.1597704E+05   -1.8170507E+00
   1.2590704E-04   7.1000876E+05   -1.8165158E+00
   1.2648850E-04   7.0409198E+05   -1.8159803E+00
   1.2707263E-04   6.9822622E+05   -1.8154442E+00
   1.2765947E-04   6.9241104E+05   -1.8149074E+00
   1.2824901E-04   6.8664600E+05   -1.8143699E+00
   1.2884128E-04   6.8093064E+05   -1.8138318E+00
   1.2943628E-04   6.7526453E+05   -1.8132931E+00
   1.3003403E-04   6.6964723E+05   -1.8127537E+00
   1.3063454E-04   6.6407831E+05   -1.8122138E+00
   1.3123783E-04   6.5855735E+05   -1.8116732E+00
   1.3184390E-04   6.5308390E+05   -1.8111320E+00
   1.3245277E-04   6.4765757E+05   -1.8105901E+00
   1.3306445E-04   6.4227793E+05   -1.8100477E+00
   1.3367895E-04   6.3694456E+05   -1.8095047E+00
   1.3429630E-04   6.3165706E+05   -1.8089611E+00
   1.3491649E-04   6.2641503E+05   -1.8084168E+00
   1.3553955E-04   6.2121806E+05   -1.8078720E+00
   1.3616548E-04   6.1606575E+05   -1.8073267E+00
   1.3679431E-04   6.1095771E+05   -1.8067807E+00
   1.3742604E-04   6.0589355E+05   -1.8062342E+00
   1.3806069E-04   6.0087288E+05   -1.8056871E+00
   1.3869827E-04   5.9589531E+05   -1.8051394E+00
   1.3933879E-04   5.9096047E+05   -1.8045912E+00
   1.3998227E-04   5.8606798E+05   -1.8040424E+00
   1.4062872E-04   5.8121746E+05   -1.8034931E+00
   1.4127816E-04   5.7640855E+05   -1.8029433E+00
   1.4193060E-04   5.7164087E+05   -1.8023929E+00
   1.4258605E-04   5.6691407E+05   -1.8018419E+00
   1.4324453E-04   5.6222778E+05   -1.8012905E+00
   1.4390605E-04   5.5758164E+05   -1.8007385E+00
   1.4457062E-04   5.5297531E+05   -1.8001860E+00
   1.4523826E-04   5.4840843E+05   -1.7996330E+00
   1.4590899E-04   5.4388065E+05   -1.7990795E+00
   1.4658281E-04   5.3939163E+05   -1.7985255E+00
   1.4725974E-04   5.3494103E+05   -1.7979710E+00
   1.4793981E-04   5.3052851E+05   -1.7974160E+00
   1.4862301E-04   5.2615372E+05   -1.7968605E+00
   1.4930936E-04   5.2181635E+05   -1.7963045E+00
   1.4999889E-04   5.1751607E+05   -1.7957481E+00
   1.5069160E-04   5.1325253E+05   -1.7951912E+00
   1.5138751E-04   5.0902543E+05   -1.7946338E+00
   1.5208663E-04   5.0483444E+05   -1.7940760E+00
   1.5278899E-04   5.0067924E+05   -1.7935177E+00
   1.5349458E-04   4.9655952E+05   -1.7929590E+00
   1.5420343E-04   4.9247497E+05   -1.7923998E+00
   1.5491556E-04   4.8842527E+05   -1.7918402E+00
   1.5563098E-04   4.8441013E+05   -1.7912802E+00
   1.5634970E-04   4.8042923E+05   -1.7907197E+00
   1.5707174E-04   4.7648228E+05   -1.7901588E+00
   1.5779711E-04   4.7256898E+05   -1.7895975E+00
   1.5852584E-04   4.6868903E+05   -1.7890358E+00
   1.5925792E-04   4.6484213E+05   -1.7884737E+00
   1.5999339E-04   4.6102801E+05   -1.7879111E+00
   1.6073226E-04   4.5724637E+05   -1.7873482E+00
   1.6147454E-04   4.5349692E+05   -1.7867849E+00
   1.6222024E-04   4.4977939E+05   -1.7862213E+00
   1.6296939E-04   4.4609349E+05   -1.7856572E+00
   1.6372200E-04   4.4243894E+05   -1.7850928E+00
   1.6447809E-04   4.3881548E+05   -1.7845280E+00
   1.6523767E-04   4.3522283E+05   -1.7839628E+00
   1.6600075E-04   4.3166071E+05   -1.7833973E+00
   1.6676736E-04   4.2812886E+05   -1.7828314E+00
   1.6753751E-04   4.2462702E+05   -1.7822652E+00
   1.6831122E-04   4.2115492E+05   -1.7816987E+00
   1.6908849E-04   4.1771230E+05   -1.7811318E+00
   1.6986936E-04   4.1429891E+05   -1.7805646E+00
   1.7065384E-04   4.1091448E+05   -1.7799971E+00
   1.7144193E-04   4.0755877E+05   -1.7794293E+00
   1.7223367E-04   4.0423151E+05   -1.7788612E+00
   1.7302906E-04   4.0093247E+05   -1.7782927E+00
   1.7382813E-04   3.9766140E+05   -1.7777240E+00
   1.7463089E-04   3.9441805E+05   -1.7771550E+00
   1.7543735E-04   3.9120218E+05   -1.7765857E+00
   1.7624754E-04   3.8801354E+05   -1.7760161E+00
   1.7706147E-04   3.8485191E+05   -1.7754462E+00
   1.7787916E-04   3.8171704E+05   -1.7748761E+00
   1.7870062E-04   3.7860870E+05   -1.7743057E+00
   1.7952588E-04   3.7552666E+05   -1.7737350E+00
   1.8035495E-04   3.7247069E+05   -1.7731641E+00
   1.8118785E-04   3.6944056E+05   -1.7725930E+00
   1.8202459E-04   3.6643604E+05   -1.7720216E+00
   1.8286520E-04   3.6345692E+05   -1.7714500E+00
   1.8370969E-04   3.6050296E+05   -1.7708782E+00
   1.8455808E-04   3.5757396E+05   -1.7703061E+00
   1.8541039E-04   3.5466969E+05   -1.7697338E+00
   1.8626663E-04   3.5178993E+05   -1.7691613E+00
   1.8712683E-04   3.4893448E+05   -1.7685887E+00
   1.8799100E-04   3.4610312E+05   -1.7680158E+00
   1.8885917E-04   3.4329564E+05   -1.7674427E+00
   1.8973134E-04   3.4051183E+05   -1.7668694E+00
   1.9060754E-04   3.3775149E+05   -1.7662960E+00
   1.9148778E-04   3.3501441E+05   -1.7657224E+00
   1.9237209E-04   3.3230039E+05   -1.7651486E+00
   1.9326049E-04   3.2960923E+05   -1.7645747E+00
   1.9415299E-04   3.2694072E+05   -1.7640006E+00
   1.9504960E-04   3.2429468E+05   -1.7634264E+00
   1.9595036E-04   3.2167091E+05   -1.7628520E+00
   1.9685528E-04   3.1906921E+05   -1.7622775E+00
   1.9776438E-04   3.1648939E+05   -1.7617028E+00
   1.9867768E-04   3.1393126E+05   -1.7611281E+00
   1.9959519E-04   3.1139463E+05   -1.7605532E+00
   2.0051694E-04   3.0887931E+05   -1.7599782E+00
   2.0144295E-04   3.0638513E+05   -1.7594031E+00
   2.0237324E-04   3.0391189E+05   -1.7588279E+00
   2.0330782E-04   3.0145941E+05   -1.7582526E+00
   2.0424671E-04   2.9902752E+05   -1.7576772E+00
   2.0518995E-04   2.9661603E+05   -1.7571017E+00
   2.0613754E-04   2.9422477E+05   -1.7565262E+00
   2.0708950E-04   2.9185357E+05   -1.7559505E+00
   2.0804586E-04   2.8950224E+05   -1.7553749E+00
   2.0900664E-04   2.8717061E+05   -1.7547991E+00
   2.0997185E-04   2.8485852E+05   -1.7542233E+00
   2.1094152E-04   2.8256580E+05   -1.7536475E+00
   2.1191567E-04   2.8029227E+05   -1.7530716E+00
   2.1289432E-04   2.7803777E+05   -1.7524957E+00
   2.1387749E-04   2.7580214E+05   -1.7519198E+00
   2.1486520E-04   2.7358521E+05   -1.7513439E+00
   2.1585747E-04   2.7138682E+05   -1.7507679E+00
   2.1685432E-04   2.6920681E+05   -1.7501919E+00
   2.1785578E-04   2.6704502E+05   -1.7496159E+00
   2.1886186E-04   2.6490129E+05   -1.7490400E+00
   2.1987259E-04   2.6277547E+05   -1.7484640E+00
   2.2088798E-04   2.6066740E+05   -1.7478881E+00
   2.2190807E-04   2.5857693E+05   -1.7473121E+00
   2.2293286E-04   2.5650390E+05   -1.7467362E+00
   2.2396239E-04   2.5444817E+05   -1.7461604E+00
   2.2499667E-04   2.5240958E+05   -1.7455846E+00
   2.2603573E-04   2.5038799E+05   -1.7450088E+00
   2.2707958E-04   2.4838325E+05   -1.7444331E+00
   2.2812826E-04   2.4639522E+05   -1.7438574E+00
   2.2918178E-04   2.4442374E+05   -1.7432818E+00
   2.3024017E-04   2.4246869E+05   -1.7427063E+00
   2.3130344E-04   2.4052990E+05   -1.7421308E+00
   2.3237162E-04   2.3860726E+05   -1.7415554E+00
   2.3344474E-04   2.3670061E+05   -1.7409802E+00
   2.3452281E-04   2.3480981E+05   -1.7404050E+00
   2.3560586E-04   2.3293474E+05   -1.7398299E+00
   2.3669392E-04   2.3107526E+05   -1.7392549E+00
   2.3778699E-04   2.2923122E+05   -1.7386801E+00
   2.3888512E-04   2.2740251E+05   -1.7381053E+00
   2.3998831E-04   2.2558898E+05   -1.7375307E+00
   2.4109661E-04   2.2379050E+05   -1.7369562E+00
   2.4221001E-04   2.2200695E+05   -1.7363819E+00
   2.4332857E-04   2.2023820E+05   -1.7358077E+00
   2.4445228E-04   2.1848412E+05   -1.7352336E+00
   2.4558119E-04   2.1674458E+05   -1.7346597E+00
   2.4671531E-04   2.1501945E+05   -1.7340860E+00
   2.4785467E-04   2.1330863E+05   -1.7335124E+00
   2.4899928E-04   2.1161197E+05   -1.7329390E+00
   2.5014919E-04   2.0992937E+05   -1.7323658E+00
   2.5130440E-04   2.0826069E+05   -1.7317928E+00
   2.5246495E-04   2.0660583E+05   -1.7312200E+00
   2.5363086E-04   2.0496465E+05   -1.7306473E+00
   2.5480216E-04   2.0333705E+05   -1.7300749E+00
   2.5597886E-04   2.0172290E+05   -1.7295027E+00
   2.5716100E-04   2.0012209E+05   -1.7289307E+00
   2.5834859E-04   1.9853452E+05   -1.7283589E+00
   2.5954168E-04   1.9696005E+05   -1.7277873E+00
   2.6074027E-04   1.9539858E+05   -1.7272160E+00
   2.6194439E-04   1.9385001E+05   -1.7266449E+00
   2.6315408E-04   1.9231421E+05   -1.7260741E+00
   2.6436935E-04   1.9079108E+05   -1.7255035E+00
   2.6559024E-04   1.8928052E+05   -1.7249331E+00
   2.6681676E-04   1.8778240E+05   -1.7243631E+00
   2.6804895E-04   1.8629664E+05   -1.7237933E+00
   2.6928683E-04   1.8482311E+05   -1.7232238E+00
   2.7053042E-04   1.8336172E+05   -1.7226545E+00
   2.7177976E-04   1.8191236E+05   -1.7220856E+00
   2.7303487E-04   1.8047493E+05   -1.7215169E+00
   2.7429577E-04   1.7904933E+05   -1.7209485E+00
   2.7556250E-04   1.7763545E+05   -1.7203805E+00
   2.7683507E-04   1.7623320E+05   -1.7198127E+00
   2.7811353E-04   1.7484248E+05   -1.7192453E+00
   2.7939788E-04   1.7346318E+05   -1.7186781E+00
   2.8068817E-04   1.7209522E+05   -1.7181114E+00
   2.8198442E-04   1.7073848E+05   -1.7175449E+00
   2.8328665E-04   1.6939289E+05   -1.7169788E+00
   2.8459490E-04   1.6805834E+05   -1.7164130E+00
   2.8590919E-04   1.6673474E+05   -1.7158476E+00
   2.8722955E-04   1.6542199E+05   -1.7152825E+00
   2.8855600E-04   1.6412001E+05   -1.7147178E+00
   2.8988859E-04   1.6282870E+05   -1.7141534E+00
   2.9122732E-04   1.6154796E+05   -1.7135895E+00
   2.9257224E-04   1.6027772E+05   -1.7130259E+00
   2.9392337E-04   1.5901788E+05   -1.7124627E+00
   2.9528074E-04   1.5776835E+05   -1.7118999E+00
   2.9664438E-04   1.5652904E+05   -1.7113374E+00
   2.9801431E-04   1.5529987E+05   -1.7107754E+00
   2.9939057E-04   1.5408076E+05   -1.7102138E+00
   3.0077319E-04   1.5287161E+05   -1.7096526E+00
   3.0216219E-04   1.5167234E+05   -1.7090918E+00
   3.0355761E-04   1.5048286E+05   -1.7085314E+00
   3.0495947E-04   1.4930310E+05   -1.7079715E+00
   3.0636780E-04   1.4813297E+05   -1.7074120E+00
   3.0778264E-04   1.4697239E+05   -1.7068529E+00
   3.0920401E-04   1.4582128E+05   -1.7062943E+00
   3.1063195E-04   1.4467956E+05   -1.7057361E+00
   3.1206648E-04   1.4354714E+05   -1.7051784E+00
   3.1350764E-04   1.4242396E+05   -1.7046211E+00
   3.1495545E-04   1.4130992E+05   -1.7040643E+00
   3.1640994E-04   1.4020496E+05   -1.7035080E+00
   3.1787116E-04   1.3910900E+05   -1.7029521E+00
   3.1933912E-04   1.3802195E+05   -1.7023968E+00
   3.2081386E-04   1.3694375E+05   -1.7018419E+00
   3.2229541E-04   1.3587432E+05   -1.7012875E+00
   3.2378381E-04   1.3481359E+05   -1.7007336E+00
   3.2527908E-04   1.3376148E+05   -1.7001802E+00
   3.2678125E-04   1.3271791E+05   -1.6996273E+00
   3.2829036E-04   1.3168283E+05   -1.6990750E+00
   3.2980644E-04   1.3065615E+05   -1.6985231E+00
   3.3132952E-04   1.2963780E+05   -1.6979718E+00
   3.3285963E-04   1.2862772E+05   -1.6974210E+00
   3.3439681E-04   1.2762583E+05   -1.6968707E+00
   3.3594109E-04   1.2663206E+05   -1.6963210E+00
   3.3749250E-04   1.2564635E+05   -1.6957718E+00
   3.3905108E-04   1.2466863E+05   -1.6952231E+00
   3.4061685E-04   1.2369883E+05   -1.6946750E+00
   3.4218986E-04   1.2273689E+05   -1.6941275E+00
   3.4377013E-04   1.2178273E+05   -1.6935805E+00
   3.4535769E-04   1.2083629E+05   -1.6930341E+00
   3.4695259E-04   1.1989752E+05   -1.6924883E+00
   3.4855485E-04   1.1896633E+05   -1.6919431E+00
   3.5016452E-04   1.1804267E+05   -1.6913984E+00
   3.5178161E-04   1.1712648E+05   -1.6908543E+00
   3.5340618E-04   1.1621769E+05   -1.6903108E+00
   3.5503824E-04   1.1531623E+05   -1.6897680E+00
   3.5667785E-04   1.1442206E+05   -1.6892257E+00
   3.5832502E-04   1.1353511E+05   -1.6886840E+00
   3.5997981E-04   1.1265531E+05   -1.6881429E+00
   3.6164223E-04   1.1178260E+05   -1.6876025E+00
   3.6331233E-04   1.1091694E+05   -1.6870626E+00
   3.6499015E-04   1.1005825E+05   -1.6865234E+00
   3.6667571E-04   1.0920648E+05   -1.6859848E+00
   3.6836906E-04   1.0836157E+05   -1.6854469E+00
   3.7007022E-04   1.0752346E+05   -1.6849096E+00
   3.7177925E-04   1.0669210E+05   -1.6843729E+00
   3.7349616E-04   1.0586743E+05   -1.6838369E+00
   3.7522101E-04   1.0504939E+05   -1.6833016E+00
   3.7695382E-04   1.0423794E+05   -1.6827669E+00
   3.7869463E-04   1.0343300E+05   -1.6822328E+00
   3.8044348E-04   1.0263453E+05   -1.6816994E+00
   3.8220041E-04   1.0184248E+05   -1.6811667E+00
   3.8396545E-04   1.0105678E+05   -1.6806347E+00
   3.8573864E-04   1.0027740E+05   -1.6801034E+00
   3.8752002E-04   9.9504265E+04   -1.6795727E+00
   3.8930963E-04   9.8737335E+04   -1.6790427E+00
   3.9110750E-04   9.7976555E+04   -1.6785134E+00
   3.9291368E-04   9.7221874E+04   -1.6779848E+00
   3.9472820E-04   9.6473241E+04   -1.6774569E+00
   3.9655109E-04   9.5730605E+04   -1.6769298E+00
   3.9838241E-04   9.4993916E+04   -1.6764033E+00
   4.0022218E-04   9.4263125E+04   -1.6758775E+00
   4.0207045E-04   9.3538183E+04   -1.6753525E+00
   4.0392725E-04   9.2819040E+04   -1.6748281E+00
   4.0579263E-04   9.2105649E+04   -1.6743045E+00
   4.0766662E-04   9.1397961E+04   -1.6737817E+00
   4.0954927E-04   9.0695928E+04   -1.6732595E+00
   4.1144061E-04   8.9999505E+04   -1.6727381E+00
   4.1334068E-04   8.9308643E+04   -1.6722175E+00
   4.1524953E-04   8.8623297E+04   -1.6716975E+00
   4.1716720E-04   8.7943421E+04   -1.6711784E+00
   4.1909372E-04   8.7268969E+04   -1.6706600E+00
   4.2102914E-04   8.6599896E+04   -1.6701423E+00
   4.2297350E-04   8.5936158E+04   -1.6696254E+00
   4.2492683E-04   8.5277709E+04   -1.6691093E+00
   4.2688919E-04   8.4624507E+04   -1.6685939E+00
   4.2886061E-04   8.3976508E+04   -1.6680793E+00
   4.3084113E-04   8.3333668E+04   -1.6675655E+00
   4.3283080E-04   8.2695945E+04   -1.6670525E+00
   4.3482966E-04   8.2063295E+04   -1.6665402E+00
   4.3683775E-04   8.1435678E+04   -1.6660288E+00
   4.3885511E-04   8.0813051E+04   -1.6655181E+00
   4.4088179E-04   8.0195373E+04   -1.6650082E+00
   4.4291783E-04   7.9582603E+04   -1.6644991E+00
   4.4496327E-04   7.8974700E+04   -1.6639908E+00
   4.4701816E-04   7.8371624E+04   -1.6634834E+00
   4.4908253E-04   7.7773335E+04   -1.6629767E+00
   4.5115644E-04   7.7179793E+04   -1.6624708E+00
   4.5323993E-04   7.6590959E+04   -1.6619658E+00
   4.5533304E-04   7.6006795E+04   -1.6614616E+00
   4.5743582E-04   7.5427261E+04   -1.6609582E+00
   4.5954830E-04   7.4852320E+04   -1.6604556E+00
   4.6167054E-04   7.4281933E+04   -1.6599538E+00
   4.6380259E-04   7.3716062E+04   -1.6594529E+00
   4.6594448E-04   7.3154671E+04   -1.6589528E+00
   4.6809626E-04   7.2597723E+04   -1.6584536E+00
   4.7025797E-04   7.2045180E+04   -1.6579552E+00
   4.7242967E-04   7.1497006E+04   -1.6574576E+00
   4.7461140E-04   7.0953166E+04   -1.6569609E+00
   4.7680321E-04   7.0413624E+04   -1.6564650E+00
   4.7900514E-04   6.9878344E+04   -1.6559700E+00
   4.8121723E-04   6.9347291E+04   -1.6554758E+00
   4.8343954E-04   6.8820431E+04   -1.6549825E+00
   4.8567212E-04   6.8297729E+04   -1.6544901E+00
   4.8791500E-04   6.7779150E+04   -1.6539985E+00
   4.9016825E-04   6.7264661E+04   -1.6535078E+00
   4.9243189E-04   6.6754228E+04   -1.6530180E+00
   4.9470600E-04   6.6247818E+04   -1.6525290E+00
   4.9699060E-04   6.5745397E+04   -1.6520409E+00
   4.9928575E-04   6.5246934E+04   -1.6515537E+00
   5.0159151E-04   6.4752395E+04   -1.6510674E+00
   5.0390791E-04   6.4261748E+04   -1.6505820E+00
   5.0623501E-04   6.3774961E+04   -1.6500974E+00
   5.0857286E-04   6.3292003E+04   -1.6496138E+00
   5.1092150E-04   6.2812842E+04   -1.6491310E+00
   5.1328099E-04   6.2337448E+04   -1.6486492E+00
   5.1565137E-04   6.1865788E+04   -1.6481682E+00
   5.1803270E-04   6.1397833E+04   -1.6476881E+00
   5.2042503E-04   6.0933553E+04   -1.6472090E+00
   5.2282841E-04   6.0472916E+04   -1.6467307E+00
   5.2524289E-04   6.0015894E+04   -1.6462534E+00
   5.2766851E-04   5.9562457E+04   -1.6457769E+00
   5.3010534E-04   5.9112575E+04   -1.6453014E+00
   5.3255342E-04   5.8666220E+04   -1.6448268E+00
   5.3501281E-04   5.8223362E+04   -1.6443531E+00
   5.3748356E-04   5.7783974E+04   -1.6438803E+00
   5.3996571E-04   5.7348026E+04   -1.6434085E+00
   5.4245933E-04   5.6915490E+04   -1.6429376E+00
   5.4496446E-04   5.6486339E+04   -1.6424676E+00
   5.4748117E-04   5.6060546E+04   -1.6419985E+00
   5.5000949E-04   5.5638082E+04   -1.6415304E+00
   5.5254949E-04   5.5218921E+04   -1.6410632E+00
   5.5510123E-04   5.4803036E+04   -1.6405969E+00
   5.5766474E-04   5.4390399E+04   -1.6401316E+00
   5.6024010E-04   5.3980985E+04   -1.6396672E+00
   5.6282734E-04   5.3574768E+04   -1.6392037E+00
   5.6542654E-04   5.3171720E+04   -1.6387412E+00
   5.6803774E-04   5.2771817E+04   -1.6382797E+00
   5.7066099E-04   5.2375033E+04   -1.6378191E+00
   5.7329637E-04   5.1981343E+04   -1.6373594E+00
   5.7594391E-04   5.1590721E+04   -1.6369007E+00
   5.7860368E-04   5.1203143E+04   -1.6364430E+00
   5.8127573E-04   5.0818583E+04   -1.6359862E+00
   5.8396012E-04   5.0437018E+04   -1.6355304E+00
   5.8665691E-04   5.0058422E+04   -1.6350755E+00
   5.8936616E-04   4.9682773E+04   -1.6346216E+00
   5.9208791E-04   4.9310045E+04   -1.6341686E+00
   5.9482223E-04   4.8940216E+04   -1.6337167E+00
   5.9756919E-04   4.8573261E+04   -1.6332656E+00
   6.0032882E-04   4.8209158E+04   -1.6328156E+00
   6.0310120E-04   4.7847884E+04   -1.6323665E+00
   6.0588639E-04   4.7489414E+04   -1.6319184E+00
   6.0868443E-04   4.7133728E+04   -1.6314713E+00
   6.1149540E-04   4.6780802E+04   -1.6310251E+00
   6.1431935E-04   4.6430614E+04   -1.6305799E+00
   6.1715634E-04   4.6083142E+04   -1.6301357E+00
   6.2000644E-04   4.5738364E+04   -1.6296925E+00
   6.2286969E-04   4.5396257E+04   -1.6292503E+00
