#        a       HoverH0(a)       dlogHdloga_of_a(a)
   1.0000000E-04   1.0744609E+06   -1.8753729E+00
   1.0046181E-04   1.0652179E+06   -1.8749413E+00
   1.0092575E-04   1.0560564E+06   -1.8745087E+00
   1.0139184E-04   1.0469758E+06   -1.8740751E+00
   1.0186008E-04   1.0379754E+06   -1.8736405E+00
   1.0233048E-04   1.0290544E+06   -1.8732049E+00
   1.0280305E-04   1.0202122E+06   -1.8727684E+00
   1.0327781E-04   1.0114479E+06   -1.8723308E+00
   1.0375475E-04   1.0027610E+06   -1.8718923E+00
   1.0423390E-04   9.9415068E+05   -1.8714527E+00
   1.0471527E-04   9.8561630E+05   -1.8710122E+00
   1.0519885E-04   9.7715717E+05   -1.8705707E+00
   1.0568467E-04   9.6877261E+05   -1.8701282E+00
   1.0617274E-04   9.6046195E+05   -1.8696848E+00
   1.0666305E-04   9.5222454E+05   -1.8692403E+00
   1.0715563E-04   9.4405972E+05   -1.8687949E+00
   1.0765049E-04   9.3596682E+05   -1.8683485E+00
   1.0814763E-04   9.2794521E+05   -1.8679012E+00
   1.0864707E-04   9.1999425E+05   -1.8674528E+00
   1.0914881E-04   9.1211330E+05   -1.8670035E+00
   1.0965287E-04   9.0430174E+05   -1.8665532E+00
   1.1015926E-04   8.9655893E+05   -1.8661020E+00
   1.1066799E-04   8.8888427E+05   -1.8656497E+00
   1.1117906E-04   8.8127715E+05   -1.8651966E+00
   1.1169250E-04   8.7373695E+05   -1.8647424E+00
   1.1220831E-04   8.6626309E+05   -1.8642873E+00
   1.1272650E-04   8.5885495E+05   -1.8638312E+00
   1.1324708E-04   8.5151196E+05   -1.8633742E+00
   1.1377007E-04   8.4423354E+05   -1.8629162E+00
   1.1429547E-04   8.3701909E+05   -1.8624573E+00
   1.1482330E-04   8.2986805E+05   -1.8619974E+00
   1.1535356E-04   8.2277985E+05   -1.8615366E+00
   1.1588628E-04   8.1575393E+05   -1.8610748E+00
   1.1642145E-04   8.0878973E+05   -1.8606120E+00
   1.1695910E-04   8.0188669E+05   -1.8601484E+00
   1.1749923E-04   7.9504427E+05   -1.8596837E+00
   1.1804185E-04   7.8826193E+05   -1.8592182E+00
   1.1858698E-04   7.8153912E+05   -1.8587517E+00
   1.1913463E-04   7.7487531E+05   -1.8582842E+00
   1.1968481E-04   7.6826998E+05   -1.8578159E+00
   1.2023752E-04   7.6172260E+05   -1.8573466E+00
   1.2079279E-04   7.5523266E+05   -1.8568763E+00
   1.2135063E-04   7.4879963E+05   -1.8564052E+00
   1.2191104E-04   7.4242302E+05   -1.8559331E+00
   1.2247403E-04   7.3610231E+05   -1.8554601E+00
   1.2303963E-04   7.2983700E+05   -1.8549862E+00
   1.2360784E-04   7.2362660E+05   -1.8545113E+00
   1.2417868E-04   7.1747062E+05   -1.8540356E+00
   1.2475215E-04   7.1136857E+05   -1.8535589E+00
   1.2532826E-04   7.0531996E+05   -1.8530813E+00
   1.2590704E-04   6.9932433E+05   -1.8526028E+00
   1.2648850E-04   6.9338119E+05   -1.8521234E+00
   1.2707263E-04   6.8749008E+05   -1.8516431E+00
   1.2765947E-04   6.8165054E+05   -1.8511619E+00
   1.2824901E-04   6.7586209E+05   -1.8506798E+00
   1.2884128E-04   6.7012429E+05   -1.8501968E+00
   1.2943628E-04   6.6443668E+05   -1.8497129E+00
   1.3003403E-04   6.5879881E+05   -1.8492282E+00
   1.3063454E-04   6.5321025E+05   -1.8487425E+00
   1.3123783E-04   6.4767054E+05   -1.8482559E+00
   1.3184390E-04   6.4217925E+05   -1.8477685E+00
   1.3245277E-04   6.3673595E+05   -1.8472802E+00
   1.3306445E-04   6.3134021E+05   -1.8467910E+00
   1.3367895E-04   6.2599161E+05   -1.8463009E+00
   1.3429630E-04   6.2068972E+05   -1.8458100E+00
   1.3491649E-04   6.1543413E+05   -1.8453182E+00
   1.3553955E-04   6.1022442E+05   -1.8448255E+00
   1.3616548E-04   6.0506020E+05   -1.8443320E+00
   1.3679431E-04   5.9994104E+05   -1.8438376E+00
   1.3742604E-04   5.9486655E+05   -1.8433424E+00
   1.3806069E-04   5.8983632E+05   -1.8428463E+00
   1.3869827E-04   5.8484997E+05   -1.8423493E+00
   1.3933879E-04   5.7990711E+05   -1.8418515E+00
   1.3998227E-04   5.7500733E+05   -1.8413529E+00
   1.4062872E-04   5.7015027E+05   -1.8408534E+00
   1.4127816E-04   5.6533554E+05   -1.8403531E+00
   1.4193060E-04   5.6056276E+05   -1.8398520E+00
   1.4258605E-04   5.5583155E+05   -1.8393500E+00
   1.4324453E-04   5.5114156E+05   -1.8388472E+00
   1.4390605E-04   5.4649240E+05   -1.8383436E+00
   1.4457062E-04   5.4188372E+05   -1.8378391E+00
   1.4523826E-04   5.3731516E+05   -1.8373338E+00
   1.4590899E-04   5.3278636E+05   -1.8368278E+00
   1.4658281E-04   5.2829696E+05   -1.8363209E+00
   1.4725974E-04   5.2384661E+05   -1.8358132E+00
   1.4793981E-04   5.1943497E+05   -1.8353047E+00
   1.4862301E-04   5.1506169E+05   -1.8347954E+00
   1.4930936E-04   5.1072643E+05   -1.8342853E+00
   1.4999889E-04   5.0642885E+05   -1.8337744E+00
   1.5069160E-04   5.0216862E+05   -1.8332627E+00
   1.5138751E-04   4.9794539E+05   -1.8327502E+00
   1.5208663E-04   4.9375886E+05   -1.8322370E+00
   1.5278899E-04   4.8960868E+05   -1.8317229E+00
   1.5349458E-04   4.8549453E+05   -1.8312081E+00
   1.5420343E-04   4.8141610E+05   -1.8306925E+00
   1.5491556E-04   4.7737306E+05   -1.8301762E+00
   1.5563098E-04   4.7336511E+05   -1.8296591E+00
   1.5634970E-04   4.6939192E+05   -1.8291412E+00
   1.5707174E-04   4.6545320E+05   -1.8286226E+00
   1.5779711E-04   4.6154863E+05   -1.8281032E+00
   1.5852584E-04   4.5767791E+05   -1.8275831E+00
   1.5925792E-04   4.5384074E+05   -1.8270622E+00
   1.5999339E-04   4.5003682E+05   -1.8265406E+00
   1.6073226E-04   4.4626585E+05   -1.8260183E+00
   1.6147454E-04   4.4252755E+05   -1.8254952E+00
   1.6222024E-04   4.3882163E+05   -1.8249714E+00
   1.6296939E-04   4.3514779E+05   -1.8244469E+00
   1.6372200E-04   4.3150575E+05   -1.8239216E+00
   1.6447809E-04   4.2789523E+05   -1.8233956E+00
   1.6523767E-04   4.2431595E+05   -1.8228690E+00
   1.6600075E-04   4.2076763E+05   -1.8223416E+00
   1.6676736E-04   4.1725000E+05   -1.8218135E+00
   1.6753751E-04   4.1376278E+05   -1.8212847E+00
   1.6831122E-04   4.1030571E+05   -1.8207552E+00
   1.6908849E-04   4.0687852E+05   -1.8202250E+00
   1.6986936E-04   4.0348094E+05   -1.8196941E+00
   1.7065384E-04   4.0011271E+05   -1.8191626E+00
   1.7144193E-04   3.9677357E+05   -1.8186304E+00
   1.7223367E-04   3.9346326E+05   -1.8180975E+00
   1.7302906E-04   3.9018153E+05   -1.8175639E+00
   1.7382813E-04   3.8692812E+05   -1.8170297E+00
   1.7463089E-04   3.8370278E+05   -1.8164948E+00
   1.7543735E-04   3.8050527E+05   -1.8159592E+00
   1.7624754E-04   3.7733534E+05   -1.8154230E+00
   1.7706147E-04   3.7419274E+05   -1.8148862E+00
   1.7787916E-04   3.7107723E+05   -1.8143487E+00
   1.7870062E-04   3.6798857E+05   -1.8138105E+00
   1.7952588E-04   3.6492653E+05   -1.8132718E+00
   1.8035495E-04   3.6189086E+05   -1.8127324E+00
   1.8118785E-04   3.5888134E+05   -1.8121924E+00
   1.8202459E-04   3.5589773E+05   -1.8116517E+00
   1.8286520E-04   3.5293981E+05   -1.8111105E+00
   1.8370969E-04   3.5000734E+05   -1.8105686E+00
   1.8455808E-04   3.4710011E+05   -1.8100261E+00
   1.8541039E-04   3.4421788E+05   -1.8094831E+00
   1.8626663E-04   3.4136045E+05   -1.8089394E+00
   1.8712683E-04   3.3852758E+05   -1.8083951E+00
   1.8799100E-04   3.3571906E+05   -1.8078503E+00
   1.8885917E-04   3.3293468E+05   -1.8073049E+00
   1.8973134E-04   3.3017422E+05   -1.8067589E+00
   1.9060754E-04   3.2743748E+05   -1.8062123E+00
   1.9148778E-04   3.2472423E+05   -1.8056652E+00
   1.9237209E-04   3.2203428E+05   -1.8051175E+00
   1.9326049E-04   3.1936743E+05   -1.8045692E+00
   1.9415299E-04   3.1672345E+05   -1.8040204E+00
   1.9504960E-04   3.1410216E+05   -1.8034710E+00
   1.9595036E-04   3.1150336E+05   -1.8029211E+00
   1.9685528E-04   3.0892684E+05   -1.8023707E+00
   1.9776438E-04   3.0637240E+05   -1.8018197E+00
   1.9867768E-04   3.0383986E+05   -1.8012682E+00
   1.9959519E-04   3.0132902E+05   -1.8007162E+00
   2.0051694E-04   2.9883970E+05   -1.8001637E+00
   2.0144295E-04   2.9637169E+05   -1.7996107E+00
   2.0237324E-04   2.9392481E+05   -1.7990571E+00
   2.0330782E-04   2.9149887E+05   -1.7985030E+00
   2.0424671E-04   2.8909370E+05   -1.7979485E+00
   2.0518995E-04   2.8670911E+05   -1.7973935E+00
   2.0613754E-04   2.8434491E+05   -1.7968379E+00
   2.0708950E-04   2.8200093E+05   -1.7962819E+00
   2.0804586E-04   2.7967699E+05   -1.7957255E+00
   2.0900664E-04   2.7737291E+05   -1.7951685E+00
   2.0997185E-04   2.7508852E+05   -1.7946111E+00
   2.1094152E-04   2.7282365E+05   -1.7940532E+00
   2.1191567E-04   2.7057812E+05   -1.7934949E+00
   2.1289432E-04   2.6835176E+05   -1.7929361E+00
   2.1387749E-04   2.6614440E+05   -1.7923769E+00
   2.1486520E-04   2.6395589E+05   -1.7918173E+00
   2.1585747E-04   2.6178604E+05   -1.7912572E+00
   2.1685432E-04   2.5963470E+05   -1.7906967E+00
   2.1785578E-04   2.5750171E+05   -1.7901357E+00
   2.1886186E-04   2.5538690E+05   -1.7895744E+00
   2.1987259E-04   2.5329011E+05   -1.7890126E+00
   2.2088798E-04   2.5121119E+05   -1.7884505E+00
   2.2190807E-04   2.4914998E+05   -1.7878879E+00
   2.2293286E-04   2.4710632E+05   -1.7873250E+00
   2.2396239E-04   2.4508006E+05   -1.7867616E+00
   2.2499667E-04   2.4307105E+05   -1.7861979E+00
   2.2603573E-04   2.4107913E+05   -1.7856338E+00
   2.2707958E-04   2.3910416E+05   -1.7850693E+00
   2.2812826E-04   2.3714598E+05   -1.7845045E+00
   2.2918178E-04   2.3520445E+05   -1.7839393E+00
   2.3024017E-04   2.3327943E+05   -1.7833738E+00
   2.3130344E-04   2.3137076E+05   -1.7828079E+00
   2.3237162E-04   2.2947831E+05   -1.7822416E+00
   2.3344474E-04   2.2760193E+05   -1.7816750E+00
   2.3452281E-04   2.2574148E+05   -1.7811081E+00
   2.3560586E-04   2.2389683E+05   -1.7805409E+00
   2.3669392E-04   2.2206783E+05   -1.7799733E+00
   2.3778699E-04   2.2025435E+05   -1.7794055E+00
   2.3888512E-04   2.1845625E+05   -1.7788373E+00
   2.3998831E-04   2.1667339E+05   -1.7782688E+00
   2.4109661E-04   2.1490565E+05   -1.7777000E+00
   2.4221001E-04   2.1315289E+05   -1.7771310E+00
   2.4332857E-04   2.1141498E+05   -1.7765616E+00
   2.4445228E-04   2.0969179E+05   -1.7759920E+00
   2.4558119E-04   2.0798319E+05   -1.7754221E+00
   2.4671531E-04   2.0628905E+05   -1.7748519E+00
   2.4785467E-04   2.0460925E+05   -1.7742815E+00
   2.4899928E-04   2.0294367E+05   -1.7737108E+00
   2.5014919E-04   2.0129217E+05   -1.7731399E+00
   2.5130440E-04   1.9965464E+05   -1.7725687E+00
   2.5246495E-04   1.9803095E+05   -1.7719973E+00
   2.5363086E-04   1.9642098E+05   -1.7714256E+00
   2.5480216E-04   1.9482461E+05   -1.7708537E+00
   2.5597886E-04   1.9324173E+05   -1.7702816E+00
   2.5716100E-04   1.9167221E+05   -1.7697093E+00
   2.5834859E-04   1.9011594E+05   -1.7691368E+00
   2.5954168E-04   1.8857280E+05   -1.7685641E+00
   2.6074027E-04   1.8704269E+05   -1.7679911E+00
   2.6194439E-04   1.8552548E+05   -1.7674180E+00
   2.6315408E-04   1.8402106E+05   -1.7668447E+00
   2.6436935E-04   1.8252932E+05   -1.7662713E+00
   2.6559024E-04   1.8105016E+05   -1.7656976E+00
   2.6681676E-04   1.7958345E+05   -1.7651238E+00
   2.6804895E-04   1.7812910E+05   -1.7645498E+00
   2.6928683E-04   1.7668700E+05   -1.7639757E+00
   2.7053042E-04   1.7525703E+05   -1.7634014E+00
   2.7177976E-04   1.7383910E+05   -1.7628270E+00
   2.7303487E-04   1.7243309E+05   -1.7622525E+00
   2.7429577E-04   1.7103891E+05   -1.7616778E+00
   2.7556250E-04   1.6965645E+05   -1.7611030E+00
   2.7683507E-04   1.6828561E+05   -1.7605280E+00
   2.7811353E-04   1.6692629E+05   -1.7599530E+00
   2.7939788E-04   1.6557839E+05   -1.7593778E+00
   2.8068817E-04   1.6424181E+05   -1.7588026E+00
   2.8198442E-04   1.6291644E+05   -1.7582273E+00
   2.8328665E-04   1.6160221E+05   -1.7576518E+00
   2.8459490E-04   1.6029899E+05   -1.7570763E+00
   2.8590919E-04   1.5900671E+05   -1.7565007E+00
   2.8722955E-04   1.5772527E+05   -1.7559251E+00
   2.8855600E-04   1.5645457E+05   -1.7553494E+00
   2.8988859E-04   1.5519452E+05   -1.7547736E+00
   2.9122732E-04   1.5394502E+05   -1.7541978E+00
   2.9257224E-04   1.5270599E+05   -1.7536219E+00
   2.9392337E-04   1.5147733E+05   -1.7530460E+00
   2.9528074E-04   1.5025896E+05   -1.7524700E+00
   2.9664438E-04   1.4905078E+05   -1.7518941E+00
   2.9801431E-04   1.4785271E+05   -1.7513181E+00
   2.9939057E-04   1.4666466E+05   -1.7507421E+00
   3.0077319E-04   1.4548654E+05   -1.7501661E+00
   3.0216219E-04   1.4431827E+05   -1.7495901E+00
   3.0355761E-04   1.4315976E+05   -1.7490140E+00
   3.0495947E-04   1.4201093E+05   -1.7484380E+00
   3.0636780E-04   1.4087169E+05   -1.7478621E+00
   3.0778264E-04   1.3974196E+05   -1.7472861E+00
   3.0920401E-04   1.3862165E+05   -1.7467102E+00
   3.1063195E-04   1.3751070E+05   -1.7461343E+00
   3.1206648E-04   1.3640900E+05   -1.7455584E+00
   3.1350764E-04   1.3531650E+05   -1.7449826E+00
   3.1495545E-04   1.3423310E+05   -1.7444068E+00
   3.1640994E-04   1.3315873E+05   -1.7438311E+00
   3.1787116E-04   1.3209330E+05   -1.7432555E+00
   3.1933912E-04   1.3103675E+05   -1.7426799E+00
   3.2081386E-04   1.2998900E+05   -1.7421044E+00
   3.2229541E-04   1.2894996E+05   -1.7415290E+00
   3.2378381E-04   1.2791957E+05   -1.7409537E+00
   3.2527908E-04   1.2689775E+05   -1.7403785E+00
   3.2678125E-04   1.2588443E+05   -1.7398034E+00
   3.2829036E-04   1.2487952E+05   -1.7392283E+00
   3.2980644E-04   1.2388297E+05   -1.7386534E+00
   3.3132952E-04   1.2289469E+05   -1.7380787E+00
   3.3285963E-04   1.2191463E+05   -1.7375040E+00
   3.3439681E-04   1.2094269E+05   -1.7369295E+00
   3.3594109E-04   1.1997883E+05   -1.7363551E+00
   3.3749250E-04   1.1902296E+05   -1.7357809E+00
   3.3905108E-04   1.1807502E+05   -1.7352068E+00
   3.4061685E-04   1.1713494E+05   -1.7346328E+00
   3.4218986E-04   1.1620265E+05   -1.7340591E+00
   3.4377013E-04   1.1527808E+05   -1.7334855E+00
   3.4535769E-04   1.1436118E+05   -1.7329120E+00
   3.4695259E-04   1.1345186E+05   -1.7323388E+00
   3.4855485E-04   1.1255008E+05   -1.7317657E+00
   3.5016452E-04   1.1165575E+05   -1.7311928E+00
   3.5178161E-04   1.1076883E+05   -1.7306202E+00
   3.5340618E-04   1.0988924E+05   -1.7300477E+00
   3.5503824E-04   1.0901692E+05   -1.7294754E+00
   3.5667785E-04   1.0815181E+05   -1.7289034E+00
   3.5832502E-04   1.0729385E+05   -1.7283315E+00
   3.5997981E-04   1.0644298E+05   -1.7277600E+00
   3.6164223E-04   1.0559913E+05   -1.7271886E+00
   3.6331233E-04   1.0476225E+05   -1.7266175E+00
   3.6499015E-04   1.0393227E+05   -1.7260466E+00
   3.6667571E-04   1.0310914E+05   -1.7254760E+00
   3.6836906E-04   1.0229280E+05   -1.7249056E+00
   3.7007022E-04   1.0148318E+05   -1.7243355E+00
   3.7177925E-04   1.0068024E+05   -1.7237656E+00
   3.7349616E-04   9.9883919E+04   -1.7231961E+00
   3.7522101E-04   9.9094152E+04   -1.7226268E+00
   3.7695382E-04   9.8310887E+04   -1.7220578E+00
   3.7869463E-04   9.7534070E+04   -1.7214891E+00
   3.8044348E-04   9.6763644E+04   -1.7209207E+00
   3.8220041E-04   9.5999556E+04   -1.7203526E+00
   3.8396545E-04   9.5241750E+04   -1.7197848E+00
   3.8573864E-04   9.4490173E+04   -1.7192173E+00
   3.8752002E-04   9.3744772E+04   -1.7186501E+00
   3.8930963E-04   9.3005494E+04   -1.7180833E+00
   3.9110750E-04   9.2272287E+04   -1.7175168E+00
   3.9291368E-04   9.1545099E+04   -1.7169507E+00
   3.9472820E-04   9.0823879E+04   -1.7163848E+00
   3.9655109E-04   9.0108575E+04   -1.7158194E+00
   3.9838241E-04   8.9399138E+04   -1.7152543E+00
   4.0022218E-04   8.8695518E+04   -1.7146895E+00
   4.0207045E-04   8.7997664E+04   -1.7141251E+00
   4.0392725E-04   8.7305528E+04   -1.7135611E+00
   4.0579263E-04   8.6619061E+04   -1.7129975E+00
   4.0766662E-04   8.5938215E+04   -1.7124342E+00
   4.0954927E-04   8.5262941E+04   -1.7118714E+00
   4.1144061E-04   8.4593193E+04   -1.7113089E+00
   4.1334068E-04   8.3928923E+04   -1.7107468E+00
   4.1524953E-04   8.3270084E+04   -1.7101852E+00
   4.1716720E-04   8.2616632E+04   -1.7096239E+00
   4.1909372E-04   8.1968519E+04   -1.7090631E+00
   4.2102914E-04   8.1325700E+04   -1.7085027E+00
   4.2297350E-04   8.0688131E+04   -1.7079427E+00
   4.2492683E-04   8.0055767E+04   -1.7073831E+00
   4.2688919E-04   7.9428563E+04   -1.7068240E+00
   4.2886061E-04   7.8806477E+04   -1.7062654E+00
   4.3084113E-04   7.8189463E+04   -1.7057072E+00
   4.3283080E-04   7.7577480E+04   -1.7051494E+00
   4.3482966E-04   7.6970485E+04   -1.7045921E+00
   4.3683775E-04   7.6368435E+04   -1.7040352E+00
   4.3885511E-04   7.5771289E+04   -1.7034789E+00
   4.4088179E-04   7.5179004E+04   -1.7029230E+00
   4.4291783E-04   7.4591540E+04   -1.7023676E+00
   4.4496327E-04   7.4008856E+04   -1.7018126E+00
   4.4701816E-04   7.3430911E+04   -1.7012582E+00
   4.4908253E-04   7.2857665E+04   -1.7007043E+00
   4.5115644E-04   7.2289079E+04   -1.7001508E+00
   4.5323993E-04   7.1725114E+04   -1.6995979E+00
   4.5533304E-04   7.1165729E+04   -1.6990455E+00
   4.5743582E-04   7.0610887E+04   -1.6984936E+00
   4.5954830E-04   7.0060548E+04   -1.6979422E+00
   4.6167054E-04   6.9514675E+04   -1.6973914E+00
   4.6380259E-04   6.8973231E+04   -1.6968411E+00
   4.6594448E-04   6.8436177E+04   -1.6962913E+00
   4.6809626E-04   6.7903476E+04   -1.6957421E+00
   4.7025797E-04   6.7375093E+04   -1.6951934E+00
   4.7242967E-04   6.6850990E+04   -1.6946452E+00
   4.7461140E-04   6.6331131E+04   -1.6940977E+00
   4.7680321E-04   6.5815481E+04   -1.6935507E+00
   4.7900514E-04   6.5304004E+04   -1.6930042E+00
   4.8121723E-04   6.4796665E+04   -1.6924584E+00
   4.8343954E-04   6.4293429E+04   -1.6919131E+00
   4.8567212E-04   6.3794262E+04   -1.6913683E+00
   4.8791500E-04   6.3299129E+04   -1.6908242E+00
   4.9016825E-04   6.2807996E+04   -1.6902807E+00
   4.9243189E-04   6.2320830E+04   -1.6897378E+00
   4.9470600E-04   6.1837597E+04   -1.6891954E+00
   4.9699060E-04   6.1358264E+04   -1.6886537E+00
   4.9928575E-04   6.0882799E+04   -1.6881126E+00
   5.0159151E-04   6.0411169E+04   -1.6875721E+00
   5.0390791E-04   5.9943341E+04   -1.6870322E+00
   5.0623501E-04   5.9479284E+04   -1.6864930E+00
   5.0857286E-04   5.9018966E+04   -1.6859543E+00
   5.1092150E-04   5.8562356E+04   -1.6854163E+00
   5.1328099E-04   5.8109423E+04   -1.6848790E+00
   5.1565137E-04   5.7660135E+04   -1.6843423E+00
   5.1803270E-04   5.7214462E+04   -1.6838062E+00
   5.2042503E-04   5.6772375E+04   -1.6832708E+00
   5.2282841E-04   5.6333842E+04   -1.6827361E+00
   5.2524289E-04   5.5898834E+04   -1.6822020E+00
   5.2766851E-04   5.5467322E+04   -1.6816686E+00
   5.3010534E-04   5.5039276E+04   -1.6811358E+00
   5.3255342E-04   5.4614667E+04   -1.6806037E+00
   5.3501281E-04   5.4193466E+04   -1.6800723E+00
   5.3748356E-04   5.3775646E+04   -1.6795416E+00
   5.3996571E-04   5.3361177E+04   -1.6790116E+00
   5.4245933E-04   5.2950032E+04   -1.6784822E+00
   5.4496446E-04   5.2542183E+04   -1.6779536E+00
   5.4748117E-04   5.2137603E+04   -1.6774257E+00
   5.5000949E-04   5.1736263E+04   -1.6768984E+00
   5.5254949E-04   5.1338137E+04   -1.6763719E+00
   5.5510123E-04   5.0943199E+04   -1.6758461E+00
   5.5766474E-04   5.0551421E+04   -1.6753210E+00
   5.6024010E-04   5.0162778E+04   -1.6747966E+00
   5.6282734E-04   4.9777242E+04   -1.6742730E+00
   5.6542654E-04   4.9394789E+04   -1.6737500E+00
   5.6803774E-04   4.9015392E+04   -1.6732279E+00
   5.7066099E-04   4.8639026E+04   -1.6727064E+00
   5.7329637E-04   4.8265666E+04   -1.6721857E+00
   5.7594391E-04   4.7895287E+04   -1.6716657E+00
   5.7860368E-04   4.7527864E+04   -1.6711465E+00
   5.8127573E-04   4.7163373E+04   -1.6706281E+00
   5.8396012E-04   4.6801788E+04   -1.6701103E+00
   5.8665691E-04   4.6443086E+04   -1.6695934E+00
   5.8936616E-04   4.6087243E+04   -1.6690772E+00
   5.9208791E-04   4.5734235E+04   -1.6685618E+00
   5.9482223E-04   4.5384039E+04   -1.6680472E+00
   5.9756919E-04   4.5036631E+04   -1.6675333E+00
   6.0032882E-04   4.4691988E+04   -1.6670202E+00
   6.0310120E-04   4.4350087E+04   -1.6665079E+00
   6.0588639E-04   4.4010906E+04   -1.6659964E+00
   6.0868443E-04   4.3674421E+04   -1.6654857E+00
   6.1149540E-04   4.3340611E+04   -1.6649757E+00
   6.1431935E-04   4.3009453E+04   -1.6644666E+00
   6.1715634E-04   4.2680926E+04   -1.6639582E+00
   6.2000644E-04   4.2355007E+04   -1.6634507E+00
   6.2286969E-04   4.2031675E+04   -1.6629440E+00
