#        a       HoverH0(a)       dlogHdloga_of_a(a)
   1.0000000E-04   1.0965373E+06   -1.8364891E+00
   1.0046181E-04   1.0872993E+06   -1.8359816E+00
   1.0092575E-04   1.0781416E+06   -1.8354734E+00
   1.0139184E-04   1.0690636E+06   -1.8349644E+00
   1.0186008E-04   1.0600645E+06   -1.8344546E+00
   1.0233048E-04   1.0511436E+06   -1.8339440E+00
   1.0280305E-04   1.0423003E+06   -1.8334326E+00
   1.0327781E-04   1.0335338E+06   -1.8329204E+00
   1.0375475E-04   1.0248434E+06   -1.8324074E+00
   1.0423390E-04   1.0162285E+06   -1.8318936E+00
   1.0471527E-04   1.0076884E+06   -1.8313791E+00
   1.0519885E-04   9.9922246E+05   -1.8308638E+00
   1.0568467E-04   9.9082999E+05   -1.8303477E+00
   1.0617274E-04   9.8251035E+05   -1.8298309E+00
   1.0666305E-04   9.7426289E+05   -1.8293133E+00
   1.0715563E-04   9.6608696E+05   -1.8287949E+00
   1.0765049E-04   9.5798194E+05   -1.8282758E+00
   1.0814763E-04   9.4994719E+05   -1.8277559E+00
   1.0864707E-04   9.4198208E+05   -1.8272353E+00
   1.0914881E-04   9.3408601E+05   -1.8267140E+00
   1.0965287E-04   9.2625834E+05   -1.8261919E+00
   1.1015926E-04   9.1849849E+05   -1.8256691E+00
   1.1066799E-04   9.1080583E+05   -1.8251455E+00
   1.1117906E-04   9.0317979E+05   -1.8246212E+00
   1.1169250E-04   8.9561976E+05   -1.8240963E+00
   1.1220831E-04   8.8812516E+05   -1.8235705E+00
   1.1272650E-04   8.8069542E+05   -1.8230441E+00
   1.1324708E-04   8.7332994E+05   -1.8225170E+00
   1.1377007E-04   8.6602817E+05   -1.8219891E+00
   1.1429547E-04   8.5878955E+05   -1.8214606E+00
   1.1482330E-04   8.5161350E+05   -1.8209313E+00
   1.1535356E-04   8.4449947E+05   -1.8204014E+00
   1.1588628E-04   8.3744692E+05   -1.8198708E+00
   1.1642145E-04   8.3045529E+05   -1.8193395E+00
   1.1695910E-04   8.2352406E+05   -1.8188075E+00
   1.1749923E-04   8.1665268E+05   -1.8182748E+00
   1.1804185E-04   8.0984062E+05   -1.8177415E+00
   1.1858698E-04   8.0308735E+05   -1.8172075E+00
   1.1913463E-04   7.9639236E+05   -1.8166729E+00
   1.1968481E-04   7.8975514E+05   -1.8161375E+00
   1.2023752E-04   7.8317516E+05   -1.8156016E+00
   1.2079279E-04   7.7665192E+05   -1.8150650E+00
   1.2135063E-04   7.7018492E+05   -1.8145277E+00
   1.2191104E-04   7.6377367E+05   -1.8139898E+00
   1.2247403E-04   7.5741766E+05   -1.8134513E+00
   1.2303963E-04   7.5111641E+05   -1.8129121E+00
   1.2360784E-04   7.4486943E+05   -1.8123723E+00
   1.2417868E-04   7.3867624E+05   -1.8118319E+00
   1.2475215E-04   7.3253638E+05   -1.8112909E+00
   1.2532826E-04   7.2644936E+05   -1.8107492E+00
   1.2590704E-04   7.2041472E+05   -1.8102070E+00
   1.2648850E-04   7.1443199E+05   -1.8096641E+00
   1.2707263E-04   7.0850072E+05   -1.8091207E+00
   1.2765947E-04   7.0262046E+05   -1.8085766E+00
   1.2824901E-04   6.9679074E+05   -1.8080320E+00
   1.2884128E-04   6.9101114E+05   -1.8074868E+00
   1.2943628E-04   6.8528119E+05   -1.8069410E+00
   1.3003403E-04   6.7960047E+05   -1.8063947E+00
   1.3063454E-04   6.7396853E+05   -1.8058477E+00
   1.3123783E-04   6.6838495E+05   -1.8053002E+00
   1.3184390E-04   6.6284931E+05   -1.8047522E+00
   1.3245277E-04   6.5736117E+05   -1.8042036E+00
   1.3306445E-04   6.5192012E+05   -1.8036544E+00
   1.3367895E-04   6.4652574E+05   -1.8031047E+00
   1.3429630E-04   6.4117762E+05   -1.8025545E+00
   1.3491649E-04   6.3587535E+05   -1.8020037E+00
   1.3553955E-04   6.3061854E+05   -1.8014524E+00
   1.3616548E-04   6.2540677E+05   -1.8009006E+00
   1.3679431E-04   6.2023965E+05   -1.8003483E+00
   1.3742604E-04   6.1511679E+05   -1.7997954E+00
   1.3806069E-04   6.1003780E+05   -1.7992421E+00
   1.3869827E-04   6.0500229E+05   -1.7986882E+00
   1.3933879E-04   6.0000987E+05   -1.7981338E+00
   1.3998227E-04   5.9506017E+05   -1.7975790E+00
   1.4062872E-04   5.9015282E+05   -1.7970237E+00
   1.4127816E-04   5.8528743E+05   -1.7964678E+00
   1.4193060E-04   5.8046363E+05   -1.7959115E+00
   1.4258605E-04   5.7568108E+05   -1.7953548E+00
   1.4324453E-04   5.7093939E+05   -1.7947975E+00
   1.4390605E-04   5.6623821E+05   -1.7942399E+00
   1.4457062E-04   5.6157718E+05   -1.7936817E+00
   1.4523826E-04   5.5695596E+05   -1.7931231E+00
   1.4590899E-04   5.5237419E+05   -1.7925641E+00
   1.4658281E-04   5.4783152E+05   -1.7920046E+00
   1.4725974E-04   5.4332761E+05   -1.7914447E+00
   1.4793981E-04   5.3886212E+05   -1.7908843E+00
   1.4862301E-04   5.3443471E+05   -1.7903236E+00
   1.4930936E-04   5.3004504E+05   -1.7897624E+00
   1.4999889E-04   5.2569279E+05   -1.7892008E+00
   1.5069160E-04   5.2137763E+05   -1.7886388E+00
   1.5138751E-04   5.1709923E+05   -1.7880764E+00
   1.5208663E-04   5.1285726E+05   -1.7875136E+00
   1.5278899E-04   5.0865141E+05   -1.7869504E+00
   1.5349458E-04   5.0448137E+05   -1.7863868E+00
   1.5420343E-04   5.0034681E+05   -1.7858229E+00
   1.5491556E-04   4.9624743E+05   -1.7852586E+00
   1.5563098E-04   4.9218291E+05   -1.7846939E+00
   1.5634970E-04   4.8815295E+05   -1.7841288E+00
   1.5707174E-04   4.8415726E+05   -1.7835634E+00
   1.5779711E-04   4.8019552E+05   -1.7829977E+00
   1.5852584E-04   4.7626743E+05   -1.7824316E+00
   1.5925792E-04   4.7237272E+05   -1.7818652E+00
   1.5999339E-04   4.6851107E+05   -1.7812984E+00
   1.6073226E-04   4.6468221E+05   -1.7807313E+00
   1.6147454E-04   4.6088585E+05   -1.7801639E+00
   1.6222024E-04   4.5712169E+05   -1.7795961E+00
   1.6296939E-04   4.5338947E+05   -1.7790281E+00
   1.6372200E-04   4.4968889E+05   -1.7784598E+00
   1.6447809E-04   4.4601969E+05   -1.7778911E+00
   1.6523767E-04   4.4238158E+05   -1.7773222E+00
   1.6600075E-04   4.3877430E+05   -1.7767529E+00
   1.6676736E-04   4.3519758E+05   -1.7761834E+00
   1.6753751E-04   4.3165115E+05   -1.7756137E+00
   1.6831122E-04   4.2813474E+05   -1.7750436E+00
   1.6908849E-04   4.2464809E+05   -1.7744733E+00
   1.6986936E-04   4.2119094E+05   -1.7739027E+00
   1.7065384E-04   4.1776304E+05   -1.7733319E+00
   1.7144193E-04   4.1436412E+05   -1.7727608E+00
   1.7223367E-04   4.1099394E+05   -1.7721895E+00
   1.7302906E-04   4.0765225E+05   -1.7716180E+00
   1.7382813E-04   4.0433879E+05   -1.7710462E+00
   1.7463089E-04   4.0105332E+05   -1.7704742E+00
   1.7543735E-04   3.9779559E+05   -1.7699020E+00
   1.7624754E-04   3.9456537E+05   -1.7693296E+00
   1.7706147E-04   3.9136241E+05   -1.7687570E+00
   1.7787916E-04   3.8818647E+05   -1.7681841E+00
   1.7870062E-04   3.8503733E+05   -1.7676111E+00
   1.7952588E-04   3.8191474E+05   -1.7670379E+00
   1.8035495E-04   3.7881847E+05   -1.7664646E+00
   1.8118785E-04   3.7574830E+05   -1.7658910E+00
   1.8202459E-04   3.7270399E+05   -1.7653173E+00
   1.8286520E-04   3.6968533E+05   -1.7647434E+00
   1.8370969E-04   3.6669209E+05   -1.7641694E+00
   1.8455808E-04   3.6372405E+05   -1.7635952E+00
   1.8541039E-04   3.6078098E+05   -1.7630208E+00
   1.8626663E-04   3.5786267E+05   -1.7624464E+00
   1.8712683E-04   3.5496891E+05   -1.7618718E+00
   1.8799100E-04   3.5209949E+05   -1.7612970E+00
   1.8885917E-04   3.4925418E+05   -1.7607222E+00
   1.8973134E-04   3.4643278E+05   -1.7601472E+00
   1.9060754E-04   3.4363509E+05   -1.7595721E+00
   1.9148778E-04   3.4086089E+05   -1.7589970E+00
   1.9237209E-04   3.3810998E+05   -1.7584217E+00
   1.9326049E-04   3.3538216E+05   -1.7578463E+00
   1.9415299E-04   3.3267724E+05   -1.7572709E+00
   1.9504960E-04   3.2999500E+05   -1.7566954E+00
   1.9595036E-04   3.2733526E+05   -1.7561198E+00
   1.9685528E-04   3.2469782E+05   -1.7555441E+00
   1.9776438E-04   3.2208248E+05   -1.7549684E+00
   1.9867768E-04   3.1948906E+05   -1.7543926E+00
   1.9959519E-04   3.1691735E+05   -1.7538168E+00
   2.0051694E-04   3.1436719E+05   -1.7532410E+00
   2.0144295E-04   3.1183837E+05   -1.7526651E+00
   2.0237324E-04   3.0933071E+05   -1.7520892E+00
   2.0330782E-04   3.0684404E+05   -1.7515132E+00
   2.0424671E-04   3.0437816E+05   -1.7509373E+00
   2.0518995E-04   3.0193290E+05   -1.7503613E+00
   2.0613754E-04   2.9950807E+05   -1.7497853E+00
   2.0708950E-04   2.9710352E+05   -1.7492094E+00
   2.0804586E-04   2.9471904E+05   -1.7486334E+00
   2.0900664E-04   2.9235448E+05   -1.7480574E+00
   2.0997185E-04   2.9000967E+05   -1.7474815E+00
   2.1094152E-04   2.8768442E+05   -1.7469056E+00
   2.1191567E-04   2.8537857E+05   -1.7463298E+00
   2.1289432E-04   2.8309195E+05   -1.7457539E+00
   2.1387749E-04   2.8082440E+05   -1.7451781E+00
   2.1486520E-04   2.7857576E+05   -1.7446024E+00
   2.1585747E-04   2.7634585E+05   -1.7440267E+00
   2.1685432E-04   2.7413452E+05   -1.7434511E+00
   2.1785578E-04   2.7194160E+05   -1.7428756E+00
   2.1886186E-04   2.6976694E+05   -1.7423001E+00
   2.1987259E-04   2.6761039E+05   -1.7417247E+00
   2.2088798E-04   2.6547177E+05   -1.7411494E+00
   2.2190807E-04   2.6335095E+05   -1.7405742E+00
   2.2293286E-04   2.6124776E+05   -1.7399991E+00
   2.2396239E-04   2.5916205E+05   -1.7394241E+00
   2.2499667E-04   2.5709368E+05   -1.7388492E+00
   2.2603573E-04   2.5504248E+05   -1.7382744E+00
   2.2707958E-04   2.5300833E+05   -1.7376998E+00
   2.2812826E-04   2.5099106E+05   -1.7371253E+00
   2.2918178E-04   2.4899054E+05   -1.7365509E+00
   2.3024017E-04   2.4700661E+05   -1.7359766E+00
   2.3130344E-04   2.4503914E+05   -1.7354026E+00
   2.3237162E-04   2.4308798E+05   -1.7348286E+00
   2.3344474E-04   2.4115300E+05   -1.7342548E+00
   2.3452281E-04   2.3923405E+05   -1.7336812E+00
   2.3560586E-04   2.3733101E+05   -1.7331078E+00
   2.3669392E-04   2.3544372E+05   -1.7325345E+00
   2.3778699E-04   2.3357205E+05   -1.7319614E+00
   2.3888512E-04   2.3171588E+05   -1.7313886E+00
   2.3998831E-04   2.2987506E+05   -1.7308159E+00
   2.4109661E-04   2.2804947E+05   -1.7302434E+00
   2.4221001E-04   2.2623897E+05   -1.7296711E+00
   2.4332857E-04   2.2444344E+05   -1.7290990E+00
   2.4445228E-04   2.2266275E+05   -1.7285272E+00
   2.4558119E-04   2.2089676E+05   -1.7279556E+00
   2.4671531E-04   2.1914536E+05   -1.7273842E+00
   2.4785467E-04   2.1740842E+05   -1.7268130E+00
   2.4899928E-04   2.1568581E+05   -1.7262421E+00
   2.5014919E-04   2.1397741E+05   -1.7256715E+00
   2.5130440E-04   2.1228311E+05   -1.7251011E+00
   2.5246495E-04   2.1060277E+05   -1.7245309E+00
   2.5363086E-04   2.0893628E+05   -1.7239610E+00
   2.5480216E-04   2.0728353E+05   -1.7233914E+00
   2.5597886E-04   2.0564438E+05   -1.7228221E+00
   2.5716100E-04   2.0401873E+05   -1.7222531E+00
   2.5834859E-04   2.0240647E+05   -1.7216843E+00
   2.5954168E-04   2.0080747E+05   -1.7211159E+00
   2.6074027E-04   1.9922163E+05   -1.7205477E+00
   2.6194439E-04   1.9764882E+05   -1.7199799E+00
   2.6315408E-04   1.9608895E+05   -1.7194124E+00
   2.6436935E-04   1.9454190E+05   -1.7188452E+00
   2.6559024E-04   1.9300755E+05   -1.7182783E+00
   2.6681676E-04   1.9148581E+05   -1.7177117E+00
   2.6804895E-04   1.8997656E+05   -1.7171455E+00
   2.6928683E-04   1.8847970E+05   -1.7165797E+00
   2.7053042E-04   1.8699512E+05   -1.7160141E+00
   2.7177976E-04   1.8552271E+05   -1.7154490E+00
   2.7303487E-04   1.8406238E+05   -1.7148842E+00
   2.7429577E-04   1.8261402E+05   -1.7143197E+00
   2.7556250E-04   1.8117753E+05   -1.7137556E+00
   2.7683507E-04   1.7975280E+05   -1.7131919E+00
   2.7811353E-04   1.7833974E+05   -1.7126286E+00
   2.7939788E-04   1.7693825E+05   -1.7120657E+00
   2.8068817E-04   1.7554822E+05   -1.7115032E+00
   2.8198442E-04   1.7416957E+05   -1.7109410E+00
   2.8328665E-04   1.7280219E+05   -1.7103793E+00
   2.8459490E-04   1.7144599E+05   -1.7098180E+00
   2.8590919E-04   1.7010088E+05   -1.7092571E+00
   2.8722955E-04   1.6876675E+05   -1.7086966E+00
   2.8855600E-04   1.6744352E+05   -1.7081365E+00
   2.8988859E-04   1.6613110E+05   -1.7075769E+00
   2.9122732E-04   1.6482938E+05   -1.7070177E+00
   2.9257224E-04   1.6353829E+05   -1.7064589E+00
   2.9392337E-04   1.6225772E+05   -1.7059006E+00
   2.9528074E-04   1.6098760E+05   -1.7053428E+00
   2.9664438E-04   1.5972783E+05   -1.7047854E+00
   2.9801431E-04   1.5847833E+05   -1.7042285E+00
   2.9939057E-04   1.5723900E+05   -1.7036720E+00
   3.0077319E-04   1.5600976E+05   -1.7031160E+00
   3.0216219E-04   1.5479053E+05   -1.7025605E+00
   3.0355761E-04   1.5358123E+05   -1.7020055E+00
   3.0495947E-04   1.5238175E+05   -1.7014510E+00
   3.0636780E-04   1.5119204E+05   -1.7008969E+00
   3.0778264E-04   1.5001199E+05   -1.7003434E+00
   3.0920401E-04   1.4884154E+05   -1.6997904E+00
   3.1063195E-04   1.4768059E+05   -1.6992379E+00
   3.1206648E-04   1.4652907E+05   -1.6986859E+00
   3.1350764E-04   1.4538690E+05   -1.6981344E+00
   3.1495545E-04   1.4425400E+05   -1.6975834E+00
   3.1640994E-04   1.4313029E+05   -1.6970330E+00
   3.1787116E-04   1.4201569E+05   -1.6964831E+00
   3.1933912E-04   1.4091013E+05   -1.6959338E+00
   3.2081386E-04   1.3981353E+05   -1.6953850E+00
   3.2229541E-04   1.3872581E+05   -1.6948367E+00
   3.2378381E-04   1.3764691E+05   -1.6942891E+00
   3.2527908E-04   1.3657674E+05   -1.6937419E+00
   3.2678125E-04   1.3551523E+05   -1.6931954E+00
   3.2829036E-04   1.3446231E+05   -1.6926494E+00
   3.2980644E-04   1.3341791E+05   -1.6921040E+00
   3.3132952E-04   1.3238195E+05   -1.6915591E+00
   3.3285963E-04   1.3135436E+05   -1.6910149E+00
   3.3439681E-04   1.3033508E+05   -1.6904713E+00
   3.3594109E-04   1.2932403E+05   -1.6899282E+00
   3.3749250E-04   1.2832114E+05   -1.6893857E+00
   3.3905108E-04   1.2732635E+05   -1.6888439E+00
   3.4061685E-04   1.2633959E+05   -1.6883026E+00
   3.4218986E-04   1.2536079E+05   -1.6877620E+00
   3.4377013E-04   1.2438988E+05   -1.6872220E+00
   3.4535769E-04   1.2342680E+05   -1.6866826E+00
   3.4695259E-04   1.2247147E+05   -1.6861439E+00
   3.4855485E-04   1.2152385E+05   -1.6856057E+00
   3.5016452E-04   1.2058385E+05   -1.6850683E+00
   3.5178161E-04   1.1965142E+05   -1.6845314E+00
   3.5340618E-04   1.1872649E+05   -1.6839952E+00
   3.5503824E-04   1.1780901E+05   -1.6834597E+00
   3.5667785E-04   1.1689890E+05   -1.6829248E+00
   3.5832502E-04   1.1599611E+05   -1.6823906E+00
   3.5997981E-04   1.1510058E+05   -1.6818570E+00
   3.6164223E-04   1.1421224E+05   -1.6813241E+00
   3.6331233E-04   1.1333103E+05   -1.6807919E+00
   3.6499015E-04   1.1245690E+05   -1.6802603E+00
   3.6667571E-04   1.1158979E+05   -1.6797295E+00
   3.6836906E-04   1.1072963E+05   -1.6791993E+00
   3.7007022E-04   1.0987637E+05   -1.6786698E+00
   3.7177925E-04   1.0902995E+05   -1.6781410E+00
   3.7349616E-04   1.0819031E+05   -1.6776130E+00
   3.7522101E-04   1.0735740E+05   -1.6770856E+00
   3.7695382E-04   1.0653116E+05   -1.6765589E+00
   3.7869463E-04   1.0571154E+05   -1.6760329E+00
   3.8044348E-04   1.0489848E+05   -1.6755077E+00
   3.8220041E-04   1.0409192E+05   -1.6749831E+00
   3.8396545E-04   1.0329181E+05   -1.6744593E+00
   3.8573864E-04   1.0249810E+05   -1.6739363E+00
   3.8752002E-04   1.0171074E+05   -1.6734139E+00
   3.8930963E-04   1.0092966E+05   -1.6728923E+00
   3.9110750E-04   1.0015483E+05   -1.6723714E+00
   3.9291368E-04   9.9386178E+04   -1.6718513E+00
   3.9472820E-04   9.8623664E+04   -1.6713319E+00
   3.9655109E-04   9.7867234E+04   -1.6708133E+00
   3.9838241E-04   9.7116838E+04   -1.6702954E+00
   4.0022218E-04   9.6372425E+04   -1.6697783E+00
   4.0207045E-04   9.5633947E+04   -1.6692620E+00
   4.0392725E-04   9.4901352E+04   -1.6687464E+00
   4.0579263E-04   9.4174594E+04   -1.6682316E+00
   4.0766662E-04   9.3453622E+04   -1.6677176E+00
   4.0954927E-04   9.2738389E+04   -1.6672043E+00
   4.1144061E-04   9.2028848E+04   -1.6666918E+00
   4.1334068E-04   9.1324950E+04   -1.6661801E+00
   4.1524953E-04   9.0626650E+04   -1.6656693E+00
   4.1716720E-04   8.9933901E+04   -1.6651591E+00
   4.1909372E-04   8.9246657E+04   -1.6646498E+00
   4.2102914E-04   8.8564873E+04   -1.6641413E+00
   4.2297350E-04   8.7888502E+04   -1.6636336E+00
   4.2492683E-04   8.7217501E+04   -1.6631267E+00
   4.2688919E-04   8.6551824E+04   -1.6626206E+00
   4.2886061E-04   8.5891429E+04   -1.6621154E+00
   4.3084113E-04   8.5236271E+04   -1.6616109E+00
   4.3283080E-04   8.4586306E+04   -1.6611073E+00
   4.3482966E-04   8.3941493E+04   -1.6606044E+00
   4.3683775E-04   8.3301787E+04   -1.6601025E+00
   4.3885511E-04   8.2667148E+04   -1.6596013E+00
   4.4088179E-04   8.2037533E+04   -1.6591010E+00
   4.4291783E-04   8.1412901E+04   -1.6586015E+00
   4.4496327E-04   8.0793211E+04   -1.6581028E+00
   4.4701816E-04   8.0178421E+04   -1.6576050E+00
   4.4908253E-04   7.9568492E+04   -1.6571081E+00
   4.5115644E-04   7.8963384E+04   -1.6566120E+00
   4.5323993E-04   7.8363056E+04   -1.6561167E+00
   4.5533304E-04   7.7767470E+04   -1.6556223E+00
   4.5743582E-04   7.7176586E+04   -1.6551288E+00
   4.5954830E-04   7.6590366E+04   -1.6546361E+00
   4.6167054E-04   7.6008771E+04   -1.6541443E+00
   4.6380259E-04   7.5431763E+04   -1.6536533E+00
   4.6594448E-04   7.4859304E+04   -1.6531633E+00
   4.6809626E-04   7.4291358E+04   -1.6526741E+00
   4.7025797E-04   7.3727886E+04   -1.6521857E+00
   4.7242967E-04   7.3168853E+04   -1.6516983E+00
   4.7461140E-04   7.2614221E+04   -1.6512117E+00
   4.7680321E-04   7.2063955E+04   -1.6507260E+00
   4.7900514E-04   7.1518019E+04   -1.6502412E+00
   4.8121723E-04   7.0976377E+04   -1.6497573E+00
   4.8343954E-04   7.0438994E+04   -1.6492743E+00
   4.8567212E-04   6.9905835E+04   -1.6487922E+00
   4.8791500E-04   6.9376866E+04   -1.6483110E+00
   4.9016825E-04   6.8852052E+04   -1.6478307E+00
   4.9243189E-04   6.8331359E+04   -1.6473512E+00
   4.9470600E-04   6.7814753E+04   -1.6468727E+00
   4.9699060E-04   6.7302201E+04   -1.6463951E+00
   4.9928575E-04   6.6793670E+04   -1.6459184E+00
   5.0159151E-04   6.6289127E+04   -1.6454426E+00
   5.0390791E-04   6.5788539E+04   -1.6449678E+00
   5.0623501E-04   6.5291875E+04   -1.6444938E+00
   5.0857286E-04   6.4799100E+04   -1.6440208E+00
   5.1092150E-04   6.4310186E+04   -1.6435487E+00
   5.1328099E-04   6.3825098E+04   -1.6430775E+00
   5.1565137E-04   6.3343808E+04   -1.6426073E+00
   5.1803270E-04   6.2866282E+04   -1.6421379E+00
   5.2042503E-04   6.2392491E+04   -1.6416695E+00
   5.2282841E-04   6.1922405E+04   -1.6412021E+00
   5.2524289E-04   6.1455992E+04   -1.6407355E+00
   5.2766851E-04   6.0993224E+04   -1.6402700E+00
   5.3010534E-04   6.0534070E+04   -1.6398053E+00
   5.3255342E-04   6.0078501E+04   -1.6393416E+00
   5.3501281E-04   5.9626487E+04   -1.6388788E+00
   5.3748356E-04   5.9178001E+04   -1.6384170E+00
   5.3996571E-04   5.8733013E+04   -1.6379562E+00
   5.4245933E-04   5.8291494E+04   -1.6374962E+00
   5.4496446E-04   5.7853417E+04   -1.6370373E+00
   5.4748117E-04   5.7418754E+04   -1.6365792E+00
   5.5000949E-04   5.6987476E+04   -1.6361222E+00
   5.5254949E-04   5.6559557E+04   -1.6356661E+00
   5.5510123E-04   5.6134969E+04   -1.6352109E+00
   5.5766474E-04   5.5713685E+04   -1.6347568E+00
   5.6024010E-04   5.5295678E+04   -1.6343035E+00
   5.6282734E-04   5.4880922E+04   -1.6338513E+00
   5.6542654E-04   5.4469390E+04   -1.6334000E+00
   5.6803774E-04   5.4061056E+04   -1.6329497E+00
   5.7066099E-04   5.3655895E+04   -1.6325003E+00
   5.7329637E-04   5.3253880E+04   -1.6320520E+00
   5.7594391E-04   5.2854987E+04   -1.6316046E+00
   5.7860368E-04   5.2459189E+04   -1.6311581E+00
   5.8127573E-04   5.2066463E+04   -1.6307127E+00
   5.8396012E-04   5.1676782E+04   -1.6302682E+00
   5.8665691E-04   5.1290123E+04   -1.6298247E+00
   5.8936616E-04   5.0906461E+04   -1.6293822E+00
   5.9208791E-04   5.0525771E+04   -1.6289406E+00
   5.9482223E-04   5.0148030E+04   -1.6285001E+00
   5.9756919E-04   4.9773215E+04   -1.6280605E+00
   6.0032882E-04   4.9401300E+04   -1.6276219E+00
   6.0310120E-04   4.9032264E+04   -1.6271843E+00
   6.0588639E-04   4.8666082E+04   -1.6267477E+00
   6.0868443E-04   4.8302732E+04   -1.6263121E+00
   6.1149540E-04   4.7942191E+04   -1.6258775E+00
   6.1431935E-04   4.7584437E+04   -1.6254438E+00
   6.1715634E-04   4.7229446E+04   -1.6250112E+00
   6.2000644E-04   4.6877197E+04   -1.6245795E+00
   6.2286969E-04   4.6527668E+04   -1.6241489E+00
