#        a       HoverH0(a)       dlogHdloga_of_a(a)
   1.0000000E-04   1.1880418E+06   -1.8602086E+00
   1.0046181E-04   1.1779041E+06   -1.8597441E+00
   1.0092575E-04   1.1678553E+06   -1.8592787E+00
   1.0139184E-04   1.1578948E+06   -1.8588123E+00
   1.0186008E-04   1.1480216E+06   -1.8583450E+00
   1.0233048E-04   1.1382351E+06   -1.8578768E+00
   1.0280305E-04   1.1285345E+06   -1.8574076E+00
   1.0327781E-04   1.1189190E+06   -1.8569375E+00
   1.0375475E-04   1.1093878E+06   -1.8564665E+00
   1.0423390E-04   1.0999402E+06   -1.8559945E+00
   1.0471527E-04   1.0905754E+06   -1.8555216E+00
   1.0519885E-04   1.0812927E+06   -1.8550478E+00
   1.0568467E-04   1.0720913E+06   -1.8545731E+00
   1.0617274E-04   1.0629706E+06   -1.8540975E+00
   1.0666305E-04   1.0539298E+06   -1.8536209E+00
   1.0715563E-04   1.0449682E+06   -1.8531435E+00
   1.0765049E-04   1.0360850E+06   -1.8526651E+00
   1.0814763E-04   1.0272797E+06   -1.8521858E+00
   1.0864707E-04   1.0185514E+06   -1.8517056E+00
   1.0914881E-04   1.0098995E+06   -1.8512246E+00
   1.0965287E-04   1.0013234E+06   -1.8507426E+00
   1.1015926E-04   9.9282225E+05   -1.8502597E+00
   1.1066799E-04   9.8439549E+05   -1.8497759E+00
   1.1117906E-04   9.7604243E+05   -1.8492913E+00
   1.1169250E-04   9.6776241E+05   -1.8488057E+00
   1.1220831E-04   9.5955478E+05   -1.8483193E+00
   1.1272650E-04   9.5141890E+05   -1.8478320E+00
   1.1324708E-04   9.4335412E+05   -1.8473438E+00
   1.1377007E-04   9.3535980E+05   -1.8468547E+00
   1.1429547E-04   9.2743533E+05   -1.8463648E+00
   1.1482330E-04   9.1958007E+05   -1.8458740E+00
   1.1535356E-04   9.1179341E+05   -1.8453823E+00
   1.1588628E-04   9.0407473E+05   -1.8448898E+00
   1.1642145E-04   8.9642343E+05   -1.8443963E+00
   1.1695910E-04   8.8883890E+05   -1.8439021E+00
   1.1749923E-04   8.8132056E+05   -1.8434070E+00
   1.1804185E-04   8.7386780E+05   -1.8429110E+00
   1.1858698E-04   8.6648005E+05   -1.8424141E+00
   1.1913463E-04   8.5915673E+05   -1.8419165E+00
   1.1968481E-04   8.5189725E+05   -1.8414180E+00
   1.2023752E-04   8.4470106E+05   -1.8409186E+00
   1.2079279E-04   8.3756758E+05   -1.8404184E+00
   1.2135063E-04   8.3049627E+05   -1.8399174E+00
   1.2191104E-04   8.2348655E+05   -1.8394155E+00
   1.2247403E-04   8.1653789E+05   -1.8389128E+00
   1.2303963E-04   8.0964974E+05   -1.8384093E+00
   1.2360784E-04   8.0282156E+05   -1.8379050E+00
   1.2417868E-04   7.9605282E+05   -1.8373998E+00
   1.2475215E-04   7.8934298E+05   -1.8368938E+00
   1.2532826E-04   7.8269153E+05   -1.8363870E+00
   1.2590704E-04   7.7609794E+05   -1.8358795E+00
   1.2648850E-04   7.6956169E+05   -1.8353711E+00
   1.2707263E-04   7.6308229E+05   -1.8348619E+00
   1.2765947E-04   7.5665921E+05   -1.8343519E+00
   1.2824901E-04   7.5029196E+05   -1.8338411E+00
   1.2884128E-04   7.4398005E+05   -1.8333295E+00
   1.2943628E-04   7.3772298E+05   -1.8328172E+00
   1.3003403E-04   7.3152026E+05   -1.8323040E+00
   1.3063454E-04   7.2537140E+05   -1.8317901E+00
   1.3123783E-04   7.1927594E+05   -1.8312754E+00
   1.3184390E-04   7.1323339E+05   -1.8307599E+00
   1.3245277E-04   7.0724328E+05   -1.8302437E+00
   1.3306445E-04   7.0130515E+05   -1.8297267E+00
   1.3367895E-04   6.9541853E+05   -1.8292089E+00
   1.3429630E-04   6.8958298E+05   -1.8286904E+00
   1.3491649E-04   6.8379802E+05   -1.8281712E+00
   1.3553955E-04   6.7806322E+05   -1.8276511E+00
   1.3616548E-04   6.7237813E+05   -1.8271304E+00
   1.3679431E-04   6.6674230E+05   -1.8266089E+00
   1.3742604E-04   6.6115531E+05   -1.8260866E+00
   1.3806069E-04   6.5561671E+05   -1.8255636E+00
   1.3869827E-04   6.5012607E+05   -1.8250399E+00
   1.3933879E-04   6.4468298E+05   -1.8245155E+00
   1.3998227E-04   6.3928700E+05   -1.8239904E+00
   1.4062872E-04   6.3393772E+05   -1.8234645E+00
   1.4127816E-04   6.2863472E+05   -1.8229379E+00
   1.4193060E-04   6.2337760E+05   -1.8224106E+00
   1.4258605E-04   6.1816594E+05   -1.8218826E+00
   1.4324453E-04   6.1299935E+05   -1.8213539E+00
   1.4390605E-04   6.0787742E+05   -1.8208246E+00
   1.4457062E-04   6.0279976E+05   -1.8202945E+00
   1.4523826E-04   5.9776598E+05   -1.8197637E+00
   1.4590899E-04   5.9277568E+05   -1.8192323E+00
   1.4658281E-04   5.8782849E+05   -1.8187001E+00
   1.4725974E-04   5.8292401E+05   -1.8181673E+00
   1.4793981E-04   5.7806187E+05   -1.8176338E+00
   1.4862301E-04   5.7324169E+05   -1.8170997E+00
   1.4930936E-04   5.6846311E+05   -1.8165649E+00
   1.4999889E-04   5.6372575E+05   -1.8160295E+00
   1.5069160E-04   5.5902925E+05   -1.8154933E+00
   1.5138751E-04   5.5437325E+05   -1.8149566E+00
   1.5208663E-04   5.4975739E+05   -1.8144192E+00
   1.5278899E-04   5.4518131E+05   -1.8138811E+00
   1.5349458E-04   5.4064467E+05   -1.8133425E+00
   1.5420343E-04   5.3614710E+05   -1.8128032E+00
   1.5491556E-04   5.3168828E+05   -1.8122632E+00
   1.5563098E-04   5.2726784E+05   -1.8117227E+00
   1.5634970E-04   5.2288547E+05   -1.8111815E+00
   1.5707174E-04   5.1854080E+05   -1.8106398E+00
   1.5779711E-04   5.1423353E+05   -1.8100974E+00
   1.5852584E-04   5.0996330E+05   -1.8095544E+00
   1.5925792E-04   5.0572981E+05   -1.8090108E+00
   1.5999339E-04   5.0153271E+05   -1.8084667E+00
   1.6073226E-04   4.9737169E+05   -1.8079219E+00
   1.6147454E-04   4.9324644E+05   -1.8073766E+00
   1.6222024E-04   4.8915663E+05   -1.8068307E+00
   1.6296939E-04   4.8510195E+05   -1.8062842E+00
   1.6372200E-04   4.8108209E+05   -1.8057371E+00
   1.6447809E-04   4.7709675E+05   -1.8051895E+00
   1.6523767E-04   4.7314562E+05   -1.8046413E+00
   1.6600075E-04   4.6922839E+05   -1.8040926E+00
   1.6676736E-04   4.6534478E+05   -1.8035433E+00
   1.6753751E-04   4.6149447E+05   -1.8029935E+00
   1.6831122E-04   4.5767718E+05   -1.8024431E+00
   1.6908849E-04   4.5389262E+05   -1.8018923E+00
   1.6986936E-04   4.5014050E+05   -1.8013408E+00
   1.7065384E-04   4.4642053E+05   -1.8007889E+00
   1.7144193E-04   4.4273242E+05   -1.8002365E+00
   1.7223367E-04   4.3907591E+05   -1.7996835E+00
   1.7302906E-04   4.3545070E+05   -1.7991300E+00
   1.7382813E-04   4.3185653E+05   -1.7985760E+00
   1.7463089E-04   4.2829311E+05   -1.7980216E+00
   1.7543735E-04   4.2476019E+05   -1.7974666E+00
   1.7624754E-04   4.2125748E+05   -1.7969112E+00
   1.7706147E-04   4.1778473E+05   -1.7963552E+00
   1.7787916E-04   4.1434167E+05   -1.7957988E+00
   1.7870062E-04   4.1092804E+05   -1.7952420E+00
   1.7952588E-04   4.0754358E+05   -1.7946846E+00
   1.8035495E-04   4.0418803E+05   -1.7941268E+00
   1.8118785E-04   4.0086114E+05   -1.7935686E+00
   1.8202459E-04   3.9756266E+05   -1.7930099E+00
   1.8286520E-04   3.9429233E+05   -1.7924507E+00
   1.8370969E-04   3.9104991E+05   -1.7918911E+00
   1.8455808E-04   3.8783516E+05   -1.7913311E+00
   1.8541039E-04   3.8464783E+05   -1.7907707E+00
   1.8626663E-04   3.8148768E+05   -1.7902098E+00
   1.8712683E-04   3.7835447E+05   -1.7896486E+00
   1.8799100E-04   3.7524796E+05   -1.7890869E+00
   1.8885917E-04   3.7216792E+05   -1.7885248E+00
   1.8973134E-04   3.6911412E+05   -1.7879623E+00
   1.9060754E-04   3.6608633E+05   -1.7873994E+00
   1.9148778E-04   3.6308432E+05   -1.7868361E+00
   1.9237209E-04   3.6010785E+05   -1.7862725E+00
   1.9326049E-04   3.5715672E+05   -1.7857084E+00
   1.9415299E-04   3.5423069E+05   -1.7851440E+00
   1.9504960E-04   3.5132955E+05   -1.7845792E+00
   1.9595036E-04   3.4845307E+05   -1.7840141E+00
   1.9685528E-04   3.4560105E+05   -1.7834486E+00
   1.9776438E-04   3.4277326E+05   -1.7828828E+00
   1.9867768E-04   3.3996950E+05   -1.7823166E+00
   1.9959519E-04   3.3718955E+05   -1.7817501E+00
   2.0051694E-04   3.3443320E+05   -1.7811832E+00
   2.0144295E-04   3.3170026E+05   -1.7806161E+00
   2.0237324E-04   3.2899050E+05   -1.7800486E+00
   2.0330782E-04   3.2630374E+05   -1.7794807E+00
   2.0424671E-04   3.2363976E+05   -1.7789126E+00
   2.0518995E-04   3.2099838E+05   -1.7783442E+00
   2.0613754E-04   3.1837939E+05   -1.7777755E+00
   2.0708950E-04   3.1578259E+05   -1.7772065E+00
   2.0804586E-04   3.1320779E+05   -1.7766372E+00
   2.0900664E-04   3.1065481E+05   -1.7760676E+00
   2.0997185E-04   3.0812344E+05   -1.7754977E+00
   2.1094152E-04   3.0561350E+05   -1.7749276E+00
   2.1191567E-04   3.0312480E+05   -1.7743572E+00
   2.1289432E-04   3.0065716E+05   -1.7737866E+00
   2.1387749E-04   2.9821040E+05   -1.7732157E+00
   2.1486520E-04   2.9578432E+05   -1.7726446E+00
   2.1585747E-04   2.9337875E+05   -1.7720732E+00
   2.1685432E-04   2.9099351E+05   -1.7715016E+00
   2.1785578E-04   2.8862843E+05   -1.7709298E+00
   2.1886186E-04   2.8628332E+05   -1.7703577E+00
   2.1987259E-04   2.8395801E+05   -1.7697854E+00
   2.2088798E-04   2.8165234E+05   -1.7692130E+00
   2.2190807E-04   2.7936612E+05   -1.7686403E+00
   2.2293286E-04   2.7709919E+05   -1.7680674E+00
   2.2396239E-04   2.7485139E+05   -1.7674943E+00
   2.2499667E-04   2.7262253E+05   -1.7669211E+00
   2.2603573E-04   2.7041247E+05   -1.7663477E+00
   2.2707958E-04   2.6822103E+05   -1.7657740E+00
   2.2812826E-04   2.6604805E+05   -1.7652003E+00
   2.2918178E-04   2.6389338E+05   -1.7646263E+00
   2.3024017E-04   2.6175684E+05   -1.7640522E+00
   2.3130344E-04   2.5963830E+05   -1.7634780E+00
   2.3237162E-04   2.5753758E+05   -1.7629036E+00
   2.3344474E-04   2.5545453E+05   -1.7623291E+00
   2.3452281E-04   2.5338900E+05   -1.7617545E+00
   2.3560586E-04   2.5134084E+05   -1.7611797E+00
   2.3669392E-04   2.4930990E+05   -1.7606048E+00
   2.3778699E-04   2.4729602E+05   -1.7600298E+00
   2.3888512E-04   2.4529906E+05   -1.7594547E+00
   2.3998831E-04   2.4331887E+05   -1.7588795E+00
   2.4109661E-04   2.4135530E+05   -1.7583042E+00
   2.4221001E-04   2.3940822E+05   -1.7577288E+00
   2.4332857E-04   2.3747747E+05   -1.7571533E+00
   2.4445228E-04   2.3556292E+05   -1.7565777E+00
   2.4558119E-04   2.3366442E+05   -1.7560021E+00
   2.4671531E-04   2.3178184E+05   -1.7554264E+00
   2.4785467E-04   2.2991503E+05   -1.7548507E+00
   2.4899928E-04   2.2806387E+05   -1.7542749E+00
   2.5014919E-04   2.2622821E+05   -1.7536990E+00
   2.5130440E-04   2.2440792E+05   -1.7531231E+00
   2.5246495E-04   2.2260287E+05   -1.7525472E+00
   2.5363086E-04   2.2081292E+05   -1.7519713E+00
   2.5480216E-04   2.1903795E+05   -1.7513953E+00
   2.5597886E-04   2.1727782E+05   -1.7508193E+00
   2.5716100E-04   2.1553241E+05   -1.7502433E+00
   2.5834859E-04   2.1380159E+05   -1.7496673E+00
   2.5954168E-04   2.1208523E+05   -1.7490914E+00
   2.6074027E-04   2.1038320E+05   -1.7485154E+00
   2.6194439E-04   2.0869539E+05   -1.7479394E+00
   2.6315408E-04   2.0702167E+05   -1.7473635E+00
   2.6436935E-04   2.0536191E+05   -1.7467875E+00
   2.6559024E-04   2.0371601E+05   -1.7462117E+00
   2.6681676E-04   2.0208383E+05   -1.7456358E+00
   2.6804895E-04   2.0046526E+05   -1.7450600E+00
   2.6928683E-04   1.9886018E+05   -1.7444843E+00
   2.7053042E-04   1.9726848E+05   -1.7439086E+00
   2.7177976E-04   1.9569003E+05   -1.7433330E+00
   2.7303487E-04   1.9412473E+05   -1.7427574E+00
   2.7429577E-04   1.9257247E+05   -1.7421819E+00
   2.7556250E-04   1.9103312E+05   -1.7416065E+00
   2.7683507E-04   1.8950657E+05   -1.7410312E+00
   2.7811353E-04   1.8799273E+05   -1.7404560E+00
   2.7939788E-04   1.8649147E+05   -1.7398809E+00
   2.8068817E-04   1.8500269E+05   -1.7393059E+00
   2.8198442E-04   1.8352628E+05   -1.7387310E+00
   2.8328665E-04   1.8206214E+05   -1.7381562E+00
   2.8459490E-04   1.8061016E+05   -1.7375816E+00
   2.8590919E-04   1.7917023E+05   -1.7370071E+00
   2.8722955E-04   1.7774225E+05   -1.7364327E+00
   2.8855600E-04   1.7632611E+05   -1.7358585E+00
   2.8988859E-04   1.7492173E+05   -1.7352844E+00
   2.9122732E-04   1.7352898E+05   -1.7347105E+00
   2.9257224E-04   1.7214779E+05   -1.7341367E+00
   2.9392337E-04   1.7077803E+05   -1.7335631E+00
   2.9528074E-04   1.6941963E+05   -1.7329897E+00
   2.9664438E-04   1.6807247E+05   -1.7324164E+00
   2.9801431E-04   1.6673646E+05   -1.7318433E+00
   2.9939057E-04   1.6541152E+05   -1.7312705E+00
   3.0077319E-04   1.6409753E+05   -1.7306978E+00
   3.0216219E-04   1.6279441E+05   -1.7301253E+00
   3.0355761E-04   1.6150207E+05   -1.7295530E+00
   3.0495947E-04   1.6022040E+05   -1.7289810E+00
   3.0636780E-04   1.5894933E+05   -1.7284092E+00
   3.0778264E-04   1.5768875E+05   -1.7278376E+00
   3.0920401E-04   1.5643859E+05   -1.7272662E+00
   3.1063195E-04   1.5519874E+05   -1.7266951E+00
   3.1206648E-04   1.5396913E+05   -1.7261242E+00
   3.1350764E-04   1.5274966E+05   -1.7255536E+00
   3.1495545E-04   1.5154024E+05   -1.7249832E+00
   3.1640994E-04   1.5034080E+05   -1.7244131E+00
   3.1787116E-04   1.4915124E+05   -1.7238432E+00
   3.1933912E-04   1.4797149E+05   -1.7232736E+00
   3.2081386E-04   1.4680145E+05   -1.7227044E+00
   3.2229541E-04   1.4564104E+05   -1.7221353E+00
   3.2378381E-04   1.4449019E+05   -1.7215666E+00
   3.2527908E-04   1.4334880E+05   -1.7209982E+00
   3.2678125E-04   1.4221680E+05   -1.7204301E+00
   3.2829036E-04   1.4109412E+05   -1.7198623E+00
   3.2980644E-04   1.3998066E+05   -1.7192948E+00
   3.3132952E-04   1.3887635E+05   -1.7187276E+00
   3.3285963E-04   1.3778111E+05   -1.7181608E+00
   3.3439681E-04   1.3669486E+05   -1.7175943E+00
   3.3594109E-04   1.3561754E+05   -1.7170281E+00
   3.3749250E-04   1.3454906E+05   -1.7164623E+00
   3.3905108E-04   1.3348934E+05   -1.7158968E+00
   3.4061685E-04   1.3243831E+05   -1.7153317E+00
   3.4218986E-04   1.3139590E+05   -1.7147669E+00
   3.4377013E-04   1.3036204E+05   -1.7142025E+00
   3.4535769E-04   1.2933664E+05   -1.7136385E+00
   3.4695259E-04   1.2831965E+05   -1.7130748E+00
   3.4855485E-04   1.2731098E+05   -1.7125115E+00
   3.5016452E-04   1.2631056E+05   -1.7119487E+00
   3.5178161E-04   1.2531834E+05   -1.7113862E+00
   3.5340618E-04   1.2433423E+05   -1.7108241E+00
   3.5503824E-04   1.2335817E+05   -1.7102624E+00
   3.5667785E-04   1.2239008E+05   -1.7097011E+00
   3.5832502E-04   1.2142991E+05   -1.7091403E+00
   3.5997981E-04   1.2047759E+05   -1.7085798E+00
   3.6164223E-04   1.1953304E+05   -1.7080198E+00
   3.6331233E-04   1.1859620E+05   -1.7074603E+00
   3.6499015E-04   1.1766700E+05   -1.7069011E+00
   3.6667571E-04   1.1674539E+05   -1.7063424E+00
   3.6836906E-04   1.1583129E+05   -1.7057842E+00
   3.7007022E-04   1.1492465E+05   -1.7052264E+00
   3.7177925E-04   1.1402540E+05   -1.7046691E+00
   3.7349616E-04   1.1313347E+05   -1.7041122E+00
   3.7522101E-04   1.1224881E+05   -1.7035558E+00
   3.7695382E-04   1.1137135E+05   -1.7029999E+00
   3.7869463E-04   1.1050103E+05   -1.7024444E+00
   3.8044348E-04   1.0963779E+05   -1.7018895E+00
   3.8220041E-04   1.0878158E+05   -1.7013350E+00
   3.8396545E-04   1.0793233E+05   -1.7007810E+00
   3.8573864E-04   1.0708998E+05   -1.7002276E+00
   3.8752002E-04   1.0625447E+05   -1.6996746E+00
   3.8930963E-04   1.0542576E+05   -1.6991222E+00
   3.9110750E-04   1.0460377E+05   -1.6985702E+00
   3.9291368E-04   1.0378846E+05   -1.6980188E+00
   3.9472820E-04   1.0297976E+05   -1.6974680E+00
   3.9655109E-04   1.0217762E+05   -1.6969176E+00
   3.9838241E-04   1.0138199E+05   -1.6963678E+00
   4.0022218E-04   1.0059280E+05   -1.6958185E+00
   4.0207045E-04   9.9810017E+04   -1.6952698E+00
   4.0392725E-04   9.9033572E+04   -1.6947216E+00
   4.0579263E-04   9.8263415E+04   -1.6941740E+00
   4.0766662E-04   9.7499493E+04   -1.6936270E+00
   4.0954927E-04   9.6741754E+04   -1.6930805E+00
   4.1144061E-04   9.5990145E+04   -1.6925346E+00
   4.1334068E-04   9.5244615E+04   -1.6919893E+00
   4.1524953E-04   9.4505113E+04   -1.6914445E+00
   4.1716720E-04   9.3771587E+04   -1.6909004E+00
   4.1909372E-04   9.3043988E+04   -1.6903568E+00
   4.2102914E-04   9.2322266E+04   -1.6898138E+00
   4.2297350E-04   9.1606371E+04   -1.6892714E+00
   4.2492683E-04   9.0896255E+04   -1.6887297E+00
   4.2688919E-04   9.0191868E+04   -1.6881885E+00
   4.2886061E-04   8.9493163E+04   -1.6876480E+00
   4.3084113E-04   8.8800092E+04   -1.6871081E+00
   4.3283080E-04   8.8112607E+04   -1.6865688E+00
   4.3482966E-04   8.7430661E+04   -1.6860301E+00
   4.3683775E-04   8.6754209E+04   -1.6854921E+00
   4.3885511E-04   8.6083204E+04   -1.6849547E+00
   4.4088179E-04   8.5417600E+04   -1.6844179E+00
   4.4291783E-04   8.4757352E+04   -1.6838818E+00
   4.4496327E-04   8.4102415E+04   -1.6833464E+00
   4.4701816E-04   8.3452745E+04   -1.6828116E+00
   4.4908253E-04   8.2808297E+04   -1.6822774E+00
   4.5115644E-04   8.2169028E+04   -1.6817440E+00
   4.5323993E-04   8.1534894E+04   -1.6812112E+00
   4.5533304E-04   8.0905853E+04   -1.6806790E+00
   4.5743582E-04   8.0281861E+04   -1.6801476E+00
   4.5954830E-04   7.9662877E+04   -1.6796168E+00
   4.6167054E-04   7.9048859E+04   -1.6790867E+00
   4.6380259E-04   7.8439765E+04   -1.6785574E+00
   4.6594448E-04   7.7835553E+04   -1.6780287E+00
   4.6809626E-04   7.7236184E+04   -1.6775007E+00
   4.7025797E-04   7.6641617E+04   -1.6769734E+00
   4.7242967E-04   7.6051811E+04   -1.6764468E+00
   4.7461140E-04   7.5466727E+04   -1.6759210E+00
   4.7680321E-04   7.4886325E+04   -1.6753958E+00
   4.7900514E-04   7.4310567E+04   -1.6748714E+00
   4.8121723E-04   7.3739414E+04   -1.6743477E+00
   4.8343954E-04   7.3172827E+04   -1.6738247E+00
   4.8567212E-04   7.2610769E+04   -1.6733025E+00
   4.8791500E-04   7.2053201E+04   -1.6727810E+00
   4.9016825E-04   7.1500086E+04   -1.6722602E+00
   4.9243189E-04   7.0951387E+04   -1.6717402E+00
   4.9470600E-04   7.0407068E+04   -1.6712209E+00
   4.9699060E-04   6.9867091E+04   -1.6707024E+00
   4.9928575E-04   6.9331421E+04   -1.6701846E+00
   5.0159151E-04   6.8800023E+04   -1.6696676E+00
   5.0390791E-04   6.8272859E+04   -1.6691514E+00
   5.0623501E-04   6.7749896E+04   -1.6686359E+00
   5.0857286E-04   6.7231099E+04   -1.6681212E+00
   5.1092150E-04   6.6716432E+04   -1.6676073E+00
   5.1328099E-04   6.6205862E+04   -1.6670942E+00
   5.1565137E-04   6.5699354E+04   -1.6665818E+00
   5.1803270E-04   6.5196875E+04   -1.6660702E+00
   5.2042503E-04   6.4698392E+04   -1.6655594E+00
   5.2282841E-04   6.4203870E+04   -1.6650494E+00
   5.2524289E-04   6.3713279E+04   -1.6645402E+00
   5.2766851E-04   6.3226584E+04   -1.6640319E+00
   5.3010534E-04   6.2743754E+04   -1.6635243E+00
   5.3255342E-04   6.2264756E+04   -1.6630175E+00
   5.3501281E-04   6.1789559E+04   -1.6625115E+00
   5.3748356E-04   6.1318132E+04   -1.6620063E+00
   5.3996571E-04   6.0850443E+04   -1.6615020E+00
   5.4245933E-04   6.0386462E+04   -1.6609985E+00
   5.4496446E-04   5.9926157E+04   -1.6604958E+00
   5.4748117E-04   5.9469499E+04   -1.6599939E+00
   5.5000949E-04   5.9016457E+04   -1.6594929E+00
   5.5254949E-04   5.8567001E+04   -1.6589927E+00
   5.5510123E-04   5.8121102E+04   -1.6584933E+00
   5.5766474E-04   5.7678731E+04   -1.6579948E+00
   5.6024010E-04   5.7239857E+04   -1.6574971E+00
   5.6282734E-04   5.6804454E+04   -1.6570003E+00
   5.6542654E-04   5.6372491E+04   -1.6565043E+00
   5.6803774E-04   5.5943941E+04   -1.6560091E+00
   5.7066099E-04   5.5518775E+04   -1.6555149E+00
   5.7329637E-04   5.5096966E+04   -1.6550214E+00
   5.7594391E-04   5.4678485E+04   -1.6545289E+00
   5.7860368E-04   5.4263307E+04   -1.6540372E+00
   5.8127573E-04   5.3851402E+04   -1.6535464E+00
   5.8396012E-04   5.3442746E+04   -1.6530564E+00
   5.8665691E-04   5.3037309E+04   -1.6525673E+00
   5.8936616E-04   5.2635068E+04   -1.6520791E+00
   5.9208791E-04   5.2235994E+04   -1.6515918E+00
   5.9482223E-04   5.1840062E+04   -1.6511054E+00
   5.9756919E-04   5.1447247E+04   -1.6506198E+00
   6.0032882E-04   5.1057522E+04   -1.6501351E+00
   6.0310120E-04   5.0670862E+04   -1.6496514E+00
   6.0588639E-04   5.0287243E+04   -1.6491685E+00
   6.0868443E-04   4.9906638E+04   -1.6486865E+00
   6.1149540E-04   4.9529025E+04   -1.6482054E+00
   6.1431935E-04   4.9154377E+04   -1.6477252E+00
   6.1715634E-04   4.8782671E+04   -1.6472459E+00
   6.2000644E-04   4.8413883E+04   -1.6467675E+00
   6.2286969E-04   4.8047989E+04   -1.6462900E+00
