#        a       HoverH0(a)       dlogHdloga_of_a(a)
   1.0000000E-04   1.0373936E+06   -1.8697524E+00
   1.0046181E-04   1.0284961E+06   -1.8693081E+00
   1.0092575E-04   1.0196769E+06   -1.8688629E+00
   1.0139184E-04   1.0109355E+06   -1.8684166E+00
   1.0186008E-04   1.0022711E+06   -1.8679694E+00
   1.0233048E-04   9.9368295E+05   -1.8675212E+00
   1.0280305E-04   9.8517045E+05   -1.8670720E+00
   1.0327781E-04   9.7673290E+05   -1.8666219E+00
   1.0375475E-04   9.6836962E+05   -1.8661708E+00
   1.0423390E-04   9.6007995E+05   -1.8657187E+00
   1.0471527E-04   9.5186322E+05   -1.8652657E+00
   1.0519885E-04   9.4371879E+05   -1.8648117E+00
   1.0568467E-04   9.3564601E+05   -1.8643567E+00
   1.0617274E-04   9.2764422E+05   -1.8639008E+00
   1.0666305E-04   9.1971281E+05   -1.8634439E+00
   1.0715563E-04   9.1185113E+05   -1.8629861E+00
   1.0765049E-04   9.0405857E+05   -1.8625273E+00
   1.0814763E-04   8.9633449E+05   -1.8620676E+00
   1.0864707E-04   8.8867829E+05   -1.8616069E+00
   1.0914881E-04   8.8108936E+05   -1.8611452E+00
   1.0965287E-04   8.7356709E+05   -1.8606826E+00
   1.1015926E-04   8.6611090E+05   -1.8602191E+00
   1.1066799E-04   8.5872018E+05   -1.8597546E+00
   1.1117906E-04   8.5139435E+05   -1.8592892E+00
   1.1169250E-04   8.4413283E+05   -1.8588229E+00
   1.1220831E-04   8.3693504E+05   -1.8583556E+00
   1.1272650E-04   8.2980042E+05   -1.8578873E+00
   1.1324708E-04   8.2272839E+05   -1.8574182E+00
   1.1377007E-04   8.1571841E+05   -1.8569481E+00
   1.1429547E-04   8.0876990E+05   -1.8564771E+00
   1.1482330E-04   8.0188232E+05   -1.8560052E+00
   1.1535356E-04   7.9505513E+05   -1.8555323E+00
   1.1588628E-04   7.8828779E+05   -1.8550585E+00
   1.1642145E-04   7.8157976E+05   -1.8545838E+00
   1.1695910E-04   7.7493050E+05   -1.8541082E+00
   1.1749923E-04   7.6833950E+05   -1.8536317E+00
   1.1804185E-04   7.6180623E+05   -1.8531542E+00
   1.1858698E-04   7.5533017E+05   -1.8526759E+00
   1.1913463E-04   7.4891082E+05   -1.8521966E+00
   1.1968481E-04   7.4254767E+05   -1.8517164E+00
   1.2023752E-04   7.3624022E+05   -1.8512354E+00
   1.2079279E-04   7.2998796E+05   -1.8507534E+00
   1.2135063E-04   7.2379040E+05   -1.8502706E+00
   1.2191104E-04   7.1764707E+05   -1.8497868E+00
   1.2247403E-04   7.1155746E+05   -1.8493022E+00
   1.2303963E-04   7.0552110E+05   -1.8488166E+00
   1.2360784E-04   6.9953751E+05   -1.8483302E+00
   1.2417868E-04   6.9360623E+05   -1.8478429E+00
   1.2475215E-04   6.8772679E+05   -1.8473548E+00
   1.2532826E-04   6.8189871E+05   -1.8468657E+00
   1.2590704E-04   6.7612156E+05   -1.8463758E+00
   1.2648850E-04   6.7039486E+05   -1.8458850E+00
   1.2707263E-04   6.6471817E+05   -1.8453933E+00
   1.2765947E-04   6.5909104E+05   -1.8449008E+00
   1.2824901E-04   6.5351304E+05   -1.8444074E+00
   1.2884128E-04   6.4798371E+05   -1.8439131E+00
   1.2943628E-04   6.4250264E+05   -1.8434180E+00
   1.3003403E-04   6.3706938E+05   -1.8429221E+00
   1.3063454E-04   6.3168351E+05   -1.8424252E+00
   1.3123783E-04   6.2634461E+05   -1.8419276E+00
   1.3184390E-04   6.2105226E+05   -1.8414291E+00
   1.3245277E-04   6.1580604E+05   -1.8409297E+00
   1.3306445E-04   6.1060554E+05   -1.8404295E+00
   1.3367895E-04   6.0545036E+05   -1.8399285E+00
   1.3429630E-04   6.0034009E+05   -1.8394267E+00
   1.3491649E-04   5.9527433E+05   -1.8389240E+00
   1.3553955E-04   5.9025268E+05   -1.8384205E+00
   1.3616548E-04   5.8527476E+05   -1.8379162E+00
   1.3679431E-04   5.8034017E+05   -1.8374110E+00
   1.3742604E-04   5.7544852E+05   -1.8369051E+00
   1.3806069E-04   5.7059943E+05   -1.8363983E+00
   1.3869827E-04   5.6579253E+05   -1.8358907E+00
   1.3933879E-04   5.6102744E+05   -1.8353824E+00
   1.3998227E-04   5.5630378E+05   -1.8348732E+00
   1.4062872E-04   5.5162118E+05   -1.8343632E+00
   1.4127816E-04   5.4697929E+05   -1.8338524E+00
   1.4193060E-04   5.4237774E+05   -1.8333409E+00
   1.4258605E-04   5.3781617E+05   -1.8328285E+00
   1.4324453E-04   5.3329422E+05   -1.8323154E+00
   1.4390605E-04   5.2881154E+05   -1.8318015E+00
   1.4457062E-04   5.2436779E+05   -1.8312868E+00
   1.4523826E-04   5.1996261E+05   -1.8307714E+00
   1.4590899E-04   5.1559566E+05   -1.8302551E+00
   1.4658281E-04   5.1126661E+05   -1.8297381E+00
   1.4725974E-04   5.0697512E+05   -1.8292204E+00
   1.4793981E-04   5.0272084E+05   -1.8287019E+00
   1.4862301E-04   4.9850346E+05   -1.8281826E+00
   1.4930936E-04   4.9432264E+05   -1.8276626E+00
   1.4999889E-04   4.9017806E+05   -1.8271419E+00
   1.5069160E-04   4.8606940E+05   -1.8266204E+00
   1.5138751E-04   4.8199633E+05   -1.8260981E+00
   1.5208663E-04   4.7795855E+05   -1.8255752E+00
   1.5278899E-04   4.7395573E+05   -1.8250515E+00
   1.5349458E-04   4.6998757E+05   -1.8245271E+00
   1.5420343E-04   4.6605377E+05   -1.8240019E+00
   1.5491556E-04   4.6215400E+05   -1.8234761E+00
   1.5563098E-04   4.5828798E+05   -1.8229495E+00
   1.5634970E-04   4.5445541E+05   -1.8224222E+00
   1.5707174E-04   4.5065598E+05   -1.8218942E+00
   1.5779711E-04   4.4688940E+05   -1.8213656E+00
   1.5852584E-04   4.4315538E+05   -1.8208362E+00
   1.5925792E-04   4.3945364E+05   -1.8203061E+00
   1.5999339E-04   4.3578388E+05   -1.8197754E+00
   1.6073226E-04   4.3214583E+05   -1.8192439E+00
   1.6147454E-04   4.2853919E+05   -1.8187118E+00
   1.6222024E-04   4.2496370E+05   -1.8181790E+00
   1.6296939E-04   4.2141908E+05   -1.8176455E+00
   1.6372200E-04   4.1790505E+05   -1.8171114E+00
   1.6447809E-04   4.1442134E+05   -1.8165766E+00
   1.6523767E-04   4.1096769E+05   -1.8160412E+00
   1.6600075E-04   4.0754382E+05   -1.8155051E+00
   1.6676736E-04   4.0414948E+05   -1.8149683E+00
   1.6753751E-04   4.0078440E+05   -1.8144309E+00
   1.6831122E-04   3.9744833E+05   -1.8138929E+00
   1.6908849E-04   3.9414100E+05   -1.8133542E+00
   1.6986936E-04   3.9086216E+05   -1.8128149E+00
   1.7065384E-04   3.8761156E+05   -1.8122750E+00
   1.7144193E-04   3.8438895E+05   -1.8117345E+00
   1.7223367E-04   3.8119409E+05   -1.8111933E+00
   1.7302906E-04   3.7802672E+05   -1.8106516E+00
   1.7382813E-04   3.7488661E+05   -1.8101092E+00
   1.7463089E-04   3.7177351E+05   -1.8095662E+00
   1.7543735E-04   3.6868719E+05   -1.8090226E+00
   1.7624754E-04   3.6562740E+05   -1.8084785E+00
   1.7706147E-04   3.6259392E+05   -1.8079337E+00
   1.7787916E-04   3.5958650E+05   -1.8073884E+00
   1.7870062E-04   3.5660493E+05   -1.8068425E+00
   1.7952588E-04   3.5364897E+05   -1.8062960E+00
   1.8035495E-04   3.5071840E+05   -1.8057490E+00
   1.8118785E-04   3.4781298E+05   -1.8052014E+00
   1.8202459E-04   3.4493251E+05   -1.8046532E+00
   1.8286520E-04   3.4207676E+05   -1.8041045E+00
   1.8370969E-04   3.3924550E+05   -1.8035552E+00
   1.8455808E-04   3.3643854E+05   -1.8030054E+00
   1.8541039E-04   3.3365564E+05   -1.8024550E+00
   1.8626663E-04   3.3089660E+05   -1.8019042E+00
   1.8712683E-04   3.2816122E+05   -1.8013527E+00
   1.8799100E-04   3.2544927E+05   -1.8008008E+00
   1.8885917E-04   3.2276055E+05   -1.8002484E+00
   1.8973134E-04   3.2009486E+05   -1.7996954E+00
   1.9060754E-04   3.1745200E+05   -1.7991419E+00
   1.9148778E-04   3.1483176E+05   -1.7985880E+00
   1.9237209E-04   3.1223394E+05   -1.7980335E+00
   1.9326049E-04   3.0965835E+05   -1.7974785E+00
   1.9415299E-04   3.0710480E+05   -1.7969231E+00
   1.9504960E-04   3.0457308E+05   -1.7963672E+00
   1.9595036E-04   3.0206300E+05   -1.7958108E+00
   1.9685528E-04   2.9957439E+05   -1.7952539E+00
   1.9776438E-04   2.9710703E+05   -1.7946966E+00
   1.9867768E-04   2.9466076E+05   -1.7941388E+00
   1.9959519E-04   2.9223538E+05   -1.7935805E+00
   2.0051694E-04   2.8983070E+05   -1.7930218E+00
   2.0144295E-04   2.8744656E+05   -1.7924627E+00
   2.0237324E-04   2.8508276E+05   -1.7919031E+00
   2.0330782E-04   2.8273913E+05   -1.7913431E+00
   2.0424671E-04   2.8041549E+05   -1.7907827E+00
   2.0518995E-04   2.7811166E+05   -1.7902218E+00
   2.0613754E-04   2.7582748E+05   -1.7896605E+00
   2.0708950E-04   2.7356276E+05   -1.7890988E+00
   2.0804586E-04   2.7131734E+05   -1.7885367E+00
   2.0900664E-04   2.6909105E+05   -1.7879742E+00
   2.0997185E-04   2.6688372E+05   -1.7874113E+00
   2.1094152E-04   2.6469518E+05   -1.7868481E+00
   2.1191567E-04   2.6252527E+05   -1.7862844E+00
   2.1289432E-04   2.6037382E+05   -1.7857204E+00
   2.1387749E-04   2.5824068E+05   -1.7851560E+00
   2.1486520E-04   2.5612568E+05   -1.7845912E+00
   2.1585747E-04   2.5402866E+05   -1.7840261E+00
   2.1685432E-04   2.5194947E+05   -1.7834606E+00
   2.1785578E-04   2.4988795E+05   -1.7828947E+00
   2.1886186E-04   2.4784394E+05   -1.7823286E+00
   2.1987259E-04   2.4581729E+05   -1.7817620E+00
   2.2088798E-04   2.4380785E+05   -1.7811952E+00
   2.2190807E-04   2.4181547E+05   -1.7806280E+00
   2.2293286E-04   2.3984000E+05   -1.7800605E+00
   2.2396239E-04   2.3788129E+05   -1.7794927E+00
   2.2499667E-04   2.3593919E+05   -1.7789246E+00
   2.2603573E-04   2.3401356E+05   -1.7783561E+00
   2.2707958E-04   2.3210426E+05   -1.7777874E+00
   2.2812826E-04   2.3021113E+05   -1.7772184E+00
   2.2918178E-04   2.2833405E+05   -1.7766491E+00
   2.3024017E-04   2.2647286E+05   -1.7760795E+00
   2.3130344E-04   2.2462744E+05   -1.7755097E+00
   2.3237162E-04   2.2279763E+05   -1.7749395E+00
   2.3344474E-04   2.2098332E+05   -1.7743692E+00
   2.3452281E-04   2.1918435E+05   -1.7737985E+00
   2.3560586E-04   2.1740061E+05   -1.7732276E+00
   2.3669392E-04   2.1563194E+05   -1.7726565E+00
   2.3778699E-04   2.1387823E+05   -1.7720851E+00
   2.3888512E-04   2.1213934E+05   -1.7715135E+00
   2.3998831E-04   2.1041514E+05   -1.7709417E+00
   2.4109661E-04   2.0870550E+05   -1.7703696E+00
   2.4221001E-04   2.0701030E+05   -1.7697973E+00
   2.4332857E-04   2.0532941E+05   -1.7692248E+00
   2.4445228E-04   2.0366271E+05   -1.7686521E+00
   2.4558119E-04   2.0201007E+05   -1.7680793E+00
   2.4671531E-04   2.0037137E+05   -1.7675062E+00
   2.4785467E-04   1.9874648E+05   -1.7669329E+00
   2.4899928E-04   1.9713530E+05   -1.7663595E+00
   2.5014919E-04   1.9553769E+05   -1.7657859E+00
   2.5130440E-04   1.9395354E+05   -1.7652121E+00
   2.5246495E-04   1.9238274E+05   -1.7646382E+00
   2.5363086E-04   1.9082516E+05   -1.7640641E+00
   2.5480216E-04   1.8928069E+05   -1.7634898E+00
   2.5597886E-04   1.8774922E+05   -1.7629154E+00
   2.5716100E-04   1.8623064E+05   -1.7623409E+00
   2.5834859E-04   1.8472482E+05   -1.7617662E+00
   2.5954168E-04   1.8323167E+05   -1.7611915E+00
   2.6074027E-04   1.8175107E+05   -1.7606166E+00
   2.6194439E-04   1.8028290E+05   -1.7600415E+00
   2.6315408E-04   1.7882708E+05   -1.7594664E+00
   2.6436935E-04   1.7738348E+05   -1.7588912E+00
   2.6559024E-04   1.7595200E+05   -1.7583159E+00
   2.6681676E-04   1.7453253E+05   -1.7577405E+00
   2.6804895E-04   1.7312497E+05   -1.7571650E+00
   2.6928683E-04   1.7172922E+05   -1.7565894E+00
   2.7053042E-04   1.7034518E+05   -1.7560138E+00
   2.7177976E-04   1.6897274E+05   -1.7554381E+00
   2.7303487E-04   1.6761180E+05   -1.7548623E+00
   2.7429577E-04   1.6626226E+05   -1.7542865E+00
   2.7556250E-04   1.6492402E+05   -1.7537107E+00
   2.7683507E-04   1.6359700E+05   -1.7531348E+00
   2.7811353E-04   1.6228107E+05   -1.7525588E+00
   2.7939788E-04   1.6097617E+05   -1.7519829E+00
   2.8068817E-04   1.5968217E+05   -1.7514069E+00
   2.8198442E-04   1.5839901E+05   -1.7508309E+00
   2.8328665E-04   1.5712656E+05   -1.7502549E+00
   2.8459490E-04   1.5586476E+05   -1.7496789E+00
   2.8590919E-04   1.5461349E+05   -1.7491029E+00
   2.8722955E-04   1.5337268E+05   -1.7485269E+00
   2.8855600E-04   1.5214223E+05   -1.7479509E+00
   2.8988859E-04   1.5092206E+05   -1.7473750E+00
   2.9122732E-04   1.4971206E+05   -1.7467990E+00
   2.9257224E-04   1.4851216E+05   -1.7462231E+00
   2.9392337E-04   1.4732227E+05   -1.7456473E+00
   2.9528074E-04   1.4614230E+05   -1.7450715E+00
   2.9664438E-04   1.4497217E+05   -1.7444957E+00
   2.9801431E-04   1.4381178E+05   -1.7439200E+00
   2.9939057E-04   1.4266106E+05   -1.7433444E+00
   3.0077319E-04   1.4151993E+05   -1.7427688E+00
   3.0216219E-04   1.4038829E+05   -1.7421933E+00
   3.0355761E-04   1.3926608E+05   -1.7416179E+00
   3.0495947E-04   1.3815320E+05   -1.7410426E+00
   3.0636780E-04   1.3704957E+05   -1.7404673E+00
   3.0778264E-04   1.3595513E+05   -1.7398922E+00
   3.0920401E-04   1.3486978E+05   -1.7393172E+00
   3.1063195E-04   1.3379345E+05   -1.7387423E+00
   3.1206648E-04   1.3272606E+05   -1.7381675E+00
   3.1350764E-04   1.3166753E+05   -1.7375928E+00
   3.1495545E-04   1.3061779E+05   -1.7370183E+00
   3.1640994E-04   1.2957677E+05   -1.7364439E+00
   3.1787116E-04   1.2854438E+05   -1.7358697E+00
   3.1933912E-04   1.2752055E+05   -1.7352956E+00
   3.2081386E-04   1.2650522E+05   -1.7347216E+00
   3.2229541E-04   1.2549830E+05   -1.7341478E+00
   3.2378381E-04   1.2449972E+05   -1.7335742E+00
   3.2527908E-04   1.2350942E+05   -1.7330007E+00
   3.2678125E-04   1.2252731E+05   -1.7324275E+00
   3.2829036E-04   1.2155334E+05   -1.7318544E+00
   3.2980644E-04   1.2058743E+05   -1.7312815E+00
   3.3132952E-04   1.1962950E+05   -1.7307088E+00
   3.3285963E-04   1.1867950E+05   -1.7301363E+00
   3.3439681E-04   1.1773736E+05   -1.7295640E+00
   3.3594109E-04   1.1680300E+05   -1.7289920E+00
   3.3749250E-04   1.1587637E+05   -1.7284201E+00
   3.3905108E-04   1.1495738E+05   -1.7278485E+00
   3.4061685E-04   1.1404599E+05   -1.7272771E+00
   3.4218986E-04   1.1314212E+05   -1.7267059E+00
   3.4377013E-04   1.1224571E+05   -1.7261350E+00
   3.4535769E-04   1.1135669E+05   -1.7255644E+00
   3.4695259E-04   1.1047500E+05   -1.7249940E+00
   3.4855485E-04   1.0960059E+05   -1.7244239E+00
   3.5016452E-04   1.0873338E+05   -1.7238540E+00
   3.5178161E-04   1.0787331E+05   -1.7232844E+00
   3.5340618E-04   1.0702033E+05   -1.7227151E+00
   3.5503824E-04   1.0617437E+05   -1.7221460E+00
   3.5667785E-04   1.0533538E+05   -1.7215773E+00
   3.5832502E-04   1.0450329E+05   -1.7210089E+00
   3.5997981E-04   1.0367804E+05   -1.7204407E+00
   3.6164223E-04   1.0285958E+05   -1.7198729E+00
   3.6331233E-04   1.0204785E+05   -1.7193054E+00
   3.6499015E-04   1.0124279E+05   -1.7187382E+00
   3.6667571E-04   1.0044434E+05   -1.7181713E+00
   3.6836906E-04   9.9652446E+04   -1.7176048E+00
   3.7007022E-04   9.8867056E+04   -1.7170386E+00
   3.7177925E-04   9.8088112E+04   -1.7164727E+00
   3.7349616E-04   9.7315558E+04   -1.7159072E+00
   3.7522101E-04   9.6549340E+04   -1.7153421E+00
   3.7695382E-04   9.5789405E+04   -1.7147773E+00
   3.7869463E-04   9.5035698E+04   -1.7142128E+00
   3.8044348E-04   9.4288167E+04   -1.7136488E+00
   3.8220041E-04   9.3546759E+04   -1.7130851E+00
   3.8396545E-04   9.2811422E+04   -1.7125218E+00
   3.8573864E-04   9.2082104E+04   -1.7119589E+00
   3.8752002E-04   9.1358753E+04   -1.7113964E+00
   3.8930963E-04   9.0641320E+04   -1.7108343E+00
   3.9110750E-04   8.9929754E+04   -1.7102726E+00
   3.9291368E-04   8.9224004E+04   -1.7097113E+00
   3.9472820E-04   8.8524022E+04   -1.7091504E+00
   3.9655109E-04   8.7829758E+04   -1.7085899E+00
   3.9838241E-04   8.7141164E+04   -1.7080299E+00
   4.0022218E-04   8.6458192E+04   -1.7074703E+00
   4.0207045E-04   8.5780794E+04   -1.7069111E+00
   4.0392725E-04   8.5108922E+04   -1.7063524E+00
   4.0579263E-04   8.4442530E+04   -1.7057941E+00
   4.0766662E-04   8.3781571E+04   -1.7052363E+00
   4.0954927E-04   8.3125999E+04   -1.7046789E+00
   4.1144061E-04   8.2475769E+04   -1.7041220E+00
   4.1334068E-04   8.1830835E+04   -1.7035656E+00
   4.1524953E-04   8.1191152E+04   -1.7030097E+00
   4.1716720E-04   8.0556675E+04   -1.7024542E+00
   4.1909372E-04   7.9927362E+04   -1.7018992E+00
   4.2102914E-04   7.9303167E+04   -1.7013447E+00
   4.2297350E-04   7.8684048E+04   -1.7007907E+00
   4.2492683E-04   7.8069961E+04   -1.7002372E+00
   4.2688919E-04   7.7460865E+04   -1.6996842E+00
   4.2886061E-04   7.6856717E+04   -1.6991317E+00
   4.3084113E-04   7.6257474E+04   -1.6985798E+00
   4.3283080E-04   7.5663096E+04   -1.6980283E+00
   4.3482966E-04   7.5073542E+04   -1.6974774E+00
   4.3683775E-04   7.4488770E+04   -1.6969271E+00
   4.3885511E-04   7.3908740E+04   -1.6963772E+00
   4.4088179E-04   7.3333413E+04   -1.6958279E+00
   4.4291783E-04   7.2762749E+04   -1.6952792E+00
   4.4496327E-04   7.2196707E+04   -1.6947310E+00
   4.4701816E-04   7.1635250E+04   -1.6941833E+00
   4.4908253E-04   7.1078338E+04   -1.6936362E+00
   4.5115644E-04   7.0525934E+04   -1.6930897E+00
   4.5323993E-04   6.9977999E+04   -1.6925438E+00
   4.5533304E-04   6.9434495E+04   -1.6919984E+00
   4.5743582E-04   6.8895386E+04   -1.6914536E+00
   4.5954830E-04   6.8360634E+04   -1.6909094E+00
   4.6167054E-04   6.7830203E+04   -1.6903658E+00
   4.6380259E-04   6.7304056E+04   -1.6898228E+00
   4.6594448E-04   6.6782158E+04   -1.6892804E+00
   4.6809626E-04   6.6264471E+04   -1.6887386E+00
   4.7025797E-04   6.5750962E+04   -1.6881974E+00
   4.7242967E-04   6.5241595E+04   -1.6876568E+00
   4.7461140E-04   6.4736335E+04   -1.6871169E+00
   4.7680321E-04   6.4235147E+04   -1.6865775E+00
   4.7900514E-04   6.3737998E+04   -1.6860388E+00
   4.8121723E-04   6.3244854E+04   -1.6855008E+00
   4.8343954E-04   6.2755681E+04   -1.6849633E+00
   4.8567212E-04   6.2270445E+04   -1.6844265E+00
   4.8791500E-04   6.1789114E+04   -1.6838904E+00
   4.9016825E-04   6.1311655E+04   -1.6833549E+00
   4.9243189E-04   6.0838035E+04   -1.6828201E+00
   4.9470600E-04   6.0368223E+04   -1.6822859E+00
   4.9699060E-04   5.9902186E+04   -1.6817524E+00
   4.9928575E-04   5.9439893E+04   -1.6812196E+00
   5.0159151E-04   5.8981312E+04   -1.6806874E+00
   5.0390791E-04   5.8526412E+04   -1.6801559E+00
   5.0623501E-04   5.8075163E+04   -1.6796251E+00
   5.0857286E-04   5.7627535E+04   -1.6790950E+00
   5.1092150E-04   5.7183496E+04   -1.6785656E+00
   5.1328099E-04   5.6743016E+04   -1.6780368E+00
   5.1565137E-04   5.6306067E+04   -1.6775088E+00
   5.1803270E-04   5.5872619E+04   -1.6769815E+00
   5.2042503E-04   5.5442642E+04   -1.6764549E+00
   5.2282841E-04   5.5016107E+04   -1.6759290E+00
   5.2524289E-04   5.4592985E+04   -1.6754038E+00
   5.2766851E-04   5.4173249E+04   -1.6748793E+00
   5.3010534E-04   5.3756870E+04   -1.6743556E+00
   5.3255342E-04   5.3343820E+04   -1.6738325E+00
   5.3501281E-04   5.2934071E+04   -1.6733103E+00
   5.3748356E-04   5.2527596E+04   -1.6727887E+00
   5.3996571E-04   5.2124367E+04   -1.6722679E+00
   5.4245933E-04   5.1724357E+04   -1.6717478E+00
   5.4496446E-04   5.1327541E+04   -1.6712285E+00
   5.4748117E-04   5.0933890E+04   -1.6707100E+00
   5.5000949E-04   5.0543379E+04   -1.6701922E+00
   5.5254949E-04   5.0155982E+04   -1.6696751E+00
   5.5510123E-04   4.9771672E+04   -1.6691588E+00
   5.5766474E-04   4.9390425E+04   -1.6686433E+00
   5.6024010E-04   4.9012214E+04   -1.6681286E+00
   5.6282734E-04   4.8637014E+04   -1.6676146E+00
   5.6542654E-04   4.8264801E+04   -1.6671014E+00
   5.6803774E-04   4.7895550E+04   -1.6665890E+00
   5.7066099E-04   4.7529236E+04   -1.6660774E+00
   5.7329637E-04   4.7165834E+04   -1.6655666E+00
   5.7594391E-04   4.6805321E+04   -1.6650565E+00
   5.7860368E-04   4.6447673E+04   -1.6645473E+00
   5.8127573E-04   4.6092866E+04   -1.6640389E+00
   5.8396012E-04   4.5740876E+04   -1.6635312E+00
   5.8665691E-04   4.5391680E+04   -1.6630244E+00
   5.8936616E-04   4.5045255E+04   -1.6625184E+00
   5.9208791E-04   4.4701578E+04   -1.6620132E+00
   5.9482223E-04   4.4360627E+04   -1.6615088E+00
   5.9756919E-04   4.4022378E+04   -1.6610052E+00
   6.0032882E-04   4.3686809E+04   -1.6605025E+00
   6.0310120E-04   4.3353899E+04   -1.6600006E+00
   6.0588639E-04   4.3023625E+04   -1.6594995E+00
   6.0868443E-04   4.2695966E+04   -1.6589992E+00
   6.1149540E-04   4.2370899E+04   -1.6584998E+00
   6.1431935E-04   4.2048405E+04   -1.6580012E+00
   6.1715634E-04   4.1728460E+04   -1.6575035E+00
   6.2000644E-04   4.1411045E+04   -1.6570066E+00
   6.2286969E-04   4.1096139E+04   -1.6565106E+00
