#        a       HoverH0(a)       dlogHdloga_of_a(a)
   1.0000000E-04   1.1071555E+06   -1.8606874E+00
   1.0046181E-04   1.0977056E+06   -1.8602238E+00
   1.0092575E-04   1.0883386E+06   -1.8597594E+00
   1.0139184E-04   1.0790538E+06   -1.8592940E+00
   1.0186008E-04   1.0698506E+06   -1.8588276E+00
   1.0233048E-04   1.0607281E+06   -1.8583604E+00
   1.0280305E-04   1.0516857E+06   -1.8578921E+00
   1.0327781E-04   1.0427226E+06   -1.8574230E+00
   1.0375475E-04   1.0338382E+06   -1.8569529E+00
   1.0423390E-04   1.0250316E+06   -1.8564819E+00
   1.0471527E-04   1.0163023E+06   -1.8560100E+00
   1.0519885E-04   1.0076495E+06   -1.8555371E+00
   1.0568467E-04   9.9907262E+05   -1.8550634E+00
   1.0617274E-04   9.9057086E+05   -1.8545887E+00
   1.0666305E-04   9.8214360E+05   -1.8541131E+00
   1.0715563E-04   9.7379017E+05   -1.8536366E+00
   1.0765049E-04   9.6550991E+05   -1.8531591E+00
   1.0814763E-04   9.5730217E+05   -1.8526808E+00
   1.0864707E-04   9.4916629E+05   -1.8522015E+00
   1.0914881E-04   9.4110164E+05   -1.8517214E+00
   1.0965287E-04   9.3310758E+05   -1.8512403E+00
   1.1015926E-04   9.2518348E+05   -1.8507584E+00
   1.1066799E-04   9.1732870E+05   -1.8502755E+00
   1.1117906E-04   9.0954264E+05   -1.8497918E+00
   1.1169250E-04   9.0182467E+05   -1.8493072E+00
   1.1220831E-04   8.9417420E+05   -1.8488217E+00
   1.1272650E-04   8.8659061E+05   -1.8483353E+00
   1.1324708E-04   8.7907331E+05   -1.8478480E+00
   1.1377007E-04   8.7162171E+05   -1.8473598E+00
   1.1429547E-04   8.6423522E+05   -1.8468708E+00
   1.1482330E-04   8.5691326E+05   -1.8463809E+00
   1.1535356E-04   8.4965525E+05   -1.8458901E+00
   1.1588628E-04   8.4246062E+05   -1.8453984E+00
   1.1642145E-04   8.3532881E+05   -1.8449059E+00
   1.1695910E-04   8.2825925E+05   -1.8444125E+00
   1.1749923E-04   8.2125139E+05   -1.8439183E+00
   1.1804185E-04   8.1430468E+05   -1.8434232E+00
   1.1858698E-04   8.0741858E+05   -1.8429272E+00
   1.1913463E-04   8.0059253E+05   -1.8424304E+00
   1.1968481E-04   7.9382602E+05   -1.8419328E+00
   1.2023752E-04   7.8711849E+05   -1.8414343E+00
   1.2079279E-04   7.8046945E+05   -1.8409350E+00
   1.2135063E-04   7.7387835E+05   -1.8404348E+00
   1.2191104E-04   7.6734468E+05   -1.8399338E+00
   1.2247403E-04   7.6086793E+05   -1.8394319E+00
   1.2303963E-04   7.5444760E+05   -1.8389293E+00
   1.2360784E-04   7.4808317E+05   -1.8384258E+00
   1.2417868E-04   7.4177416E+05   -1.8379215E+00
   1.2475215E-04   7.3552006E+05   -1.8374164E+00
   1.2532826E-04   7.2932039E+05   -1.8369104E+00
   1.2590704E-04   7.2317467E+05   -1.8364037E+00
   1.2648850E-04   7.1708241E+05   -1.8358961E+00
   1.2707263E-04   7.1104313E+05   -1.8353877E+00
   1.2765947E-04   7.0505637E+05   -1.8348786E+00
   1.2824901E-04   6.9912167E+05   -1.8343686E+00
   1.2884128E-04   6.9323854E+05   -1.8338578E+00
   1.2943628E-04   6.8740654E+05   -1.8333463E+00
   1.3003403E-04   6.8162521E+05   -1.8328340E+00
   1.3063454E-04   6.7589411E+05   -1.8323208E+00
   1.3123783E-04   6.7021277E+05   -1.8318069E+00
   1.3184390E-04   6.6458076E+05   -1.8312923E+00
   1.3245277E-04   6.5899765E+05   -1.8307768E+00
   1.3306445E-04   6.5346299E+05   -1.8302606E+00
   1.3367895E-04   6.4797636E+05   -1.8297436E+00
   1.3429630E-04   6.4253732E+05   -1.8292259E+00
   1.3491649E-04   6.3714547E+05   -1.8287074E+00
   1.3553955E-04   6.3180036E+05   -1.8281882E+00
   1.3616548E-04   6.2650160E+05   -1.8276682E+00
   1.3679431E-04   6.2124877E+05   -1.8271474E+00
   1.3742604E-04   6.1604146E+05   -1.8266259E+00
   1.3806069E-04   6.1087927E+05   -1.8261037E+00
   1.3869827E-04   6.0576179E+05   -1.8255808E+00
   1.3933879E-04   6.0068863E+05   -1.8250571E+00
   1.3998227E-04   5.9565939E+05   -1.8245327E+00
   1.4062872E-04   5.9067369E+05   -1.8240076E+00
   1.4127816E-04   5.8573114E+05   -1.8234817E+00
   1.4193060E-04   5.8083136E+05   -1.8229552E+00
   1.4258605E-04   5.7597396E+05   -1.8224279E+00
   1.4324453E-04   5.7115857E+05   -1.8218999E+00
   1.4390605E-04   5.6638481E+05   -1.8213713E+00
   1.4457062E-04   5.6165233E+05   -1.8208419E+00
   1.4523826E-04   5.5696075E+05   -1.8203118E+00
   1.4590899E-04   5.5230971E+05   -1.8197811E+00
   1.4658281E-04   5.4769885E+05   -1.8192497E+00
   1.4725974E-04   5.4312781E+05   -1.8187176E+00
   1.4793981E-04   5.3859624E+05   -1.8181848E+00
   1.4862301E-04   5.3410379E+05   -1.8176513E+00
   1.4930936E-04   5.2965012E+05   -1.8171172E+00
   1.4999889E-04   5.2523488E+05   -1.8165824E+00
   1.5069160E-04   5.2085773E+05   -1.8160470E+00
   1.5138751E-04   5.1651833E+05   -1.8155109E+00
   1.5208663E-04   5.1221635E+05   -1.8149742E+00
   1.5278899E-04   5.0795145E+05   -1.8144368E+00
   1.5349458E-04   5.0372332E+05   -1.8138988E+00
   1.5420343E-04   4.9953162E+05   -1.8133601E+00
   1.5491556E-04   4.9537603E+05   -1.8128208E+00
   1.5563098E-04   4.9125623E+05   -1.8122809E+00
   1.5634970E-04   4.8717191E+05   -1.8117404E+00
   1.5707174E-04   4.8312275E+05   -1.8111993E+00
   1.5779711E-04   4.7910844E+05   -1.8106575E+00
   1.5852584E-04   4.7512867E+05   -1.8101151E+00
   1.5925792E-04   4.7118314E+05   -1.8095722E+00
   1.5999339E-04   4.6727154E+05   -1.8090286E+00
   1.6073226E-04   4.6339357E+05   -1.8084845E+00
   1.6147454E-04   4.5954894E+05   -1.8079397E+00
   1.6222024E-04   4.5573735E+05   -1.8073944E+00
   1.6296939E-04   4.5195852E+05   -1.8068485E+00
   1.6372200E-04   4.4821214E+05   -1.8063021E+00
   1.6447809E-04   4.4449794E+05   -1.8057550E+00
   1.6523767E-04   4.4081563E+05   -1.8052074E+00
   1.6600075E-04   4.3716493E+05   -1.8046593E+00
   1.6676736E-04   4.3354556E+05   -1.8041106E+00
   1.6753751E-04   4.2995724E+05   -1.8035613E+00
   1.6831122E-04   4.2639969E+05   -1.8030115E+00
   1.6908849E-04   4.2287266E+05   -1.8024612E+00
   1.6986936E-04   4.1937587E+05   -1.8019103E+00
   1.7065384E-04   4.1590904E+05   -1.8013589E+00
   1.7144193E-04   4.1247192E+05   -1.8008070E+00
   1.7223367E-04   4.0906425E+05   -1.8002545E+00
   1.7302906E-04   4.0568577E+05   -1.7997016E+00
   1.7382813E-04   4.0233621E+05   -1.7991481E+00
   1.7463089E-04   3.9901533E+05   -1.7985942E+00
   1.7543735E-04   3.9572287E+05   -1.7980397E+00
   1.7624754E-04   3.9245858E+05   -1.7974848E+00
   1.7706147E-04   3.8922221E+05   -1.7969293E+00
   1.7787916E-04   3.8601352E+05   -1.7963734E+00
   1.7870062E-04   3.8283226E+05   -1.7958170E+00
   1.7952588E-04   3.7967819E+05   -1.7952602E+00
   1.8035495E-04   3.7655108E+05   -1.7947029E+00
   1.8118785E-04   3.7345068E+05   -1.7941451E+00
   1.8202459E-04   3.7037675E+05   -1.7935868E+00
   1.8286520E-04   3.6732908E+05   -1.7930282E+00
   1.8370969E-04   3.6430742E+05   -1.7924690E+00
   1.8455808E-04   3.6131155E+05   -1.7919095E+00
   1.8541039E-04   3.5834125E+05   -1.7913495E+00
   1.8626663E-04   3.5539627E+05   -1.7907890E+00
   1.8712683E-04   3.5247641E+05   -1.7902282E+00
   1.8799100E-04   3.4958145E+05   -1.7896669E+00
   1.8885917E-04   3.4671115E+05   -1.7891052E+00
   1.8973134E-04   3.4386532E+05   -1.7885432E+00
   1.9060754E-04   3.4104372E+05   -1.7879807E+00
   1.9148778E-04   3.3824616E+05   -1.7874178E+00
   1.9237209E-04   3.3547241E+05   -1.7868545E+00
   1.9326049E-04   3.3272228E+05   -1.7862909E+00
   1.9415299E-04   3.2999554E+05   -1.7857269E+00
   1.9504960E-04   3.2729201E+05   -1.7851625E+00
   1.9595036E-04   3.2461146E+05   -1.7845977E+00
   1.9685528E-04   3.2195371E+05   -1.7840326E+00
   1.9776438E-04   3.1931855E+05   -1.7834671E+00
   1.9867768E-04   3.1670579E+05   -1.7829013E+00
   1.9959519E-04   3.1411522E+05   -1.7823351E+00
   2.0051694E-04   3.1154666E+05   -1.7817686E+00
   2.0144295E-04   3.0899990E+05   -1.7812018E+00
   2.0237324E-04   3.0647477E+05   -1.7806346E+00
   2.0330782E-04   3.0397106E+05   -1.7800671E+00
   2.0424671E-04   3.0148860E+05   -1.7794993E+00
   2.0518995E-04   2.9902719E+05   -1.7789312E+00
   2.0613754E-04   2.9658666E+05   -1.7783628E+00
   2.0708950E-04   2.9416681E+05   -1.7777941E+00
   2.0804586E-04   2.9176747E+05   -1.7772251E+00
   2.0900664E-04   2.8938847E+05   -1.7766558E+00
   2.0997185E-04   2.8702961E+05   -1.7760862E+00
   2.1094152E-04   2.8469073E+05   -1.7755164E+00
   2.1191567E-04   2.8237164E+05   -1.7749463E+00
   2.1289432E-04   2.8007219E+05   -1.7743759E+00
   2.1387749E-04   2.7779219E+05   -1.7738053E+00
   2.1486520E-04   2.7553147E+05   -1.7732344E+00
   2.1585747E-04   2.7328988E+05   -1.7726632E+00
   2.1685432E-04   2.7106723E+05   -1.7720919E+00
   2.1785578E-04   2.6886336E+05   -1.7715203E+00
   2.1886186E-04   2.6667812E+05   -1.7709485E+00
   2.1987259E-04   2.6451134E+05   -1.7703764E+00
   2.2088798E-04   2.6236285E+05   -1.7698041E+00
   2.2190807E-04   2.6023250E+05   -1.7692317E+00
   2.2293286E-04   2.5812013E+05   -1.7686590E+00
   2.2396239E-04   2.5602558E+05   -1.7680861E+00
   2.2499667E-04   2.5394870E+05   -1.7675131E+00
   2.2603573E-04   2.5188933E+05   -1.7669398E+00
   2.2707958E-04   2.4984732E+05   -1.7663664E+00
   2.2812826E-04   2.4782252E+05   -1.7657928E+00
   2.2918178E-04   2.4581478E+05   -1.7652190E+00
   2.3024017E-04   2.4382395E+05   -1.7646451E+00
   2.3130344E-04   2.4184988E+05   -1.7640710E+00
   2.3237162E-04   2.3989243E+05   -1.7634968E+00
   2.3344474E-04   2.3795145E+05   -1.7629224E+00
   2.3452281E-04   2.3602681E+05   -1.7623479E+00
   2.3560586E-04   2.3411835E+05   -1.7617732E+00
   2.3669392E-04   2.3222593E+05   -1.7611985E+00
   2.3778699E-04   2.3034942E+05   -1.7606236E+00
   2.3888512E-04   2.2848868E+05   -1.7600486E+00
   2.3998831E-04   2.2664358E+05   -1.7594735E+00
   2.4109661E-04   2.2481396E+05   -1.7588983E+00
   2.4221001E-04   2.2299971E+05   -1.7583229E+00
   2.4332857E-04   2.2120069E+05   -1.7577476E+00
   2.4445228E-04   2.1941676E+05   -1.7571721E+00
   2.4558119E-04   2.1764779E+05   -1.7565965E+00
   2.4671531E-04   2.1589366E+05   -1.7560209E+00
   2.4785467E-04   2.1415424E+05   -1.7554452E+00
   2.4899928E-04   2.1242939E+05   -1.7548695E+00
   2.5014919E-04   2.1071899E+05   -1.7542937E+00
   2.5130440E-04   2.0902292E+05   -1.7537178E+00
   2.5246495E-04   2.0734105E+05   -1.7531419E+00
   2.5363086E-04   2.0567326E+05   -1.7525660E+00
   2.5480216E-04   2.0401943E+05   -1.7519901E+00
   2.5597886E-04   2.0237943E+05   -1.7514141E+00
   2.5716100E-04   2.0075315E+05   -1.7508381E+00
   2.5834859E-04   1.9914047E+05   -1.7502621E+00
   2.5954168E-04   1.9754126E+05   -1.7496862E+00
   2.6074027E-04   1.9595542E+05   -1.7491102E+00
   2.6194439E-04   1.9438282E+05   -1.7485342E+00
   2.6315408E-04   1.9282336E+05   -1.7479582E+00
   2.6436935E-04   1.9127691E+05   -1.7473823E+00
   2.6559024E-04   1.8974337E+05   -1.7468063E+00
   2.6681676E-04   1.8822263E+05   -1.7462305E+00
   2.6804895E-04   1.8671456E+05   -1.7456546E+00
   2.6928683E-04   1.8521908E+05   -1.7450788E+00
   2.7053042E-04   1.8373606E+05   -1.7445031E+00
   2.7177976E-04   1.8226539E+05   -1.7439274E+00
   2.7303487E-04   1.8080698E+05   -1.7433518E+00
   2.7429577E-04   1.7936071E+05   -1.7427762E+00
   2.7556250E-04   1.7792648E+05   -1.7422007E+00
   2.7683507E-04   1.7650419E+05   -1.7416253E+00
   2.7811353E-04   1.7509374E+05   -1.7410500E+00
   2.7939788E-04   1.7369501E+05   -1.7404748E+00
   2.8068817E-04   1.7230792E+05   -1.7398997E+00
   2.8198442E-04   1.7093235E+05   -1.7393247E+00
   2.8328665E-04   1.6956822E+05   -1.7387498E+00
   2.8459490E-04   1.6821541E+05   -1.7381750E+00
   2.8590919E-04   1.6687385E+05   -1.7376003E+00
   2.8722955E-04   1.6554341E+05   -1.7370258E+00
   2.8855600E-04   1.6422403E+05   -1.7364514E+00
   2.8988859E-04   1.6291558E+05   -1.7358772E+00
   2.9122732E-04   1.6161799E+05   -1.7353031E+00
   2.9257224E-04   1.6033116E+05   -1.7347292E+00
   2.9392337E-04   1.5905500E+05   -1.7341554E+00
   2.9528074E-04   1.5778941E+05   -1.7335818E+00
   2.9664438E-04   1.5653430E+05   -1.7330084E+00
   2.9801431E-04   1.5528959E+05   -1.7324351E+00
   2.9939057E-04   1.5405518E+05   -1.7318620E+00
   3.0077319E-04   1.5283099E+05   -1.7312891E+00
   3.0216219E-04   1.5161693E+05   -1.7307165E+00
   3.0355761E-04   1.5041291E+05   -1.7301440E+00
   3.0495947E-04   1.4921884E+05   -1.7295717E+00
   3.0636780E-04   1.4803464E+05   -1.7289997E+00
   3.0778264E-04   1.4686023E+05   -1.7284278E+00
   3.0920401E-04   1.4569552E+05   -1.7278562E+00
   3.1063195E-04   1.4454042E+05   -1.7272848E+00
   3.1206648E-04   1.4339486E+05   -1.7267137E+00
   3.1350764E-04   1.4225876E+05   -1.7261428E+00
   3.1495545E-04   1.4113202E+05   -1.7255722E+00
   3.1640994E-04   1.4001458E+05   -1.7250018E+00
   3.1787116E-04   1.3890635E+05   -1.7244316E+00
   3.1933912E-04   1.3780726E+05   -1.7238618E+00
   3.2081386E-04   1.3671722E+05   -1.7232922E+00
   3.2229541E-04   1.3563616E+05   -1.7227229E+00
   3.2378381E-04   1.3456400E+05   -1.7221539E+00
   3.2527908E-04   1.3350066E+05   -1.7215852E+00
   3.2678125E-04   1.3244607E+05   -1.7210167E+00
   3.2829036E-04   1.3140016E+05   -1.7204486E+00
   3.2980644E-04   1.3036285E+05   -1.7198808E+00
   3.3132952E-04   1.2933407E+05   -1.7193133E+00
   3.3285963E-04   1.2831374E+05   -1.7187461E+00
   3.3439681E-04   1.2730179E+05   -1.7181793E+00
   3.3594109E-04   1.2629815E+05   -1.7176127E+00
   3.3749250E-04   1.2530276E+05   -1.7170465E+00
   3.3905108E-04   1.2431553E+05   -1.7164807E+00
   3.4061685E-04   1.2333640E+05   -1.7159152E+00
   3.4218986E-04   1.2236530E+05   -1.7153501E+00
   3.4377013E-04   1.2140217E+05   -1.7147853E+00
   3.4535769E-04   1.2044692E+05   -1.7142209E+00
   3.4695259E-04   1.1949951E+05   -1.7136568E+00
   3.4855485E-04   1.1855985E+05   -1.7130932E+00
   3.5016452E-04   1.1762789E+05   -1.7125299E+00
   3.5178161E-04   1.1670356E+05   -1.7119670E+00
   3.5340618E-04   1.1578679E+05   -1.7114045E+00
   3.5503824E-04   1.1487752E+05   -1.7108424E+00
   3.5667785E-04   1.1397569E+05   -1.7102807E+00
   3.5832502E-04   1.1308123E+05   -1.7097194E+00
   3.5997981E-04   1.1219408E+05   -1.7091585E+00
   3.6164223E-04   1.1131417E+05   -1.7085981E+00
   3.6331233E-04   1.1044146E+05   -1.7080381E+00
   3.6499015E-04   1.0957586E+05   -1.7074785E+00
   3.6667571E-04   1.0871733E+05   -1.7069193E+00
   3.6836906E-04   1.0786581E+05   -1.7063606E+00
   3.7007022E-04   1.0702123E+05   -1.7058023E+00
   3.7177925E-04   1.0618354E+05   -1.7052445E+00
   3.7349616E-04   1.0535267E+05   -1.7046872E+00
   3.7522101E-04   1.0452857E+05   -1.7041303E+00
   3.7695382E-04   1.0371119E+05   -1.7035739E+00
   3.7869463E-04   1.0290046E+05   -1.7030180E+00
   3.8044348E-04   1.0209633E+05   -1.7024625E+00
   3.8220041E-04   1.0129874E+05   -1.7019075E+00
   3.8396545E-04   1.0050765E+05   -1.7013530E+00
   3.8573864E-04   9.9722979E+04   -1.7007991E+00
   3.8752002E-04   9.8944692E+04   -1.7002456E+00
   3.8930963E-04   9.8172728E+04   -1.6996926E+00
   3.9110750E-04   9.7407036E+04   -1.6991401E+00
   3.9291368E-04   9.6647561E+04   -1.6985882E+00
   3.9472820E-04   9.5894252E+04   -1.6980368E+00
   3.9655109E-04   9.5147056E+04   -1.6974859E+00
   3.9838241E-04   9.4405921E+04   -1.6969355E+00
   4.0022218E-04   9.3670797E+04   -1.6963857E+00
   4.0207045E-04   9.2941632E+04   -1.6958364E+00
   4.0392725E-04   9.2218377E+04   -1.6952877E+00
   4.0579263E-04   9.1500982E+04   -1.6947395E+00
   4.0766662E-04   9.0789396E+04   -1.6941918E+00
   4.0954927E-04   9.0083572E+04   -1.6936448E+00
   4.1144061E-04   8.9383460E+04   -1.6930983E+00
   4.1334068E-04   8.8689012E+04   -1.6925523E+00
   4.1524953E-04   8.8000181E+04   -1.6920070E+00
   4.1716720E-04   8.7316919E+04   -1.6914622E+00
   4.1909372E-04   8.6639179E+04   -1.6909180E+00
   4.2102914E-04   8.5966916E+04   -1.6903744E+00
   4.2297350E-04   8.5300082E+04   -1.6898314E+00
   4.2492683E-04   8.4638632E+04   -1.6892891E+00
   4.2688919E-04   8.3982522E+04   -1.6887473E+00
   4.2886061E-04   8.3331705E+04   -1.6882061E+00
   4.3084113E-04   8.2686138E+04   -1.6876655E+00
   4.3283080E-04   8.2045777E+04   -1.6871256E+00
   4.3482966E-04   8.1410577E+04   -1.6865863E+00
   4.3683775E-04   8.0780495E+04   -1.6860476E+00
   4.3885511E-04   8.0155489E+04   -1.6855095E+00
   4.4088179E-04   7.9535515E+04   -1.6849721E+00
   4.4291783E-04   7.8920532E+04   -1.6844353E+00
   4.4496327E-04   7.8310498E+04   -1.6838992E+00
   4.4701816E-04   7.7705371E+04   -1.6833637E+00
   4.4908253E-04   7.7105110E+04   -1.6828289E+00
   4.5115644E-04   7.6509675E+04   -1.6822948E+00
   4.5323993E-04   7.5919024E+04   -1.6817613E+00
   4.5533304E-04   7.5333118E+04   -1.6812284E+00
   4.5743582E-04   7.4751918E+04   -1.6806963E+00
   4.5954830E-04   7.4175383E+04   -1.6801648E+00
   4.6167054E-04   7.3603475E+04   -1.6796340E+00
   4.6380259E-04   7.3036155E+04   -1.6791039E+00
   4.6594448E-04   7.2473384E+04   -1.6785745E+00
   4.6809626E-04   7.1915126E+04   -1.6780458E+00
   4.7025797E-04   7.1361341E+04   -1.6775178E+00
   4.7242967E-04   7.0811992E+04   -1.6769905E+00
   4.7461140E-04   7.0267044E+04   -1.6764639E+00
   4.7680321E-04   6.9726458E+04   -1.6759380E+00
   4.7900514E-04   6.9190198E+04   -1.6754128E+00
   4.8121723E-04   6.8658229E+04   -1.6748884E+00
   4.8343954E-04   6.8130515E+04   -1.6743646E+00
   4.8567212E-04   6.7607019E+04   -1.6738417E+00
   4.8791500E-04   6.7087708E+04   -1.6733194E+00
   4.9016825E-04   6.6572546E+04   -1.6727979E+00
   4.9243189E-04   6.6061498E+04   -1.6722771E+00
   4.9470600E-04   6.5554530E+04   -1.6717570E+00
   4.9699060E-04   6.5051609E+04   -1.6712377E+00
   4.9928575E-04   6.4552700E+04   -1.6707192E+00
   5.0159151E-04   6.4057771E+04   -1.6702014E+00
   5.0390791E-04   6.3566788E+04   -1.6696844E+00
   5.0623501E-04   6.3079718E+04   -1.6691681E+00
   5.0857286E-04   6.2596529E+04   -1.6686526E+00
   5.1092150E-04   6.2117189E+04   -1.6681379E+00
   5.1328099E-04   6.1641665E+04   -1.6676239E+00
   5.1565137E-04   6.1169927E+04   -1.6671108E+00
   5.1803270E-04   6.0701942E+04   -1.6665984E+00
   5.2042503E-04   6.0237679E+04   -1.6660868E+00
   5.2282841E-04   5.9777108E+04   -1.6655760E+00
   5.2524289E-04   5.9320198E+04   -1.6650659E+00
   5.2766851E-04   5.8866919E+04   -1.6645567E+00
   5.3010534E-04   5.8417240E+04   -1.6640483E+00
   5.3255342E-04   5.7971132E+04   -1.6635407E+00
   5.3501281E-04   5.7528565E+04   -1.6630339E+00
   5.3748356E-04   5.7089510E+04   -1.6625279E+00
   5.3996571E-04   5.6653938E+04   -1.6620227E+00
   5.4245933E-04   5.6221820E+04   -1.6615183E+00
   5.4496446E-04   5.5793127E+04   -1.6610148E+00
   5.4748117E-04   5.5367832E+04   -1.6605120E+00
   5.5000949E-04   5.4945906E+04   -1.6600101E+00
   5.5254949E-04   5.4527320E+04   -1.6595091E+00
   5.5510123E-04   5.4112049E+04   -1.6590088E+00
   5.5766474E-04   5.3700064E+04   -1.6585094E+00
   5.6024010E-04   5.3291338E+04   -1.6580109E+00
   5.6282734E-04   5.2885844E+04   -1.6575132E+00
   5.6542654E-04   5.2483556E+04   -1.6570163E+00
   5.6803774E-04   5.2084447E+04   -1.6565203E+00
   5.7066099E-04   5.1688491E+04   -1.6560251E+00
   5.7329637E-04   5.1295662E+04   -1.6555308E+00
   5.7594391E-04   5.0905935E+04   -1.6550374E+00
   5.7860368E-04   5.0519283E+04   -1.6545448E+00
   5.8127573E-04   5.0135682E+04   -1.6540531E+00
   5.8396012E-04   4.9755106E+04   -1.6535622E+00
   5.8665691E-04   4.9377531E+04   -1.6530722E+00
   5.8936616E-04   4.9002932E+04   -1.6525831E+00
   5.9208791E-04   4.8631283E+04   -1.6520949E+00
   5.9482223E-04   4.8262562E+04   -1.6516075E+00
   5.9756919E-04   4.7896744E+04   -1.6511211E+00
   6.0032882E-04   4.7533806E+04   -1.6506355E+00
   6.0310120E-04   4.7173723E+04   -1.6501508E+00
   6.0588639E-04   4.6816472E+04   -1.6496670E+00
   6.0868443E-04   4.6462030E+04   -1.6491840E+00
   6.1149540E-04   4.6110374E+04   -1.6487020E+00
   6.1431935E-04   4.5761481E+04   -1.6482209E+00
   6.1715634E-04   4.5415329E+04   -1.6477407E+00
   6.2000644E-04   4.5071894E+04   -1.6472613E+00
   6.2286969E-04   4.4731156E+04   -1.6467829E+00
