#        a       HoverH0(a)       dlogHdloga_of_a(a)
   1.0000000E-04   1.1810233E+06   -1.8853941E+00
   1.0046181E-04   1.1708094E+06   -1.8849866E+00
   1.0092575E-04   1.1606860E+06   -1.8845780E+00
   1.0139184E-04   1.1506523E+06   -1.8841685E+00
   1.0186008E-04   1.1407075E+06   -1.8837579E+00
   1.0233048E-04   1.1308508E+06   -1.8833463E+00
   1.0280305E-04   1.1210814E+06   -1.8829337E+00
   1.0327781E-04   1.1113985E+06   -1.8825201E+00
   1.0375475E-04   1.1018014E+06   -1.8821055E+00
   1.0423390E-04   1.0922892E+06   -1.8816898E+00
   1.0471527E-04   1.0828612E+06   -1.8812732E+00
   1.0519885E-04   1.0735166E+06   -1.8808555E+00
   1.0568467E-04   1.0642547E+06   -1.8804369E+00
   1.0617274E-04   1.0550748E+06   -1.8800172E+00
   1.0666305E-04   1.0459761E+06   -1.8795965E+00
   1.0715563E-04   1.0369579E+06   -1.8791748E+00
   1.0765049E-04   1.0280194E+06   -1.8787521E+00
   1.0814763E-04   1.0191599E+06   -1.8783284E+00
   1.0864707E-04   1.0103788E+06   -1.8779037E+00
   1.0914881E-04   1.0016753E+06   -1.8774780E+00
   1.0965287E-04   9.9304875E+05   -1.8770513E+00
   1.1015926E-04   9.8449840E+05   -1.8766236E+00
   1.1066799E-04   9.7602360E+05   -1.8761949E+00
   1.1117906E-04   9.6762366E+05   -1.8757652E+00
   1.1169250E-04   9.5929792E+05   -1.8753345E+00
   1.1220831E-04   9.5104571E+05   -1.8749028E+00
   1.1272650E-04   9.4286636E+05   -1.8744702E+00
   1.1324708E-04   9.3475922E+05   -1.8740365E+00
   1.1377007E-04   9.2672365E+05   -1.8736018E+00
   1.1429547E-04   9.1875899E+05   -1.8731661E+00
   1.1482330E-04   9.1086462E+05   -1.8727295E+00
   1.1535356E-04   9.0303990E+05   -1.8722918E+00
   1.1588628E-04   8.9528421E+05   -1.8718532E+00
   1.1642145E-04   8.8759691E+05   -1.8714136E+00
   1.1695910E-04   8.7997741E+05   -1.8709730E+00
   1.1749923E-04   8.7242509E+05   -1.8705314E+00
   1.1804185E-04   8.6493935E+05   -1.8700888E+00
   1.1858698E-04   8.5751959E+05   -1.8696453E+00
   1.1913463E-04   8.5016522E+05   -1.8692007E+00
   1.1968481E-04   8.4287565E+05   -1.8687552E+00
   1.2023752E-04   8.3565030E+05   -1.8683087E+00
   1.2079279E-04   8.2848860E+05   -1.8678613E+00
   1.2135063E-04   8.2138997E+05   -1.8674128E+00
   1.2191104E-04   8.1435384E+05   -1.8669634E+00
   1.2247403E-04   8.0737966E+05   -1.8665131E+00
   1.2303963E-04   8.0046687E+05   -1.8660617E+00
   1.2360784E-04   7.9361492E+05   -1.8656094E+00
   1.2417868E-04   7.8682327E+05   -1.8651561E+00
   1.2475215E-04   7.8009136E+05   -1.8647019E+00
   1.2532826E-04   7.7341868E+05   -1.8642467E+00
   1.2590704E-04   7.6680467E+05   -1.8637906E+00
   1.2648850E-04   7.6024883E+05   -1.8633334E+00
   1.2707263E-04   7.5375063E+05   -1.8628754E+00
   1.2765947E-04   7.4730955E+05   -1.8624163E+00
   1.2824901E-04   7.4092508E+05   -1.8619564E+00
   1.2884128E-04   7.3459672E+05   -1.8614954E+00
   1.2943628E-04   7.2832395E+05   -1.8610336E+00
   1.3003403E-04   7.2210629E+05   -1.8605707E+00
   1.3063454E-04   7.1594323E+05   -1.8601070E+00
   1.3123783E-04   7.0983430E+05   -1.8596423E+00
   1.3184390E-04   7.0377899E+05   -1.8591766E+00
   1.3245277E-04   6.9777684E+05   -1.8587100E+00
   1.3306445E-04   6.9182737E+05   -1.8582425E+00
   1.3367895E-04   6.8593011E+05   -1.8577740E+00
   1.3429630E-04   6.8008458E+05   -1.8573046E+00
   1.3491649E-04   6.7429033E+05   -1.8568343E+00
   1.3553955E-04   6.6854689E+05   -1.8563631E+00
   1.3616548E-04   6.6285382E+05   -1.8558909E+00
   1.3679431E-04   6.5721066E+05   -1.8554178E+00
   1.3742604E-04   6.5161696E+05   -1.8549438E+00
   1.3806069E-04   6.4607229E+05   -1.8544689E+00
   1.3869827E-04   6.4057620E+05   -1.8539930E+00
   1.3933879E-04   6.3512825E+05   -1.8535163E+00
   1.3998227E-04   6.2972803E+05   -1.8530386E+00
   1.4062872E-04   6.2437509E+05   -1.8525600E+00
   1.4127816E-04   6.1906903E+05   -1.8520805E+00
   1.4193060E-04   6.1380941E+05   -1.8516002E+00
   1.4258605E-04   6.0859583E+05   -1.8511189E+00
   1.4324453E-04   6.0342787E+05   -1.8506367E+00
   1.4390605E-04   5.9830512E+05   -1.8501536E+00
   1.4457062E-04   5.9322719E+05   -1.8496696E+00
   1.4523826E-04   5.8819366E+05   -1.8491848E+00
   1.4590899E-04   5.8320415E+05   -1.8486990E+00
   1.4658281E-04   5.7825826E+05   -1.8482124E+00
   1.4725974E-04   5.7335561E+05   -1.8477249E+00
   1.4793981E-04   5.6849579E+05   -1.8472365E+00
   1.4862301E-04   5.6367844E+05   -1.8467472E+00
   1.4930936E-04   5.5890317E+05   -1.8462570E+00
   1.4999889E-04   5.5416960E+05   -1.8457660E+00
   1.5069160E-04   5.4947737E+05   -1.8452741E+00
   1.5138751E-04   5.4482611E+05   -1.8447814E+00
   1.5208663E-04   5.4021544E+05   -1.8442878E+00
   1.5278899E-04   5.3564502E+05   -1.8437933E+00
   1.5349458E-04   5.3111447E+05   -1.8432980E+00
   1.5420343E-04   5.2662344E+05   -1.8428018E+00
   1.5491556E-04   5.2217159E+05   -1.8423048E+00
   1.5563098E-04   5.1775856E+05   -1.8418069E+00
   1.5634970E-04   5.1338400E+05   -1.8413082E+00
   1.5707174E-04   5.0904757E+05   -1.8408086E+00
   1.5779711E-04   5.0474893E+05   -1.8403082E+00
   1.5852584E-04   5.0048775E+05   -1.8398070E+00
   1.5925792E-04   4.9626369E+05   -1.8393050E+00
   1.5999339E-04   4.9207642E+05   -1.8388021E+00
   1.6073226E-04   4.8792561E+05   -1.8382984E+00
   1.6147454E-04   4.8381094E+05   -1.8377938E+00
   1.6222024E-04   4.7973208E+05   -1.8372885E+00
   1.6296939E-04   4.7568872E+05   -1.8367823E+00
   1.6372200E-04   4.7168054E+05   -1.8362753E+00
   1.6447809E-04   4.6770722E+05   -1.8357676E+00
   1.6523767E-04   4.6376847E+05   -1.8352590E+00
   1.6600075E-04   4.5986396E+05   -1.8347496E+00
   1.6676736E-04   4.5599339E+05   -1.8342394E+00
   1.6753751E-04   4.5215646E+05   -1.8337285E+00
   1.6831122E-04   4.4835288E+05   -1.8332167E+00
   1.6908849E-04   4.4458234E+05   -1.8327041E+00
   1.6986936E-04   4.4084455E+05   -1.8321908E+00
   1.7065384E-04   4.3713923E+05   -1.8316767E+00
   1.7144193E-04   4.3346607E+05   -1.8311618E+00
   1.7223367E-04   4.2982480E+05   -1.8306462E+00
   1.7302906E-04   4.2621513E+05   -1.8301298E+00
   1.7382813E-04   4.2263678E+05   -1.8296126E+00
   1.7463089E-04   4.1908947E+05   -1.8290946E+00
   1.7543735E-04   4.1557293E+05   -1.8285759E+00
   1.7624754E-04   4.1208688E+05   -1.8280565E+00
   1.7706147E-04   4.0863105E+05   -1.8275363E+00
   1.7787916E-04   4.0520518E+05   -1.8270153E+00
   1.7870062E-04   4.0180899E+05   -1.8264937E+00
   1.7952588E-04   3.9844223E+05   -1.8259712E+00
   1.8035495E-04   3.9510462E+05   -1.8254481E+00
   1.8118785E-04   3.9179592E+05   -1.8249242E+00
   1.8202459E-04   3.8851587E+05   -1.8243996E+00
   1.8286520E-04   3.8526421E+05   -1.8238743E+00
   1.8370969E-04   3.8204069E+05   -1.8233482E+00
   1.8455808E-04   3.7884506E+05   -1.8228215E+00
   1.8541039E-04   3.7567707E+05   -1.8222940E+00
   1.8626663E-04   3.7253648E+05   -1.8217659E+00
   1.8712683E-04   3.6942304E+05   -1.8212370E+00
   1.8799100E-04   3.6633652E+05   -1.8207074E+00
   1.8885917E-04   3.6327667E+05   -1.8201772E+00
   1.8973134E-04   3.6024326E+05   -1.8196462E+00
   1.9060754E-04   3.5723605E+05   -1.8191146E+00
   1.9148778E-04   3.5425482E+05   -1.8185823E+00
   1.9237209E-04   3.5129932E+05   -1.8180494E+00
   1.9326049E-04   3.4836934E+05   -1.8175157E+00
   1.9415299E-04   3.4546465E+05   -1.8169814E+00
   1.9504960E-04   3.4258502E+05   -1.8164465E+00
   1.9595036E-04   3.3973023E+05   -1.8159108E+00
   1.9685528E-04   3.3690006E+05   -1.8153746E+00
   1.9776438E-04   3.3409430E+05   -1.8148376E+00
   1.9867768E-04   3.3131272E+05   -1.8143001E+00
   1.9959519E-04   3.2855512E+05   -1.8137619E+00
   2.0051694E-04   3.2582127E+05   -1.8132231E+00
   2.0144295E-04   3.2311098E+05   -1.8126836E+00
   2.0237324E-04   3.2042403E+05   -1.8121435E+00
   2.0330782E-04   3.1776021E+05   -1.8116028E+00
   2.0424671E-04   3.1511932E+05   -1.8110615E+00
   2.0518995E-04   3.1250117E+05   -1.8105196E+00
   2.0613754E-04   3.0990554E+05   -1.8099770E+00
   2.0708950E-04   3.0733223E+05   -1.8094339E+00
   2.0804586E-04   3.0478106E+05   -1.8088902E+00
   2.0900664E-04   3.0225183E+05   -1.8083459E+00
   2.0997185E-04   2.9974433E+05   -1.8078010E+00
   2.1094152E-04   2.9725839E+05   -1.8072555E+00
   2.1191567E-04   2.9479380E+05   -1.8067094E+00
   2.1289432E-04   2.9235038E+05   -1.8061628E+00
   2.1387749E-04   2.8992795E+05   -1.8056156E+00
   2.1486520E-04   2.8752631E+05   -1.8050678E+00
   2.1585747E-04   2.8514528E+05   -1.8045195E+00
   2.1685432E-04   2.8278469E+05   -1.8039706E+00
   2.1785578E-04   2.8044435E+05   -1.8034212E+00
   2.1886186E-04   2.7812409E+05   -1.8028712E+00
   2.1987259E-04   2.7582372E+05   -1.8023207E+00
   2.2088798E-04   2.7354307E+05   -1.8017697E+00
   2.2190807E-04   2.7128197E+05   -1.8012182E+00
   2.2293286E-04   2.6904024E+05   -1.8006661E+00
   2.2396239E-04   2.6681771E+05   -1.8001135E+00
   2.2499667E-04   2.6461422E+05   -1.7995604E+00
   2.2603573E-04   2.6242960E+05   -1.7990068E+00
   2.2707958E-04   2.6026368E+05   -1.7984527E+00
   2.2812826E-04   2.5811629E+05   -1.7978981E+00
   2.2918178E-04   2.5598727E+05   -1.7973430E+00
   2.3024017E-04   2.5387646E+05   -1.7967874E+00
   2.3130344E-04   2.5178371E+05   -1.7962314E+00
   2.3237162E-04   2.4970884E+05   -1.7956748E+00
   2.3344474E-04   2.4765171E+05   -1.7951178E+00
   2.3452281E-04   2.4561216E+05   -1.7945604E+00
   2.3560586E-04   2.4359003E+05   -1.7940024E+00
   2.3669392E-04   2.4158516E+05   -1.7934441E+00
   2.3778699E-04   2.3959742E+05   -1.7928852E+00
   2.3888512E-04   2.3762664E+05   -1.7923260E+00
   2.3998831E-04   2.3567268E+05   -1.7917663E+00
   2.4109661E-04   2.3373539E+05   -1.7912061E+00
   2.4221001E-04   2.3181463E+05   -1.7906456E+00
   2.4332857E-04   2.2991024E+05   -1.7900846E+00
   2.4445228E-04   2.2802209E+05   -1.7895232E+00
   2.4558119E-04   2.2615003E+05   -1.7889614E+00
   2.4671531E-04   2.2429391E+05   -1.7883992E+00
   2.4785467E-04   2.2245361E+05   -1.7878366E+00
   2.4899928E-04   2.2062899E+05   -1.7872736E+00
   2.5014919E-04   2.1881989E+05   -1.7867102E+00
   2.5130440E-04   2.1702619E+05   -1.7861464E+00
   2.5246495E-04   2.1524776E+05   -1.7855823E+00
   2.5363086E-04   2.1348445E+05   -1.7850178E+00
   2.5480216E-04   2.1173614E+05   -1.7844529E+00
   2.5597886E-04   2.1000270E+05   -1.7838876E+00
   2.5716100E-04   2.0828398E+05   -1.7833220E+00
   2.5834859E-04   2.0657988E+05   -1.7827561E+00
   2.5954168E-04   2.0489025E+05   -1.7821898E+00
   2.6074027E-04   2.0321497E+05   -1.7816232E+00
   2.6194439E-04   2.0155391E+05   -1.7810562E+00
   2.6315408E-04   1.9990695E+05   -1.7804890E+00
   2.6436935E-04   1.9827397E+05   -1.7799214E+00
   2.6559024E-04   1.9665485E+05   -1.7793534E+00
   2.6681676E-04   1.9504945E+05   -1.7787852E+00
   2.6804895E-04   1.9345767E+05   -1.7782167E+00
   2.6928683E-04   1.9187938E+05   -1.7776479E+00
   2.7053042E-04   1.9031447E+05   -1.7770788E+00
   2.7177976E-04   1.8876281E+05   -1.7765094E+00
   2.7303487E-04   1.8722430E+05   -1.7759397E+00
   2.7429577E-04   1.8569881E+05   -1.7753698E+00
   2.7556250E-04   1.8418624E+05   -1.7747996E+00
   2.7683507E-04   1.8268647E+05   -1.7742291E+00
   2.7811353E-04   1.8119938E+05   -1.7736584E+00
   2.7939788E-04   1.7972488E+05   -1.7730874E+00
   2.8068817E-04   1.7826284E+05   -1.7725162E+00
   2.8198442E-04   1.7681316E+05   -1.7719447E+00
   2.8328665E-04   1.7537573E+05   -1.7713730E+00
   2.8459490E-04   1.7395045E+05   -1.7708011E+00
   2.8590919E-04   1.7253720E+05   -1.7702290E+00
   2.8722955E-04   1.7113589E+05   -1.7696566E+00
   2.8855600E-04   1.6974640E+05   -1.7690841E+00
   2.8988859E-04   1.6836864E+05   -1.7685113E+00
   2.9122732E-04   1.6700251E+05   -1.7679384E+00
   2.9257224E-04   1.6564790E+05   -1.7673652E+00
   2.9392337E-04   1.6430470E+05   -1.7667919E+00
   2.9528074E-04   1.6297283E+05   -1.7662184E+00
   2.9664438E-04   1.6165219E+05   -1.7656447E+00
   2.9801431E-04   1.6034267E+05   -1.7650709E+00
   2.9939057E-04   1.5904418E+05   -1.7644969E+00
   3.0077319E-04   1.5775662E+05   -1.7639227E+00
   3.0216219E-04   1.5647990E+05   -1.7633484E+00
   3.0355761E-04   1.5521392E+05   -1.7627739E+00
   3.0495947E-04   1.5395859E+05   -1.7621994E+00
   3.0636780E-04   1.5271382E+05   -1.7616246E+00
   3.0778264E-04   1.5147952E+05   -1.7610498E+00
   3.0920401E-04   1.5025559E+05   -1.7604748E+00
   3.1063195E-04   1.4904194E+05   -1.7598998E+00
   3.1206648E-04   1.4783848E+05   -1.7593246E+00
   3.1350764E-04   1.4664514E+05   -1.7587493E+00
   3.1495545E-04   1.4546181E+05   -1.7581740E+00
   3.1640994E-04   1.4428841E+05   -1.7575985E+00
   3.1787116E-04   1.4312486E+05   -1.7570230E+00
   3.1933912E-04   1.4197107E+05   -1.7564474E+00
   3.2081386E-04   1.4082695E+05   -1.7558717E+00
   3.2229541E-04   1.3969242E+05   -1.7552960E+00
   3.2378381E-04   1.3856740E+05   -1.7547202E+00
   3.2527908E-04   1.3745181E+05   -1.7541443E+00
   3.2678125E-04   1.3634556E+05   -1.7535684E+00
   3.2829036E-04   1.3524857E+05   -1.7529925E+00
   3.2980644E-04   1.3416076E+05   -1.7524165E+00
   3.3132952E-04   1.3308206E+05   -1.7518405E+00
   3.3285963E-04   1.3201237E+05   -1.7512645E+00
   3.3439681E-04   1.3095164E+05   -1.7506885E+00
   3.3594109E-04   1.2989977E+05   -1.7501125E+00
   3.3749250E-04   1.2885669E+05   -1.7495364E+00
   3.3905108E-04   1.2782233E+05   -1.7489604E+00
   3.4061685E-04   1.2679661E+05   -1.7483844E+00
   3.4218986E-04   1.2577945E+05   -1.7478084E+00
   3.4377013E-04   1.2477079E+05   -1.7472324E+00
   3.4535769E-04   1.2377054E+05   -1.7466564E+00
   3.4695259E-04   1.2277863E+05   -1.7460805E+00
   3.4855485E-04   1.2179500E+05   -1.7455046E+00
   3.5016452E-04   1.2081957E+05   -1.7449288E+00
   3.5178161E-04   1.1985227E+05   -1.7443530E+00
   3.5340618E-04   1.1889303E+05   -1.7437773E+00
   3.5503824E-04   1.1794177E+05   -1.7432017E+00
   3.5667785E-04   1.1699844E+05   -1.7426261E+00
   3.5832502E-04   1.1606297E+05   -1.7420506E+00
   3.5997981E-04   1.1513527E+05   -1.7414751E+00
   3.6164223E-04   1.1421530E+05   -1.7408998E+00
   3.6331233E-04   1.1330298E+05   -1.7403246E+00
   3.6499015E-04   1.1239824E+05   -1.7397494E+00
   3.6667571E-04   1.1150102E+05   -1.7391744E+00
   3.6836906E-04   1.1061126E+05   -1.7385995E+00
   3.7007022E-04   1.0972888E+05   -1.7380247E+00
   3.7177925E-04   1.0885384E+05   -1.7374501E+00
   3.7349616E-04   1.0798606E+05   -1.7368755E+00
   3.7522101E-04   1.0712548E+05   -1.7363011E+00
   3.7695382E-04   1.0627204E+05   -1.7357269E+00
   3.7869463E-04   1.0542567E+05   -1.7351528E+00
   3.8044348E-04   1.0458633E+05   -1.7345788E+00
   3.8220041E-04   1.0375394E+05   -1.7340050E+00
   3.8396545E-04   1.0292845E+05   -1.7334314E+00
   3.8573864E-04   1.0210980E+05   -1.7328580E+00
   3.8752002E-04   1.0129792E+05   -1.7322847E+00
   3.8930963E-04   1.0049277E+05   -1.7317117E+00
   3.9110750E-04   9.9694275E+04   -1.7311388E+00
   3.9291368E-04   9.8902389E+04   -1.7305661E+00
   3.9472820E-04   9.8117052E+04   -1.7299936E+00
   3.9655109E-04   9.7338208E+04   -1.7294214E+00
   3.9838241E-04   9.6565801E+04   -1.7288493E+00
   4.0022218E-04   9.5799775E+04   -1.7282775E+00
   4.0207045E-04   9.5040077E+04   -1.7277059E+00
   4.0392725E-04   9.4286651E+04   -1.7271345E+00
   4.0579263E-04   9.3539444E+04   -1.7265634E+00
   4.0766662E-04   9.2798403E+04   -1.7259925E+00
   4.0954927E-04   9.2063474E+04   -1.7254219E+00
   4.1144061E-04   9.1334607E+04   -1.7248515E+00
   4.1334068E-04   9.0611747E+04   -1.7242814E+00
   4.1524953E-04   8.9894845E+04   -1.7237115E+00
   4.1716720E-04   8.9183848E+04   -1.7231420E+00
   4.1909372E-04   8.8478707E+04   -1.7225727E+00
   4.2102914E-04   8.7779372E+04   -1.7220037E+00
   4.2297350E-04   8.7085792E+04   -1.7214350E+00
   4.2492683E-04   8.6397919E+04   -1.7208666E+00
   4.2688919E-04   8.5715704E+04   -1.7202985E+00
   4.2886061E-04   8.5039099E+04   -1.7197307E+00
   4.3084113E-04   8.4368055E+04   -1.7191632E+00
   4.3283080E-04   8.3702524E+04   -1.7185961E+00
   4.3482966E-04   8.3042461E+04   -1.7180292E+00
   4.3683775E-04   8.2387818E+04   -1.7174627E+00
   4.3885511E-04   8.1738549E+04   -1.7168966E+00
   4.4088179E-04   8.1094608E+04   -1.7163308E+00
   4.4291783E-04   8.0455950E+04   -1.7157653E+00
   4.4496327E-04   7.9822529E+04   -1.7152002E+00
   4.4701816E-04   7.9194302E+04   -1.7146354E+00
   4.4908253E-04   7.8571223E+04   -1.7140711E+00
   4.5115644E-04   7.7953248E+04   -1.7135071E+00
   4.5323993E-04   7.7340336E+04   -1.7129434E+00
   4.5533304E-04   7.6732442E+04   -1.7123802E+00
   4.5743582E-04   7.6129523E+04   -1.7118173E+00
   4.5954830E-04   7.5531537E+04   -1.7112549E+00
   4.6167054E-04   7.4938443E+04   -1.7106928E+00
   4.6380259E-04   7.4350198E+04   -1.7101312E+00
   4.6594448E-04   7.3766762E+04   -1.7095699E+00
   4.6809626E-04   7.3188093E+04   -1.7090091E+00
   4.7025797E-04   7.2614151E+04   -1.7084487E+00
   4.7242967E-04   7.2044895E+04   -1.7078887E+00
   4.7461140E-04   7.1480287E+04   -1.7073292E+00
   4.7680321E-04   7.0920286E+04   -1.7067701E+00
   4.7900514E-04   7.0364854E+04   -1.7062114E+00
   4.8121723E-04   6.9813952E+04   -1.7056532E+00
   4.8343954E-04   6.9267540E+04   -1.7050955E+00
   4.8567212E-04   6.8725582E+04   -1.7045382E+00
   4.8791500E-04   6.8188039E+04   -1.7039813E+00
   4.9016825E-04   6.7654874E+04   -1.7034250E+00
   4.9243189E-04   6.7126050E+04   -1.7028691E+00
   4.9470600E-04   6.6601530E+04   -1.7023137E+00
   4.9699060E-04   6.6081278E+04   -1.7017588E+00
   4.9928575E-04   6.5565257E+04   -1.7012044E+00
   5.0159151E-04   6.5053432E+04   -1.7006504E+00
   5.0390791E-04   6.4545766E+04   -1.7000970E+00
   5.0623501E-04   6.4042226E+04   -1.6995441E+00
   5.0857286E-04   6.3542776E+04   -1.6989917E+00
   5.1092150E-04   6.3047381E+04   -1.6984398E+00
   5.1328099E-04   6.2556008E+04   -1.6978885E+00
   5.1565137E-04   6.2068622E+04   -1.6973376E+00
   5.1803270E-04   6.1585189E+04   -1.6967873E+00
   5.2042503E-04   6.1105677E+04   -1.6962376E+00
   5.2282841E-04   6.0630051E+04   -1.6956884E+00
   5.2524289E-04   6.0158280E+04   -1.6951397E+00
   5.2766851E-04   5.9690331E+04   -1.6945916E+00
   5.3010534E-04   5.9226171E+04   -1.6940440E+00
   5.3255342E-04   5.8765768E+04   -1.6934970E+00
   5.3501281E-04   5.8309092E+04   -1.6929506E+00
   5.3748356E-04   5.7856110E+04   -1.6924048E+00
   5.3996571E-04   5.7406791E+04   -1.6918595E+00
   5.4245933E-04   5.6961105E+04   -1.6913148E+00
   5.4496446E-04   5.6519020E+04   -1.6907707E+00
   5.4748117E-04   5.6080508E+04   -1.6902272E+00
   5.5000949E-04   5.5645537E+04   -1.6896843E+00
   5.5254949E-04   5.5214077E+04   -1.6891419E+00
   5.5510123E-04   5.4786100E+04   -1.6886002E+00
   5.5766474E-04   5.4361576E+04   -1.6880591E+00
   5.6024010E-04   5.3940476E+04   -1.6875187E+00
   5.6282734E-04   5.3522771E+04   -1.6869788E+00
   5.6542654E-04   5.3108432E+04   -1.6864396E+00
   5.6803774E-04   5.2697432E+04   -1.6859010E+00
   5.7066099E-04   5.2289742E+04   -1.6853630E+00
   5.7329637E-04   5.1885335E+04   -1.6848257E+00
   5.7594391E-04   5.1484183E+04   -1.6842890E+00
   5.7860368E-04   5.1086259E+04   -1.6837530E+00
   5.8127573E-04   5.0691536E+04   -1.6832176E+00
   5.8396012E-04   5.0299986E+04   -1.6826828E+00
   5.8665691E-04   4.9911584E+04   -1.6821488E+00
   5.8936616E-04   4.9526302E+04   -1.6816154E+00
   5.9208791E-04   4.9144116E+04   -1.6810826E+00
   5.9482223E-04   4.8764998E+04   -1.6805506E+00
   5.9756919E-04   4.8388923E+04   -1.6800192E+00
   6.0032882E-04   4.8015866E+04   -1.6794885E+00
   6.0310120E-04   4.7645802E+04   -1.6789585E+00
   6.0588639E-04   4.7278705E+04   -1.6784292E+00
   6.0868443E-04   4.6914551E+04   -1.6779006E+00
   6.1149540E-04   4.6553315E+04   -1.6773727E+00
   6.1431935E-04   4.6194973E+04   -1.6768455E+00
   6.1715634E-04   4.5839501E+04   -1.6763190E+00
   6.2000644E-04   4.5486874E+04   -1.6757932E+00
   6.2286969E-04   4.5137069E+04   -1.6752681E+00
