#        a       HoverH0(a)       dlogHdloga_of_a(a)
   1.0000000E-04   1.0815543E+06   -1.8938393E+00
   1.0046181E-04   1.0721588E+06   -1.8934535E+00
   1.0092575E-04   1.0628469E+06   -1.8930667E+00
   1.0139184E-04   1.0536177E+06   -1.8926788E+00
   1.0186008E-04   1.0444706E+06   -1.8922900E+00
   1.0233048E-04   1.0354047E+06   -1.8919001E+00
   1.0280305E-04   1.0264193E+06   -1.8915092E+00
   1.0327781E-04   1.0175138E+06   -1.8911172E+00
   1.0375475E-04   1.0086873E+06   -1.8907243E+00
   1.0423390E-04   9.9993927E+05   -1.8903303E+00
   1.0471527E-04   9.9126887E+05   -1.8899353E+00
   1.0519885E-04   9.8267544E+05   -1.8895393E+00
   1.0568467E-04   9.7415828E+05   -1.8891423E+00
   1.0617274E-04   9.6571672E+05   -1.8887442E+00
   1.0666305E-04   9.5735007E+05   -1.8883451E+00
   1.0715563E-04   9.4905765E+05   -1.8879450E+00
   1.0765049E-04   9.4083879E+05   -1.8875439E+00
   1.0814763E-04   9.3269284E+05   -1.8871418E+00
   1.0864707E-04   9.2461913E+05   -1.8867387E+00
   1.0914881E-04   9.1661701E+05   -1.8863345E+00
   1.0965287E-04   9.0868584E+05   -1.8859293E+00
   1.1015926E-04   9.0082499E+05   -1.8855231E+00
   1.1066799E-04   8.9303380E+05   -1.8851159E+00
   1.1117906E-04   8.8531167E+05   -1.8847077E+00
   1.1169250E-04   8.7765796E+05   -1.8842984E+00
   1.1220831E-04   8.7007206E+05   -1.8838882E+00
   1.1272650E-04   8.6255336E+05   -1.8834769E+00
   1.1324708E-04   8.5510126E+05   -1.8830646E+00
   1.1377007E-04   8.4771516E+05   -1.8826513E+00
   1.1429547E-04   8.4039445E+05   -1.8822370E+00
   1.1482330E-04   8.3313856E+05   -1.8818217E+00
   1.1535356E-04   8.2594690E+05   -1.8814054E+00
   1.1588628E-04   8.1881889E+05   -1.8809880E+00
   1.1642145E-04   8.1175395E+05   -1.8805697E+00
   1.1695910E-04   8.0475153E+05   -1.8801503E+00
   1.1749923E-04   7.9781105E+05   -1.8797300E+00
   1.1804185E-04   7.9093197E+05   -1.8793086E+00
   1.1858698E-04   7.8411372E+05   -1.8788862E+00
   1.1913463E-04   7.7735577E+05   -1.8784628E+00
   1.1968481E-04   7.7065756E+05   -1.8780385E+00
   1.2023752E-04   7.6401857E+05   -1.8776131E+00
   1.2079279E-04   7.5743825E+05   -1.8771867E+00
   1.2135063E-04   7.5091609E+05   -1.8767593E+00
   1.2191104E-04   7.4445156E+05   -1.8763309E+00
   1.2247403E-04   7.3804414E+05   -1.8759015E+00
   1.2303963E-04   7.3169331E+05   -1.8754711E+00
   1.2360784E-04   7.2539858E+05   -1.8750397E+00
   1.2417868E-04   7.1915942E+05   -1.8746074E+00
   1.2475215E-04   7.1297536E+05   -1.8741740E+00
   1.2532826E-04   7.0684588E+05   -1.8737396E+00
   1.2590704E-04   7.0077050E+05   -1.8733043E+00
   1.2648850E-04   6.9474873E+05   -1.8728679E+00
   1.2707263E-04   6.8878010E+05   -1.8724306E+00
   1.2765947E-04   6.8286412E+05   -1.8719923E+00
   1.2824901E-04   6.7700033E+05   -1.8715530E+00
   1.2884128E-04   6.7118824E+05   -1.8711127E+00
   1.2943628E-04   6.6542741E+05   -1.8706714E+00
   1.3003403E-04   6.5971736E+05   -1.8702291E+00
   1.3063454E-04   6.5405765E+05   -1.8697859E+00
   1.3123783E-04   6.4844781E+05   -1.8693416E+00
   1.3184390E-04   6.4288741E+05   -1.8688964E+00
   1.3245277E-04   6.3737600E+05   -1.8684503E+00
   1.3306445E-04   6.3191313E+05   -1.8680031E+00
   1.3367895E-04   6.2649838E+05   -1.8675550E+00
   1.3429630E-04   6.2113131E+05   -1.8671059E+00
   1.3491649E-04   6.1581150E+05   -1.8666558E+00
   1.3553955E-04   6.1053851E+05   -1.8662048E+00
   1.3616548E-04   6.0531194E+05   -1.8657528E+00
   1.3679431E-04   6.0013136E+05   -1.8652998E+00
   1.3742604E-04   5.9499636E+05   -1.8648458E+00
   1.3806069E-04   5.8990654E+05   -1.8643910E+00
   1.3869827E-04   5.8486148E+05   -1.8639351E+00
   1.3933879E-04   5.7986079E+05   -1.8634783E+00
   1.3998227E-04   5.7490406E+05   -1.8630205E+00
   1.4062872E-04   5.6999091E+05   -1.8625618E+00
   1.4127816E-04   5.6512095E+05   -1.8621021E+00
   1.4193060E-04   5.6029377E+05   -1.8616415E+00
   1.4258605E-04   5.5550902E+05   -1.8611799E+00
   1.4324453E-04   5.5076629E+05   -1.8607173E+00
   1.4390605E-04   5.4606522E+05   -1.8602539E+00
   1.4457062E-04   5.4140544E+05   -1.8597895E+00
   1.4523826E-04   5.3678657E+05   -1.8593241E+00
   1.4590899E-04   5.3220825E+05   -1.8588578E+00
   1.4658281E-04   5.2767011E+05   -1.8583906E+00
   1.4725974E-04   5.2317179E+05   -1.8579224E+00
   1.4793981E-04   5.1871295E+05   -1.8574533E+00
   1.4862301E-04   5.1429321E+05   -1.8569833E+00
   1.4930936E-04   5.0991224E+05   -1.8565123E+00
   1.4999889E-04   5.0556969E+05   -1.8560404E+00
   1.5069160E-04   5.0126521E+05   -1.8555676E+00
   1.5138751E-04   4.9699846E+05   -1.8550939E+00
   1.5208663E-04   4.9276911E+05   -1.8546193E+00
   1.5278899E-04   4.8857682E+05   -1.8541437E+00
   1.5349458E-04   4.8442126E+05   -1.8536672E+00
   1.5420343E-04   4.8030209E+05   -1.8531898E+00
   1.5491556E-04   4.7621901E+05   -1.8527115E+00
   1.5563098E-04   4.7217167E+05   -1.8522323E+00
   1.5634970E-04   4.6815977E+05   -1.8517522E+00
   1.5707174E-04   4.6418298E+05   -1.8512712E+00
   1.5779711E-04   4.6024100E+05   -1.8507893E+00
   1.5852584E-04   4.5633350E+05   -1.8503065E+00
   1.5925792E-04   4.5246019E+05   -1.8498228E+00
   1.5999339E-04   4.4862076E+05   -1.8493382E+00
   1.6073226E-04   4.4481489E+05   -1.8488527E+00
   1.6147454E-04   4.4104231E+05   -1.8483664E+00
   1.6222024E-04   4.3730270E+05   -1.8478791E+00
   1.6296939E-04   4.3359577E+05   -1.8473910E+00
   1.6372200E-04   4.2992124E+05   -1.8469020E+00
   1.6447809E-04   4.2627880E+05   -1.8464121E+00
   1.6523767E-04   4.2266818E+05   -1.8459214E+00
   1.6600075E-04   4.1908909E+05   -1.8454298E+00
   1.6676736E-04   4.1554125E+05   -1.8449373E+00
   1.6753751E-04   4.1202438E+05   -1.8444439E+00
   1.6831122E-04   4.0853821E+05   -1.8439497E+00
   1.6908849E-04   4.0508245E+05   -1.8434547E+00
   1.6986936E-04   4.0165684E+05   -1.8429588E+00
   1.7065384E-04   3.9826112E+05   -1.8424620E+00
   1.7144193E-04   3.9489500E+05   -1.8419644E+00
   1.7223367E-04   3.9155824E+05   -1.8414659E+00
   1.7302906E-04   3.8825056E+05   -1.8409666E+00
   1.7382813E-04   3.8497171E+05   -1.8404665E+00
   1.7463089E-04   3.8172143E+05   -1.8399655E+00
   1.7543735E-04   3.7849947E+05   -1.8394637E+00
   1.7624754E-04   3.7530557E+05   -1.8389611E+00
   1.7706147E-04   3.7213948E+05   -1.8384576E+00
   1.7787916E-04   3.6900096E+05   -1.8379534E+00
   1.7870062E-04   3.6588976E+05   -1.8374483E+00
   1.7952588E-04   3.6280564E+05   -1.8369423E+00
   1.8035495E-04   3.5974835E+05   -1.8364356E+00
   1.8118785E-04   3.5671766E+05   -1.8359281E+00
   1.8202459E-04   3.5371333E+05   -1.8354198E+00
   1.8286520E-04   3.5073512E+05   -1.8349106E+00
   1.8370969E-04   3.4778281E+05   -1.8344007E+00
   1.8455808E-04   3.4485616E+05   -1.8338900E+00
   1.8541039E-04   3.4195494E+05   -1.8333784E+00
   1.8626663E-04   3.3907893E+05   -1.8328661E+00
   1.8712683E-04   3.3622791E+05   -1.8323530E+00
   1.8799100E-04   3.3340164E+05   -1.8318392E+00
   1.8885917E-04   3.3059991E+05   -1.8313245E+00
   1.8973134E-04   3.2782251E+05   -1.8308091E+00
   1.9060754E-04   3.2506921E+05   -1.8302929E+00
   1.9148778E-04   3.2233980E+05   -1.8297760E+00
   1.9237209E-04   3.1963407E+05   -1.8292583E+00
   1.9326049E-04   3.1695181E+05   -1.8287398E+00
   1.9415299E-04   3.1429281E+05   -1.8282206E+00
   1.9504960E-04   3.1165687E+05   -1.8277006E+00
   1.9595036E-04   3.0904377E+05   -1.8271799E+00
   1.9685528E-04   3.0645332E+05   -1.8266584E+00
   1.9776438E-04   3.0388531E+05   -1.8261362E+00
   1.9867768E-04   3.0133955E+05   -1.8256133E+00
   1.9959519E-04   2.9881583E+05   -1.8250896E+00
   2.0051694E-04   2.9631396E+05   -1.8245653E+00
   2.0144295E-04   2.9383376E+05   -1.8240401E+00
   2.0237324E-04   2.9137501E+05   -1.8235143E+00
   2.0330782E-04   2.8893755E+05   -1.8229878E+00
   2.0424671E-04   2.8652117E+05   -1.8224605E+00
   2.0518995E-04   2.8412568E+05   -1.8219326E+00
   2.0613754E-04   2.8175091E+05   -1.8214039E+00
   2.0708950E-04   2.7939667E+05   -1.8208746E+00
   2.0804586E-04   2.7706278E+05   -1.8203445E+00
   2.0900664E-04   2.7474906E+05   -1.8198138E+00
   2.0997185E-04   2.7245532E+05   -1.8192824E+00
   2.1094152E-04   2.7018140E+05   -1.8187503E+00
   2.1191567E-04   2.6792711E+05   -1.8182176E+00
   2.1289432E-04   2.6569228E+05   -1.8176841E+00
   2.1387749E-04   2.6347674E+05   -1.8171500E+00
   2.1486520E-04   2.6128032E+05   -1.8166152E+00
   2.1585747E-04   2.5910285E+05   -1.8160798E+00
   2.1685432E-04   2.5694416E+05   -1.8155437E+00
   2.1785578E-04   2.5480408E+05   -1.8150070E+00
   2.1886186E-04   2.5268245E+05   -1.8144697E+00
   2.1987259E-04   2.5057912E+05   -1.8139316E+00
   2.2088798E-04   2.4849390E+05   -1.8133930E+00
   2.2190807E-04   2.4642665E+05   -1.8128537E+00
   2.2293286E-04   2.4437720E+05   -1.8123138E+00
   2.2396239E-04   2.4234541E+05   -1.8117733E+00
   2.2499667E-04   2.4033110E+05   -1.8112322E+00
   2.2603573E-04   2.3833413E+05   -1.8106904E+00
   2.2707958E-04   2.3635434E+05   -1.8101481E+00
   2.2812826E-04   2.3439159E+05   -1.8096051E+00
   2.2918178E-04   2.3244572E+05   -1.8090616E+00
   2.3024017E-04   2.3051658E+05   -1.8085174E+00
   2.3130344E-04   2.2860402E+05   -1.8079727E+00
   2.3237162E-04   2.2670790E+05   -1.8074274E+00
   2.3344474E-04   2.2482807E+05   -1.8068815E+00
   2.3452281E-04   2.2296439E+05   -1.8063350E+00
   2.3560586E-04   2.2111672E+05   -1.8057880E+00
   2.3669392E-04   2.1928491E+05   -1.8052404E+00
   2.3778699E-04   2.1746882E+05   -1.8046923E+00
   2.3888512E-04   2.1566833E+05   -1.8041435E+00
   2.3998831E-04   2.1388327E+05   -1.8035943E+00
   2.4109661E-04   2.1211353E+05   -1.8030445E+00
   2.4221001E-04   2.1035897E+05   -1.8024942E+00
   2.4332857E-04   2.0861945E+05   -1.8019433E+00
   2.4445228E-04   2.0689484E+05   -1.8013919E+00
   2.4558119E-04   2.0518501E+05   -1.8008400E+00
   2.4671531E-04   2.0348982E+05   -1.8002875E+00
   2.4785467E-04   2.0180916E+05   -1.7997346E+00
   2.4899928E-04   2.0014289E+05   -1.7991811E+00
   2.5014919E-04   1.9849088E+05   -1.7986271E+00
   2.5130440E-04   1.9685301E+05   -1.7980727E+00
   2.5246495E-04   1.9522915E+05   -1.7975177E+00
   2.5363086E-04   1.9361918E+05   -1.7969623E+00
   2.5480216E-04   1.9202299E+05   -1.7964064E+00
   2.5597886E-04   1.9044043E+05   -1.7958500E+00
   2.5716100E-04   1.8887141E+05   -1.7952931E+00
   2.5834859E-04   1.8731579E+05   -1.7947358E+00
   2.5954168E-04   1.8577347E+05   -1.7941780E+00
   2.6074027E-04   1.8424431E+05   -1.7936197E+00
   2.6194439E-04   1.8272822E+05   -1.7930610E+00
   2.6315408E-04   1.8122506E+05   -1.7925019E+00
   2.6436935E-04   1.7973474E+05   -1.7919423E+00
   2.6559024E-04   1.7825713E+05   -1.7913823E+00
   2.6681676E-04   1.7679212E+05   -1.7908219E+00
   2.6804895E-04   1.7533961E+05   -1.7902610E+00
   2.6928683E-04   1.7389948E+05   -1.7896997E+00
   2.7053042E-04   1.7247163E+05   -1.7891380E+00
   2.7177976E-04   1.7105594E+05   -1.7885759E+00
   2.7303487E-04   1.6965231E+05   -1.7880134E+00
   2.7429577E-04   1.6826064E+05   -1.7874506E+00
   2.7556250E-04   1.6688081E+05   -1.7868873E+00
   2.7683507E-04   1.6551273E+05   -1.7863236E+00
   2.7811353E-04   1.6415629E+05   -1.7857596E+00
   2.7939788E-04   1.6281139E+05   -1.7851952E+00
   2.8068817E-04   1.6147793E+05   -1.7846304E+00
   2.8198442E-04   1.6015581E+05   -1.7840652E+00
   2.8328665E-04   1.5884493E+05   -1.7834997E+00
   2.8459490E-04   1.5754518E+05   -1.7829339E+00
   2.8590919E-04   1.5625648E+05   -1.7823677E+00
   2.8722955E-04   1.5497873E+05   -1.7818012E+00
   2.8855600E-04   1.5371182E+05   -1.7812343E+00
   2.8988859E-04   1.5245567E+05   -1.7806671E+00
   2.9122732E-04   1.5121018E+05   -1.7800996E+00
   2.9257224E-04   1.4997526E+05   -1.7795318E+00
   2.9392337E-04   1.4875082E+05   -1.7789636E+00
   2.9528074E-04   1.4753675E+05   -1.7783952E+00
   2.9664438E-04   1.4633298E+05   -1.7778264E+00
   2.9801431E-04   1.4513941E+05   -1.7772574E+00
   2.9939057E-04   1.4395595E+05   -1.7766881E+00
   3.0077319E-04   1.4278252E+05   -1.7761185E+00
   3.0216219E-04   1.4161903E+05   -1.7755486E+00
   3.0355761E-04   1.4046538E+05   -1.7749785E+00
   3.0495947E-04   1.3932150E+05   -1.7744081E+00
   3.0636780E-04   1.3818730E+05   -1.7738374E+00
   3.0778264E-04   1.3706269E+05   -1.7732665E+00
   3.0920401E-04   1.3594759E+05   -1.7726953E+00
   3.1063195E-04   1.3484192E+05   -1.7721239E+00
   3.1206648E-04   1.3374559E+05   -1.7715523E+00
   3.1350764E-04   1.3265852E+05   -1.7709804E+00
   3.1495545E-04   1.3158064E+05   -1.7704083E+00
   3.1640994E-04   1.3051186E+05   -1.7698360E+00
   3.1787116E-04   1.2945210E+05   -1.7692635E+00
   3.1933912E-04   1.2840129E+05   -1.7686908E+00
   3.2081386E-04   1.2735934E+05   -1.7681179E+00
   3.2229541E-04   1.2632618E+05   -1.7675448E+00
   3.2378381E-04   1.2530174E+05   -1.7669715E+00
   3.2527908E-04   1.2428593E+05   -1.7663981E+00
   3.2678125E-04   1.2327868E+05   -1.7658244E+00
   3.2829036E-04   1.2227991E+05   -1.7652506E+00
   3.2980644E-04   1.2128956E+05   -1.7646766E+00
   3.3132952E-04   1.2030755E+05   -1.7641025E+00
   3.3285963E-04   1.1933381E+05   -1.7635282E+00
   3.3439681E-04   1.1836826E+05   -1.7629538E+00
   3.3594109E-04   1.1741083E+05   -1.7623792E+00
   3.3749250E-04   1.1646145E+05   -1.7618045E+00
   3.3905108E-04   1.1552006E+05   -1.7612297E+00
   3.4061685E-04   1.1458658E+05   -1.7606548E+00
   3.4218986E-04   1.1366095E+05   -1.7600797E+00
   3.4377013E-04   1.1274309E+05   -1.7595046E+00
   3.4535769E-04   1.1183294E+05   -1.7589293E+00
   3.4695259E-04   1.1093043E+05   -1.7583540E+00
   3.4855485E-04   1.1003549E+05   -1.7577785E+00
   3.5016452E-04   1.0914807E+05   -1.7572030E+00
   3.5178161E-04   1.0826809E+05   -1.7566274E+00
   3.5340618E-04   1.0739549E+05   -1.7560517E+00
   3.5503824E-04   1.0653020E+05   -1.7554759E+00
   3.5667785E-04   1.0567217E+05   -1.7549001E+00
   3.5832502E-04   1.0482132E+05   -1.7543243E+00
   3.5997981E-04   1.0397760E+05   -1.7537484E+00
   3.6164223E-04   1.0314095E+05   -1.7531724E+00
   3.6331233E-04   1.0231130E+05   -1.7525965E+00
   3.6499015E-04   1.0148859E+05   -1.7520205E+00
   3.6667571E-04   1.0067277E+05   -1.7514444E+00
   3.6836906E-04   9.9863770E+04   -1.7508684E+00
   3.7007022E-04   9.9061533E+04   -1.7502923E+00
   3.7177925E-04   9.8266001E+04   -1.7497163E+00
   3.7349616E-04   9.7477117E+04   -1.7491402E+00
   3.7522101E-04   9.6694823E+04   -1.7485642E+00
   3.7695382E-04   9.5919061E+04   -1.7479882E+00
   3.7869463E-04   9.5149776E+04   -1.7474121E+00
   3.8044348E-04   9.4386912E+04   -1.7468362E+00
   3.8220041E-04   9.3630412E+04   -1.7462602E+00
   3.8396545E-04   9.2880221E+04   -1.7456843E+00
   3.8573864E-04   9.2136286E+04   -1.7451084E+00
   3.8752002E-04   9.1398552E+04   -1.7445326E+00
   3.8930963E-04   9.0666966E+04   -1.7439568E+00
   3.9110750E-04   8.9941474E+04   -1.7433811E+00
   3.9291368E-04   8.9222024E+04   -1.7428055E+00
   3.9472820E-04   8.8508563E+04   -1.7422300E+00
   3.9655109E-04   8.7801040E+04   -1.7416545E+00
   3.9838241E-04   8.7099404E+04   -1.7410791E+00
   4.0022218E-04   8.6403605E+04   -1.7405038E+00
   4.0207045E-04   8.5713590E+04   -1.7399286E+00
   4.0392725E-04   8.5029312E+04   -1.7393535E+00
   4.0579263E-04   8.4350720E+04   -1.7387786E+00
   4.0766662E-04   8.3677765E+04   -1.7382037E+00
   4.0954927E-04   8.3010399E+04   -1.7376290E+00
   4.1144061E-04   8.2348573E+04   -1.7370544E+00
   4.1334068E-04   8.1692241E+04   -1.7364799E+00
   4.1524953E-04   8.1041354E+04   -1.7359056E+00
   4.1716720E-04   8.0395865E+04   -1.7353314E+00
   4.1909372E-04   7.9755729E+04   -1.7347574E+00
   4.2102914E-04   7.9120898E+04   -1.7341835E+00
   4.2297350E-04   7.8491329E+04   -1.7336099E+00
   4.2492683E-04   7.7866975E+04   -1.7330363E+00
   4.2688919E-04   7.7247791E+04   -1.7324630E+00
   4.2886061E-04   7.6633733E+04   -1.7318898E+00
   4.3084113E-04   7.6024758E+04   -1.7313169E+00
   4.3283080E-04   7.5420820E+04   -1.7307441E+00
   4.3482966E-04   7.4821878E+04   -1.7301715E+00
   4.3683775E-04   7.4227888E+04   -1.7295992E+00
   4.3885511E-04   7.3638808E+04   -1.7290270E+00
   4.4088179E-04   7.3054595E+04   -1.7284551E+00
   4.4291783E-04   7.2475208E+04   -1.7278834E+00
   4.4496327E-04   7.1900605E+04   -1.7273119E+00
   4.4701816E-04   7.1330746E+04   -1.7267407E+00
   4.4908253E-04   7.0765589E+04   -1.7261697E+00
   4.5115644E-04   7.0205095E+04   -1.7255990E+00
   4.5323993E-04   6.9649223E+04   -1.7250285E+00
   4.5533304E-04   6.9097935E+04   -1.7244583E+00
   4.5743582E-04   6.8551189E+04   -1.7238883E+00
   4.5954830E-04   6.8008949E+04   -1.7233186E+00
   4.6167054E-04   6.7471175E+04   -1.7227492E+00
   4.6380259E-04   6.6937829E+04   -1.7221801E+00
   4.6594448E-04   6.6408872E+04   -1.7216113E+00
   4.6809626E-04   6.5884269E+04   -1.7210427E+00
   4.7025797E-04   6.5363980E+04   -1.7204745E+00
   4.7242967E-04   6.4847970E+04   -1.7199066E+00
   4.7461140E-04   6.4336202E+04   -1.7193390E+00
   4.7680321E-04   6.3828640E+04   -1.7187717E+00
   4.7900514E-04   6.3325247E+04   -1.7182047E+00
   4.8121723E-04   6.2825989E+04   -1.7176381E+00
   4.8343954E-04   6.2330829E+04   -1.7170718E+00
   4.8567212E-04   6.1839734E+04   -1.7165059E+00
   4.8791500E-04   6.1352667E+04   -1.7159403E+00
   4.9016825E-04   6.0869596E+04   -1.7153750E+00
   4.9243189E-04   6.0390485E+04   -1.7148101E+00
   4.9470600E-04   5.9915301E+04   -1.7142456E+00
   4.9699060E-04   5.9444011E+04   -1.7136814E+00
   4.9928575E-04   5.8976581E+04   -1.7131177E+00
   5.0159151E-04   5.8512978E+04   -1.7125543E+00
   5.0390791E-04   5.8053171E+04   -1.7119912E+00
   5.0623501E-04   5.7597126E+04   -1.7114286E+00
   5.0857286E-04   5.7144812E+04   -1.7108664E+00
   5.1092150E-04   5.6696196E+04   -1.7103046E+00
   5.1328099E-04   5.6251248E+04   -1.7097432E+00
   5.1565137E-04   5.5809937E+04   -1.7091822E+00
   5.1803270E-04   5.5372230E+04   -1.7086216E+00
   5.2042503E-04   5.4938099E+04   -1.7080615E+00
   5.2282841E-04   5.4507511E+04   -1.7075018E+00
   5.2524289E-04   5.4080438E+04   -1.7069425E+00
   5.2766851E-04   5.3656849E+04   -1.7063837E+00
   5.3010534E-04   5.3236715E+04   -1.7058253E+00
   5.3255342E-04   5.2820007E+04   -1.7052674E+00
   5.3501281E-04   5.2406695E+04   -1.7047099E+00
   5.3748356E-04   5.1996750E+04   -1.7041529E+00
   5.3996571E-04   5.1590145E+04   -1.7035963E+00
   5.4245933E-04   5.1186850E+04   -1.7030403E+00
   5.4496446E-04   5.0786838E+04   -1.7024847E+00
   5.4748117E-04   5.0390082E+04   -1.7019296E+00
   5.5000949E-04   4.9996552E+04   -1.7013750E+00
   5.5254949E-04   4.9606223E+04   -1.7008209E+00
   5.5510123E-04   4.9219066E+04   -1.7002673E+00
   5.5766474E-04   4.8835056E+04   -1.6997141E+00
   5.6024010E-04   4.8454165E+04   -1.6991615E+00
   5.6282734E-04   4.8076367E+04   -1.6986095E+00
   5.6542654E-04   4.7701636E+04   -1.6980579E+00
   5.6803774E-04   4.7329946E+04   -1.6975069E+00
   5.7066099E-04   4.6961271E+04   -1.6969564E+00
   5.7329637E-04   4.6595587E+04   -1.6964064E+00
   5.7594391E-04   4.6232867E+04   -1.6958570E+00
   5.7860368E-04   4.5873087E+04   -1.6953081E+00
   5.8127573E-04   4.5516222E+04   -1.6947598E+00
   5.8396012E-04   4.5162246E+04   -1.6942120E+00
   5.8665691E-04   4.4811137E+04   -1.6936648E+00
   5.8936616E-04   4.4462870E+04   -1.6931182E+00
   5.9208791E-04   4.4117420E+04   -1.6925721E+00
   5.9482223E-04   4.3774764E+04   -1.6920266E+00
   5.9756919E-04   4.3434879E+04   -1.6914817E+00
   6.0032882E-04   4.3097740E+04   -1.6909373E+00
   6.0310120E-04   4.2763326E+04   -1.6903936E+00
   6.0588639E-04   4.2431613E+04   -1.6898505E+00
   6.0868443E-04   4.2102578E+04   -1.6893079E+00
   6.1149540E-04   4.1776200E+04   -1.6887660E+00
   6.1431935E-04   4.1452454E+04   -1.6882247E+00
   6.1715634E-04   4.1131321E+04   -1.6876839E+00
   6.2000644E-04   4.0812776E+04   -1.6871439E+00
   6.2286969E-04   4.0496800E+04   -1.6866044E+00
