#        a       HoverH0(a)       dlogHdloga_of_a(a)
   1.0000000E-04   1.0761045E+06   -1.8492012E+00
   1.0046181E-04   1.0669761E+06   -1.8487155E+00
   1.0092575E-04   1.0579274E+06   -1.8482289E+00
   1.0139184E-04   1.0489579E+06   -1.8477415E+00
   1.0186008E-04   1.0400668E+06   -1.8472531E+00
   1.0233048E-04   1.0312533E+06   -1.8467639E+00
   1.0280305E-04   1.0225168E+06   -1.8462738E+00
   1.0327781E-04   1.0138567E+06   -1.8457828E+00
   1.0375475E-04   1.0052721E+06   -1.8452910E+00
   1.0423390E-04   9.9676255E+05   -1.8447983E+00
   1.0471527E-04   9.8832724E+05   -1.8443047E+00
   1.0519885E-04   9.7996554E+05   -1.8438103E+00
   1.0568467E-04   9.7167680E+05   -1.8433150E+00
   1.0617274E-04   9.6346037E+05   -1.8428189E+00
   1.0666305E-04   9.5531560E+05   -1.8423219E+00
   1.0715563E-04   9.4724186E+05   -1.8418241E+00
   1.0765049E-04   9.3923851E+05   -1.8413254E+00
   1.0814763E-04   9.3130492E+05   -1.8408259E+00
   1.0864707E-04   9.2344047E+05   -1.8403255E+00
   1.0914881E-04   9.1564455E+05   -1.8398243E+00
   1.0965287E-04   9.0791654E+05   -1.8393223E+00
   1.1015926E-04   9.0025583E+05   -1.8388195E+00
   1.1066799E-04   8.9266184E+05   -1.8383158E+00
   1.1117906E-04   8.8513396E+05   -1.8378113E+00
   1.1169250E-04   8.7767160E+05   -1.8373060E+00
   1.1220831E-04   8.7027419E+05   -1.8367999E+00
   1.1272650E-04   8.6294113E+05   -1.8362930E+00
   1.1324708E-04   8.5567187E+05   -1.8357853E+00
   1.1377007E-04   8.4846583E+05   -1.8352767E+00
   1.1429547E-04   8.4132245E+05   -1.8347674E+00
   1.1482330E-04   8.3424117E+05   -1.8342573E+00
   1.1535356E-04   8.2722144E+05   -1.8337463E+00
   1.1588628E-04   8.2026270E+05   -1.8332346E+00
   1.1642145E-04   8.1336443E+05   -1.8327221E+00
   1.1695910E-04   8.0652607E+05   -1.8322088E+00
   1.1749923E-04   7.9974710E+05   -1.8316948E+00
   1.1804185E-04   7.9302699E+05   -1.8311799E+00
   1.1858698E-04   7.8636521E+05   -1.8306643E+00
   1.1913463E-04   7.7976124E+05   -1.8301479E+00
   1.1968481E-04   7.7321458E+05   -1.8296308E+00
   1.2023752E-04   7.6672471E+05   -1.8291129E+00
   1.2079279E-04   7.6029113E+05   -1.8285943E+00
   1.2135063E-04   7.5391334E+05   -1.8280748E+00
   1.2191104E-04   7.4759084E+05   -1.8275547E+00
   1.2247403E-04   7.4132313E+05   -1.8270338E+00
   1.2303963E-04   7.3510974E+05   -1.8265122E+00
   1.2360784E-04   7.2895018E+05   -1.8259898E+00
   1.2417868E-04   7.2284398E+05   -1.8254667E+00
   1.2475215E-04   7.1679065E+05   -1.8249428E+00
   1.2532826E-04   7.1078973E+05   -1.8244183E+00
   1.2590704E-04   7.0484075E+05   -1.8238930E+00
   1.2648850E-04   6.9894326E+05   -1.8233670E+00
   1.2707263E-04   6.9309679E+05   -1.8228403E+00
   1.2765947E-04   6.8730090E+05   -1.8223129E+00
   1.2824901E-04   6.8155513E+05   -1.8217848E+00
   1.2884128E-04   6.7585904E+05   -1.8212560E+00
   1.2943628E-04   6.7021220E+05   -1.8207264E+00
   1.3003403E-04   6.6461415E+05   -1.8201962E+00
   1.3063454E-04   6.5906447E+05   -1.8196654E+00
   1.3123783E-04   6.5356273E+05   -1.8191338E+00
   1.3184390E-04   6.4810851E+05   -1.8186015E+00
   1.3245277E-04   6.4270139E+05   -1.8180686E+00
   1.3306445E-04   6.3734094E+05   -1.8175350E+00
   1.3367895E-04   6.3202675E+05   -1.8170008E+00
   1.3429630E-04   6.2675842E+05   -1.8164658E+00
   1.3491649E-04   6.2153553E+05   -1.8159303E+00
   1.3553955E-04   6.1635769E+05   -1.8153940E+00
   1.3616548E-04   6.1122450E+05   -1.8148572E+00
   1.3679431E-04   6.0613556E+05   -1.8143197E+00
   1.3742604E-04   6.0109047E+05   -1.8137815E+00
   1.3806069E-04   5.9608886E+05   -1.8132427E+00
   1.3869827E-04   5.9113034E+05   -1.8127033E+00
   1.3933879E-04   5.8621451E+05   -1.8121633E+00
   1.3998227E-04   5.8134102E+05   -1.8116226E+00
   1.4062872E-04   5.7650948E+05   -1.8110813E+00
   1.4127816E-04   5.7171952E+05   -1.8105395E+00
   1.4193060E-04   5.6697077E+05   -1.8099970E+00
   1.4258605E-04   5.6226288E+05   -1.8094539E+00
   1.4324453E-04   5.5759547E+05   -1.8089102E+00
   1.4390605E-04   5.5296819E+05   -1.8083659E+00
   1.4457062E-04   5.4838069E+05   -1.8078211E+00
   1.4523826E-04   5.4383261E+05   -1.8072756E+00
   1.4590899E-04   5.3932361E+05   -1.8067296E+00
   1.4658281E-04   5.3485334E+05   -1.8061830E+00
   1.4725974E-04   5.3042146E+05   -1.8056359E+00
   1.4793981E-04   5.2602763E+05   -1.8050882E+00
   1.4862301E-04   5.2167152E+05   -1.8045399E+00
   1.4930936E-04   5.1735278E+05   -1.8039911E+00
   1.4999889E-04   5.1307110E+05   -1.8034417E+00
   1.5069160E-04   5.0882614E+05   -1.8028918E+00
   1.5138751E-04   5.0461758E+05   -1.8023414E+00
   1.5208663E-04   5.0044510E+05   -1.8017904E+00
   1.5278899E-04   4.9630838E+05   -1.8012389E+00
   1.5349458E-04   4.9220711E+05   -1.8006868E+00
   1.5420343E-04   4.8814097E+05   -1.8001343E+00
   1.5491556E-04   4.8410965E+05   -1.7995813E+00
   1.5563098E-04   4.8011286E+05   -1.7990277E+00
   1.5634970E-04   4.7615027E+05   -1.7984736E+00
   1.5707174E-04   4.7222159E+05   -1.7979191E+00
   1.5779711E-04   4.6832653E+05   -1.7973640E+00
   1.5852584E-04   4.6446478E+05   -1.7968085E+00
   1.5925792E-04   4.6063606E+05   -1.7962525E+00
   1.5999339E-04   4.5684007E+05   -1.7956960E+00
   1.6073226E-04   4.5307652E+05   -1.7951391E+00
   1.6147454E-04   4.4934513E+05   -1.7945816E+00
   1.6222024E-04   4.4564561E+05   -1.7940238E+00
   1.6296939E-04   4.4197769E+05   -1.7934654E+00
   1.6372200E-04   4.3834109E+05   -1.7929067E+00
   1.6447809E-04   4.3473553E+05   -1.7923474E+00
   1.6523767E-04   4.3116074E+05   -1.7917878E+00
   1.6600075E-04   4.2761645E+05   -1.7912277E+00
   1.6676736E-04   4.2410239E+05   -1.7906672E+00
   1.6753751E-04   4.2061829E+05   -1.7901063E+00
   1.6831122E-04   4.1716389E+05   -1.7895449E+00
   1.6908849E-04   4.1373894E+05   -1.7889831E+00
   1.6986936E-04   4.1034316E+05   -1.7884210E+00
   1.7065384E-04   4.0697631E+05   -1.7878584E+00
   1.7144193E-04   4.0363813E+05   -1.7872955E+00
   1.7223367E-04   4.0032837E+05   -1.7867321E+00
   1.7302906E-04   3.9704678E+05   -1.7861684E+00
   1.7382813E-04   3.9379312E+05   -1.7856043E+00
   1.7463089E-04   3.9056713E+05   -1.7850398E+00
   1.7543735E-04   3.8736858E+05   -1.7844750E+00
   1.7624754E-04   3.8419723E+05   -1.7839098E+00
   1.7706147E-04   3.8105283E+05   -1.7833443E+00
   1.7787916E-04   3.7793514E+05   -1.7827784E+00
   1.7870062E-04   3.7484395E+05   -1.7822121E+00
   1.7952588E-04   3.7177901E+05   -1.7816456E+00
   1.8035495E-04   3.6874009E+05   -1.7810787E+00
   1.8118785E-04   3.6572697E+05   -1.7805114E+00
   1.8202459E-04   3.6273942E+05   -1.7799439E+00
   1.8286520E-04   3.5977721E+05   -1.7793760E+00
   1.8370969E-04   3.5684013E+05   -1.7788079E+00
   1.8455808E-04   3.5392795E+05   -1.7782394E+00
   1.8541039E-04   3.5104046E+05   -1.7776706E+00
   1.8626663E-04   3.4817743E+05   -1.7771016E+00
   1.8712683E-04   3.4533867E+05   -1.7765322E+00
   1.8799100E-04   3.4252394E+05   -1.7759626E+00
   1.8885917E-04   3.3973306E+05   -1.7753927E+00
   1.8973134E-04   3.3696579E+05   -1.7748226E+00
   1.9060754E-04   3.3422195E+05   -1.7742521E+00
   1.9148778E-04   3.3150131E+05   -1.7736815E+00
   1.9237209E-04   3.2880369E+05   -1.7731105E+00
   1.9326049E-04   3.2612888E+05   -1.7725394E+00
   1.9415299E-04   3.2347668E+05   -1.7719680E+00
   1.9504960E-04   3.2084690E+05   -1.7713963E+00
   1.9595036E-04   3.1823933E+05   -1.7708245E+00
   1.9685528E-04   3.1565379E+05   -1.7702524E+00
   1.9776438E-04   3.1309008E+05   -1.7696801E+00
   1.9867768E-04   3.1054801E+05   -1.7691076E+00
   1.9959519E-04   3.0802739E+05   -1.7685349E+00
   2.0051694E-04   3.0552804E+05   -1.7679620E+00
   2.0144295E-04   3.0304976E+05   -1.7673889E+00
   2.0237324E-04   3.0059239E+05   -1.7668156E+00
   2.0330782E-04   2.9815572E+05   -1.7662421E+00
   2.0424671E-04   2.9573959E+05   -1.7656685E+00
   2.0518995E-04   2.9334382E+05   -1.7650947E+00
   2.0613754E-04   2.9096822E+05   -1.7645207E+00
   2.0708950E-04   2.8861263E+05   -1.7639466E+00
   2.0804586E-04   2.8627686E+05   -1.7633724E+00
   2.0900664E-04   2.8396075E+05   -1.7627980E+00
   2.0997185E-04   2.8166412E+05   -1.7622235E+00
   2.1094152E-04   2.7938681E+05   -1.7616488E+00
   2.1191567E-04   2.7712864E+05   -1.7610740E+00
   2.1289432E-04   2.7488945E+05   -1.7604991E+00
   2.1387749E-04   2.7266908E+05   -1.7599241E+00
   2.1486520E-04   2.7046736E+05   -1.7593490E+00
   2.1585747E-04   2.6828412E+05   -1.7587737E+00
   2.1685432E-04   2.6611922E+05   -1.7581984E+00
   2.1785578E-04   2.6397248E+05   -1.7576230E+00
   2.1886186E-04   2.6184376E+05   -1.7570475E+00
   2.1987259E-04   2.5973289E+05   -1.7564720E+00
   2.2088798E-04   2.5763973E+05   -1.7558964E+00
   2.2190807E-04   2.5556411E+05   -1.7553207E+00
   2.2293286E-04   2.5350588E+05   -1.7547449E+00
   2.2396239E-04   2.5146490E+05   -1.7541691E+00
   2.2499667E-04   2.4944101E+05   -1.7535933E+00
   2.2603573E-04   2.4743406E+05   -1.7530174E+00
   2.2707958E-04   2.4544392E+05   -1.7524415E+00
   2.2812826E-04   2.4347042E+05   -1.7518656E+00
   2.2918178E-04   2.4151344E+05   -1.7512896E+00
   2.3024017E-04   2.3957282E+05   -1.7507136E+00
   2.3130344E-04   2.3764843E+05   -1.7501376E+00
   2.3237162E-04   2.3574012E+05   -1.7495617E+00
   2.3344474E-04   2.3384775E+05   -1.7489857E+00
   2.3452281E-04   2.3197119E+05   -1.7484097E+00
   2.3560586E-04   2.3011030E+05   -1.7478338E+00
   2.3669392E-04   2.2826494E+05   -1.7472578E+00
   2.3778699E-04   2.2643499E+05   -1.7466819E+00
   2.3888512E-04   2.2462030E+05   -1.7461061E+00
   2.3998831E-04   2.2282074E+05   -1.7455303E+00
   2.4109661E-04   2.2103619E+05   -1.7449545E+00
   2.4221001E-04   2.1926651E+05   -1.7443788E+00
   2.4332857E-04   2.1751158E+05   -1.7438031E+00
   2.4445228E-04   2.1577126E+05   -1.7432275E+00
   2.4558119E-04   2.1404544E+05   -1.7426520E+00
   2.4671531E-04   2.1233398E+05   -1.7420765E+00
   2.4785467E-04   2.1063677E+05   -1.7415012E+00
   2.4899928E-04   2.0895368E+05   -1.7409259E+00
   2.5014919E-04   2.0728458E+05   -1.7403507E+00
   2.5130440E-04   2.0562937E+05   -1.7397756E+00
   2.5246495E-04   2.0398791E+05   -1.7392006E+00
   2.5363086E-04   2.0236008E+05   -1.7386258E+00
   2.5480216E-04   2.0074579E+05   -1.7380511E+00
   2.5597886E-04   1.9914489E+05   -1.7374764E+00
   2.5716100E-04   1.9755729E+05   -1.7369020E+00
   2.5834859E-04   1.9598286E+05   -1.7363276E+00
   2.5954168E-04   1.9442149E+05   -1.7357534E+00
   2.6074027E-04   1.9287307E+05   -1.7351794E+00
   2.6194439E-04   1.9133749E+05   -1.7346055E+00
   2.6315408E-04   1.8981464E+05   -1.7340318E+00
   2.6436935E-04   1.8830441E+05   -1.7334582E+00
   2.6559024E-04   1.8680668E+05   -1.7328848E+00
   2.6681676E-04   1.8532136E+05   -1.7323116E+00
   2.6804895E-04   1.8384833E+05   -1.7317386E+00
   2.6928683E-04   1.8238749E+05   -1.7311658E+00
   2.7053042E-04   1.8093874E+05   -1.7305932E+00
   2.7177976E-04   1.7950197E+05   -1.7300207E+00
   2.7303487E-04   1.7807708E+05   -1.7294485E+00
   2.7429577E-04   1.7666396E+05   -1.7288765E+00
   2.7556250E-04   1.7526252E+05   -1.7283048E+00
   2.7683507E-04   1.7387266E+05   -1.7277332E+00
   2.7811353E-04   1.7249427E+05   -1.7271619E+00
   2.7939788E-04   1.7112725E+05   -1.7265908E+00
   2.8068817E-04   1.6977152E+05   -1.7260200E+00
   2.8198442E-04   1.6842698E+05   -1.7254494E+00
   2.8328665E-04   1.6709352E+05   -1.7248791E+00
   2.8459490E-04   1.6577105E+05   -1.7243091E+00
   2.8590919E-04   1.6445948E+05   -1.7237393E+00
   2.8722955E-04   1.6315872E+05   -1.7231698E+00
   2.8855600E-04   1.6186866E+05   -1.7226006E+00
   2.8988859E-04   1.6058923E+05   -1.7220316E+00
   2.9122732E-04   1.5932033E+05   -1.7214630E+00
   2.9257224E-04   1.5806188E+05   -1.7208946E+00
   2.9392337E-04   1.5681377E+05   -1.7203266E+00
   2.9528074E-04   1.5557592E+05   -1.7197589E+00
   2.9664438E-04   1.5434825E+05   -1.7191914E+00
   2.9801431E-04   1.5313067E+05   -1.7186243E+00
   2.9939057E-04   1.5192309E+05   -1.7180576E+00
   3.0077319E-04   1.5072542E+05   -1.7174911E+00
   3.0216219E-04   1.4953759E+05   -1.7169250E+00
   3.0355761E-04   1.4835950E+05   -1.7163593E+00
   3.0495947E-04   1.4719108E+05   -1.7157939E+00
   3.0636780E-04   1.4603225E+05   -1.7152289E+00
   3.0778264E-04   1.4488291E+05   -1.7146642E+00
   3.0920401E-04   1.4374299E+05   -1.7140999E+00
   3.1063195E-04   1.4261241E+05   -1.7135359E+00
   3.1206648E-04   1.4149109E+05   -1.7129723E+00
   3.1350764E-04   1.4037896E+05   -1.7124092E+00
   3.1495545E-04   1.3927592E+05   -1.7118464E+00
   3.1640994E-04   1.3818191E+05   -1.7112840E+00
   3.1787116E-04   1.3709685E+05   -1.7107220E+00
   3.1933912E-04   1.3602066E+05   -1.7101604E+00
   3.2081386E-04   1.3495327E+05   -1.7095992E+00
   3.2229541E-04   1.3389460E+05   -1.7090384E+00
   3.2378381E-04   1.3284458E+05   -1.7084781E+00
   3.2527908E-04   1.3180313E+05   -1.7079182E+00
   3.2678125E-04   1.3077019E+05   -1.7073587E+00
   3.2829036E-04   1.2974567E+05   -1.7067997E+00
   3.2980644E-04   1.2872952E+05   -1.7062411E+00
   3.3132952E-04   1.2772165E+05   -1.7056829E+00
   3.3285963E-04   1.2672199E+05   -1.7051253E+00
   3.3439681E-04   1.2573048E+05   -1.7045680E+00
   3.3594109E-04   1.2474706E+05   -1.7040113E+00
   3.3749250E-04   1.2377164E+05   -1.7034550E+00
   3.3905108E-04   1.2280416E+05   -1.7028992E+00
   3.4061685E-04   1.2184456E+05   -1.7023438E+00
   3.4218986E-04   1.2089276E+05   -1.7017890E+00
   3.4377013E-04   1.1994871E+05   -1.7012346E+00
   3.4535769E-04   1.1901233E+05   -1.7006808E+00
   3.4695259E-04   1.1808356E+05   -1.7001274E+00
   3.4855485E-04   1.1716234E+05   -1.6995746E+00
   3.5016452E-04   1.1624860E+05   -1.6990222E+00
   3.5178161E-04   1.1534229E+05   -1.6984704E+00
   3.5340618E-04   1.1444332E+05   -1.6979191E+00
   3.5503824E-04   1.1355166E+05   -1.6973684E+00
   3.5667785E-04   1.1266722E+05   -1.6968181E+00
   3.5832502E-04   1.1178996E+05   -1.6962685E+00
   3.5997981E-04   1.1091981E+05   -1.6957193E+00
   3.6164223E-04   1.1005671E+05   -1.6951707E+00
   3.6331233E-04   1.0920061E+05   -1.6946227E+00
   3.6499015E-04   1.0835143E+05   -1.6940752E+00
   3.6667571E-04   1.0750913E+05   -1.6935282E+00
   3.6836906E-04   1.0667365E+05   -1.6929819E+00
   3.7007022E-04   1.0584493E+05   -1.6924361E+00
   3.7177925E-04   1.0502290E+05   -1.6918909E+00
   3.7349616E-04   1.0420753E+05   -1.6913463E+00
   3.7522101E-04   1.0339874E+05   -1.6908023E+00
   3.7695382E-04   1.0259649E+05   -1.6902588E+00
   3.7869463E-04   1.0180072E+05   -1.6897160E+00
   3.8044348E-04   1.0101137E+05   -1.6891737E+00
   3.8220041E-04   1.0022839E+05   -1.6886321E+00
   3.8396545E-04   9.9451732E+04   -1.6880911E+00
   3.8573864E-04   9.8681336E+04   -1.6875507E+00
   3.8752002E-04   9.7917152E+04   -1.6870109E+00
   3.8930963E-04   9.7159126E+04   -1.6864717E+00
   3.9110750E-04   9.6407209E+04   -1.6859332E+00
   3.9291368E-04   9.5661348E+04   -1.6853953E+00
   3.9472820E-04   9.4921492E+04   -1.6848580E+00
   3.9655109E-04   9.4187591E+04   -1.6843214E+00
   3.9838241E-04   9.3459596E+04   -1.6837855E+00
   4.0022218E-04   9.2737456E+04   -1.6832502E+00
   4.0207045E-04   9.2021123E+04   -1.6827155E+00
   4.0392725E-04   9.1310548E+04   -1.6821815E+00
   4.0579263E-04   9.0605683E+04   -1.6816482E+00
   4.0766662E-04   8.9906479E+04   -1.6811155E+00
   4.0954927E-04   8.9212891E+04   -1.6805836E+00
   4.1144061E-04   8.8524869E+04   -1.6800523E+00
   4.1334068E-04   8.7842369E+04   -1.6795216E+00
   4.1524953E-04   8.7165344E+04   -1.6789917E+00
   4.1716720E-04   8.6493747E+04   -1.6784625E+00
   4.1909372E-04   8.5827535E+04   -1.6779339E+00
   4.2102914E-04   8.5166661E+04   -1.6774061E+00
   4.2297350E-04   8.4511081E+04   -1.6768790E+00
   4.2492683E-04   8.3860751E+04   -1.6763526E+00
   4.2688919E-04   8.3215627E+04   -1.6758268E+00
   4.2886061E-04   8.2575666E+04   -1.6753019E+00
   4.3084113E-04   8.1940825E+04   -1.6747776E+00
   4.3283080E-04   8.1311060E+04   -1.6742540E+00
   4.3482966E-04   8.0686330E+04   -1.6737312E+00
   4.3683775E-04   8.0066593E+04   -1.6732091E+00
   4.3885511E-04   7.9451807E+04   -1.6726878E+00
   4.4088179E-04   7.8841931E+04   -1.6721672E+00
   4.4291783E-04   7.8236923E+04   -1.6716473E+00
   4.4496327E-04   7.7636745E+04   -1.6711282E+00
   4.4701816E-04   7.7041354E+04   -1.6706099E+00
   4.4908253E-04   7.6450712E+04   -1.6700923E+00
   4.5115644E-04   7.5864778E+04   -1.6695754E+00
   4.5323993E-04   7.5283515E+04   -1.6690594E+00
   4.5533304E-04   7.4706883E+04   -1.6685441E+00
   4.5743582E-04   7.4134843E+04   -1.6680295E+00
   4.5954830E-04   7.3567358E+04   -1.6675158E+00
   4.6167054E-04   7.3004390E+04   -1.6670028E+00
   4.6380259E-04   7.2445900E+04   -1.6664906E+00
   4.6594448E-04   7.1891853E+04   -1.6659792E+00
   4.6809626E-04   7.1342211E+04   -1.6654686E+00
   4.7025797E-04   7.0796937E+04   -1.6649588E+00
   4.7242967E-04   7.0255996E+04   -1.6644498E+00
   4.7461140E-04   6.9719352E+04   -1.6639415E+00
   4.7680321E-04   6.9186968E+04   -1.6634341E+00
   4.7900514E-04   6.8658810E+04   -1.6629275E+00
   4.8121723E-04   6.8134843E+04   -1.6624217E+00
   4.8343954E-04   6.7615032E+04   -1.6619167E+00
   4.8567212E-04   6.7099343E+04   -1.6614126E+00
   4.8791500E-04   6.6587742E+04   -1.6609092E+00
   4.9016825E-04   6.6080194E+04   -1.6604067E+00
   4.9243189E-04   6.5576667E+04   -1.6599050E+00
   4.9470600E-04   6.5077126E+04   -1.6594042E+00
   4.9699060E-04   6.4581540E+04   -1.6589041E+00
   4.9928575E-04   6.4089876E+04   -1.6584050E+00
   5.0159151E-04   6.3602101E+04   -1.6579066E+00
   5.0390791E-04   6.3118183E+04   -1.6574091E+00
   5.0623501E-04   6.2638090E+04   -1.6569125E+00
   5.0857286E-04   6.2161791E+04   -1.6564167E+00
   5.1092150E-04   6.1689255E+04   -1.6559217E+00
   5.1328099E-04   6.1220450E+04   -1.6554276E+00
   5.1565137E-04   6.0755346E+04   -1.6549344E+00
   5.1803270E-04   6.0293913E+04   -1.6544420E+00
   5.2042503E-04   5.9836120E+04   -1.6539505E+00
   5.2282841E-04   5.9381937E+04   -1.6534599E+00
   5.2524289E-04   5.8931334E+04   -1.6529701E+00
   5.2766851E-04   5.8484283E+04   -1.6524812E+00
   5.3010534E-04   5.8040753E+04   -1.6519932E+00
   5.3255342E-04   5.7600717E+04   -1.6515061E+00
   5.3501281E-04   5.7164145E+04   -1.6510198E+00
   5.3748356E-04   5.6731009E+04   -1.6505345E+00
   5.3996571E-04   5.6301280E+04   -1.6500500E+00
   5.4245933E-04   5.5874931E+04   -1.6495664E+00
   5.4496446E-04   5.5451935E+04   -1.6490837E+00
   5.4748117E-04   5.5032263E+04   -1.6486019E+00
   5.5000949E-04   5.4615888E+04   -1.6481210E+00
   5.5254949E-04   5.4202783E+04   -1.6476410E+00
   5.5510123E-04   5.3792922E+04   -1.6471619E+00
   5.5766474E-04   5.3386278E+04   -1.6466837E+00
   5.6024010E-04   5.2982824E+04   -1.6462064E+00
   5.6282734E-04   5.2582535E+04   -1.6457301E+00
   5.6542654E-04   5.2185385E+04   -1.6452546E+00
   5.6803774E-04   5.1791348E+04   -1.6447801E+00
   5.7066099E-04   5.1400398E+04   -1.6443065E+00
   5.7329637E-04   5.1012510E+04   -1.6438338E+00
   5.7594391E-04   5.0627660E+04   -1.6433620E+00
   5.7860368E-04   5.0245822E+04   -1.6428911E+00
   5.8127573E-04   4.9866972E+04   -1.6424212E+00
   5.8396012E-04   4.9491086E+04   -1.6419522E+00
   5.8665691E-04   4.9118139E+04   -1.6414842E+00
   5.8936616E-04   4.8748108E+04   -1.6410170E+00
   5.9208791E-04   4.8380968E+04   -1.6405508E+00
   5.9482223E-04   4.8016697E+04   -1.6400856E+00
   5.9756919E-04   4.7655270E+04   -1.6396213E+00
   6.0032882E-04   4.7296664E+04   -1.6391579E+00
   6.0310120E-04   4.6940857E+04   -1.6386955E+00
   6.0588639E-04   4.6587826E+04   -1.6382340E+00
   6.0868443E-04   4.6237549E+04   -1.6377735E+00
   6.1149540E-04   4.5890002E+04   -1.6373139E+00
   6.1431935E-04   4.5545164E+04   -1.6368553E+00
   6.1715634E-04   4.5203013E+04   -1.6363976E+00
   6.2000644E-04   4.4863526E+04   -1.6359409E+00
   6.2286969E-04   4.4526683E+04   -1.6354851E+00
