#        a       HoverH0(a)       dlogHdloga_of_a(a)
   1.0000000E-04   1.1522744E+06   -1.8701733E+00
   1.0046181E-04   1.1423893E+06   -1.8697299E+00
   1.0092575E-04   1.1325914E+06   -1.8692856E+00
   1.0139184E-04   1.1228798E+06   -1.8688403E+00
   1.0186008E-04   1.1132537E+06   -1.8683940E+00
   1.0233048E-04   1.1037125E+06   -1.8679467E+00
   1.0280305E-04   1.0942552E+06   -1.8674985E+00
   1.0327781E-04   1.0848813E+06   -1.8670493E+00
   1.0375475E-04   1.0755899E+06   -1.8665991E+00
   1.0423390E-04   1.0663802E+06   -1.8661479E+00
   1.0471527E-04   1.0572516E+06   -1.8656958E+00
   1.0519885E-04   1.0482034E+06   -1.8652427E+00
   1.0568467E-04   1.0392348E+06   -1.8647887E+00
   1.0617274E-04   1.0303450E+06   -1.8643337E+00
   1.0666305E-04   1.0215335E+06   -1.8638777E+00
   1.0715563E-04   1.0127994E+06   -1.8634208E+00
   1.0765049E-04   1.0041421E+06   -1.8629629E+00
   1.0814763E-04   9.9556097E+05   -1.8625041E+00
   1.0864707E-04   9.8705522E+05   -1.8620443E+00
   1.0914881E-04   9.7862422E+05   -1.8615835E+00
   1.0965287E-04   9.7026729E+05   -1.8611218E+00
   1.1015926E-04   9.6198378E+05   -1.8606592E+00
   1.1066799E-04   9.5377302E+05   -1.8601956E+00
   1.1117906E-04   9.4563436E+05   -1.8597311E+00
   1.1169250E-04   9.3756716E+05   -1.8592656E+00
   1.1220831E-04   9.2957078E+05   -1.8587992E+00
   1.1272650E-04   9.2164457E+05   -1.8583319E+00
   1.1324708E-04   9.1378793E+05   -1.8578636E+00
   1.1377007E-04   9.0600021E+05   -1.8573944E+00
   1.1429547E-04   8.9828081E+05   -1.8569243E+00
   1.1482330E-04   8.9062912E+05   -1.8564532E+00
   1.1535356E-04   8.8304451E+05   -1.8559812E+00
   1.1588628E-04   8.7552641E+05   -1.8555083E+00
   1.1642145E-04   8.6807421E+05   -1.8550345E+00
   1.1695910E-04   8.6068731E+05   -1.8545597E+00
   1.1749923E-04   8.5336515E+05   -1.8540841E+00
   1.1804185E-04   8.4610713E+05   -1.8536075E+00
   1.1858698E-04   8.3891269E+05   -1.8531300E+00
   1.1913463E-04   8.3178125E+05   -1.8526516E+00
   1.1968481E-04   8.2471226E+05   -1.8521723E+00
   1.2023752E-04   8.1770515E+05   -1.8516921E+00
   1.2079279E-04   8.1075937E+05   -1.8512110E+00
   1.2135063E-04   8.0387438E+05   -1.8507290E+00
   1.2191104E-04   7.9704962E+05   -1.8502461E+00
   1.2247403E-04   7.9028457E+05   -1.8497623E+00
   1.2303963E-04   7.8357868E+05   -1.8492776E+00
   1.2360784E-04   7.7693143E+05   -1.8487920E+00
   1.2417868E-04   7.7034230E+05   -1.8483056E+00
   1.2475215E-04   7.6381076E+05   -1.8478182E+00
   1.2532826E-04   7.5733630E+05   -1.8473300E+00
   1.2590704E-04   7.5091841E+05   -1.8468409E+00
   1.2648850E-04   7.4455659E+05   -1.8463509E+00
   1.2707263E-04   7.3825034E+05   -1.8458601E+00
   1.2765947E-04   7.3199915E+05   -1.8453684E+00
   1.2824901E-04   7.2580255E+05   -1.8448758E+00
   1.2884128E-04   7.1966004E+05   -1.8443824E+00
   1.2943628E-04   7.1357113E+05   -1.8438881E+00
   1.3003403E-04   7.0753536E+05   -1.8433929E+00
   1.3063454E-04   7.0155224E+05   -1.8428969E+00
   1.3123783E-04   6.9562130E+05   -1.8424001E+00
   1.3184390E-04   6.8974209E+05   -1.8419024E+00
   1.3245277E-04   6.8391413E+05   -1.8414038E+00
   1.3306445E-04   6.7813698E+05   -1.8409044E+00
   1.3367895E-04   6.7241017E+05   -1.8404042E+00
   1.3429630E-04   6.6673327E+05   -1.8399031E+00
   1.3491649E-04   6.6110582E+05   -1.8394012E+00
   1.3553955E-04   6.5552739E+05   -1.8388985E+00
   1.3616548E-04   6.4999753E+05   -1.8383950E+00
   1.3679431E-04   6.4451582E+05   -1.8378906E+00
   1.3742604E-04   6.3908183E+05   -1.8373854E+00
   1.3806069E-04   6.3369513E+05   -1.8368794E+00
   1.3869827E-04   6.2835529E+05   -1.8363726E+00
   1.3933879E-04   6.2306191E+05   -1.8358650E+00
   1.3998227E-04   6.1781457E+05   -1.8353566E+00
   1.4062872E-04   6.1261285E+05   -1.8348474E+00
   1.4127816E-04   6.0745636E+05   -1.8343374E+00
   1.4193060E-04   6.0234469E+05   -1.8338266E+00
   1.4258605E-04   5.9727744E+05   -1.8333150E+00
   1.4324453E-04   5.9225421E+05   -1.8328026E+00
   1.4390605E-04   5.8727462E+05   -1.8322894E+00
   1.4457062E-04   5.8233827E+05   -1.8317754E+00
   1.4523826E-04   5.7744479E+05   -1.8312607E+00
   1.4590899E-04   5.7259378E+05   -1.8307452E+00
   1.4658281E-04   5.6778488E+05   -1.8302290E+00
   1.4725974E-04   5.6301770E+05   -1.8297119E+00
   1.4793981E-04   5.5829188E+05   -1.8291941E+00
   1.4862301E-04   5.5360705E+05   -1.8286756E+00
   1.4930936E-04   5.4896285E+05   -1.8281563E+00
   1.4999889E-04   5.4435891E+05   -1.8276363E+00
   1.5069160E-04   5.3979487E+05   -1.8271155E+00
   1.5138751E-04   5.3527038E+05   -1.8265939E+00
   1.5208663E-04   5.3078510E+05   -1.8260717E+00
   1.5278899E-04   5.2633866E+05   -1.8255487E+00
   1.5349458E-04   5.2193074E+05   -1.8250249E+00
   1.5420343E-04   5.1756098E+05   -1.8245005E+00
   1.5491556E-04   5.1322904E+05   -1.8239753E+00
   1.5563098E-04   5.0893460E+05   -1.8234494E+00
   1.5634970E-04   5.0467731E+05   -1.8229228E+00
   1.5707174E-04   5.0045685E+05   -1.8223955E+00
   1.5779711E-04   4.9627289E+05   -1.8218675E+00
   1.5852584E-04   4.9212510E+05   -1.8213388E+00
   1.5925792E-04   4.8801318E+05   -1.8208093E+00
   1.5999339E-04   4.8393679E+05   -1.8202792E+00
   1.6073226E-04   4.7989562E+05   -1.8197485E+00
   1.6147454E-04   4.7588937E+05   -1.8192170E+00
   1.6222024E-04   4.7191772E+05   -1.8186848E+00
   1.6296939E-04   4.6798036E+05   -1.8181520E+00
   1.6372200E-04   4.6407699E+05   -1.8176185E+00
   1.6447809E-04   4.6020731E+05   -1.8170843E+00
   1.6523767E-04   4.5637103E+05   -1.8165495E+00
   1.6600075E-04   4.5256784E+05   -1.8160140E+00
   1.6676736E-04   4.4879745E+05   -1.8154779E+00
   1.6753751E-04   4.4505957E+05   -1.8149411E+00
   1.6831122E-04   4.4135391E+05   -1.8144037E+00
   1.6908849E-04   4.3768020E+05   -1.8138656E+00
   1.6986936E-04   4.3403813E+05   -1.8133269E+00
   1.7065384E-04   4.3042745E+05   -1.8127876E+00
   1.7144193E-04   4.2684786E+05   -1.8122476E+00
   1.7223367E-04   4.2329910E+05   -1.8117071E+00
   1.7302906E-04   4.1978088E+05   -1.8111659E+00
   1.7382813E-04   4.1629295E+05   -1.8106241E+00
   1.7463089E-04   4.1283503E+05   -1.8100817E+00
   1.7543735E-04   4.0940685E+05   -1.8095387E+00
   1.7624754E-04   4.0600816E+05   -1.8089951E+00
   1.7706147E-04   4.0263869E+05   -1.8084509E+00
   1.7787916E-04   3.9929819E+05   -1.8079061E+00
   1.7870062E-04   3.9598640E+05   -1.8073608E+00
   1.7952588E-04   3.9270306E+05   -1.8068148E+00
   1.8035495E-04   3.8944792E+05   -1.8062683E+00
   1.8118785E-04   3.8622074E+05   -1.8057212E+00
   1.8202459E-04   3.8302127E+05   -1.8051736E+00
   1.8286520E-04   3.7984926E+05   -1.8046254E+00
   1.8370969E-04   3.7670448E+05   -1.8040766E+00
   1.8455808E-04   3.7358667E+05   -1.8035273E+00
   1.8541039E-04   3.7049561E+05   -1.8029775E+00
   1.8626663E-04   3.6743105E+05   -1.8024271E+00
   1.8712683E-04   3.6439277E+05   -1.8018762E+00
   1.8799100E-04   3.6138053E+05   -1.8013248E+00
   1.8885917E-04   3.5839410E+05   -1.8007728E+00
   1.8973134E-04   3.5543325E+05   -1.8002204E+00
   1.9060754E-04   3.5249776E+05   -1.7996674E+00
   1.9148778E-04   3.4958741E+05   -1.7991139E+00
   1.9237209E-04   3.4670197E+05   -1.7985599E+00
   1.9326049E-04   3.4384122E+05   -1.7980054E+00
   1.9415299E-04   3.4100495E+05   -1.7974504E+00
   1.9504960E-04   3.3819295E+05   -1.7968949E+00
   1.9595036E-04   3.3540499E+05   -1.7963390E+00
   1.9685528E-04   3.3264086E+05   -1.7957826E+00
   1.9776438E-04   3.2990036E+05   -1.7952257E+00
   1.9867768E-04   3.2718328E+05   -1.7946683E+00
   1.9959519E-04   3.2448941E+05   -1.7941105E+00
   2.0051694E-04   3.2181855E+05   -1.7935522E+00
   2.0144295E-04   3.1917049E+05   -1.7929935E+00
   2.0237324E-04   3.1654504E+05   -1.7924343E+00
   2.0330782E-04   3.1394199E+05   -1.7918747E+00
   2.0424671E-04   3.1136115E+05   -1.7913147E+00
   2.0518995E-04   3.0880233E+05   -1.7907542E+00
   2.0613754E-04   3.0626532E+05   -1.7901933E+00
   2.0708950E-04   3.0374995E+05   -1.7896320E+00
   2.0804586E-04   3.0125601E+05   -1.7890703E+00
   2.0900664E-04   2.9878332E+05   -1.7885082E+00
   2.0997185E-04   2.9633170E+05   -1.7879457E+00
   2.1094152E-04   2.9390095E+05   -1.7873828E+00
   2.1191567E-04   2.9149090E+05   -1.7868195E+00
   2.1289432E-04   2.8910136E+05   -1.7862558E+00
   2.1387749E-04   2.8673216E+05   -1.7856918E+00
   2.1486520E-04   2.8438311E+05   -1.7851273E+00
   2.1585747E-04   2.8205404E+05   -1.7845626E+00
   2.1685432E-04   2.7974477E+05   -1.7839974E+00
   2.1785578E-04   2.7745513E+05   -1.7834319E+00
   2.1886186E-04   2.7518495E+05   -1.7828660E+00
   2.1987259E-04   2.7293406E+05   -1.7822998E+00
   2.2088798E-04   2.7070228E+05   -1.7817333E+00
   2.2190807E-04   2.6848945E+05   -1.7811664E+00
   2.2293286E-04   2.6629541E+05   -1.7805992E+00
   2.2396239E-04   2.6411999E+05   -1.7800317E+00
   2.2499667E-04   2.6196302E+05   -1.7794639E+00
   2.2603573E-04   2.5982435E+05   -1.7788958E+00
   2.2707958E-04   2.5770382E+05   -1.7783273E+00
   2.2812826E-04   2.5560126E+05   -1.7777586E+00
   2.2918178E-04   2.5351652E+05   -1.7771895E+00
   2.3024017E-04   2.5144944E+05   -1.7766202E+00
   2.3130344E-04   2.4939987E+05   -1.7760506E+00
   2.3237162E-04   2.4736766E+05   -1.7754808E+00
   2.3344474E-04   2.4535265E+05   -1.7749106E+00
   2.3452281E-04   2.4335469E+05   -1.7743402E+00
   2.3560586E-04   2.4137364E+05   -1.7737696E+00
   2.3669392E-04   2.3940934E+05   -1.7731987E+00
   2.3778699E-04   2.3746166E+05   -1.7726275E+00
   2.3888512E-04   2.3553044E+05   -1.7720561E+00
   2.3998831E-04   2.3361554E+05   -1.7714845E+00
   2.4109661E-04   2.3171682E+05   -1.7709126E+00
   2.4221001E-04   2.2983414E+05   -1.7703406E+00
   2.4332857E-04   2.2796735E+05   -1.7697683E+00
   2.4445228E-04   2.2611633E+05   -1.7691958E+00
   2.4558119E-04   2.2428092E+05   -1.7686231E+00
   2.4671531E-04   2.2246100E+05   -1.7680502E+00
   2.4785467E-04   2.2065643E+05   -1.7674771E+00
   2.4899928E-04   2.1886708E+05   -1.7669038E+00
   2.5014919E-04   2.1709281E+05   -1.7663304E+00
   2.5130440E-04   2.1533349E+05   -1.7657568E+00
   2.5246495E-04   2.1358900E+05   -1.7651830E+00
   2.5363086E-04   2.1185920E+05   -1.7646090E+00
   2.5480216E-04   2.1014396E+05   -1.7640349E+00
   2.5597886E-04   2.0844316E+05   -1.7634607E+00
   2.5716100E-04   2.0675668E+05   -1.7628863E+00
   2.5834859E-04   2.0508438E+05   -1.7623117E+00
   2.5954168E-04   2.0342615E+05   -1.7617371E+00
   2.6074027E-04   2.0178185E+05   -1.7611623E+00
   2.6194439E-04   2.0015138E+05   -1.7605874E+00
   2.6315408E-04   1.9853461E+05   -1.7600124E+00
   2.6436935E-04   1.9693143E+05   -1.7594372E+00
   2.6559024E-04   1.9534170E+05   -1.7588620E+00
   2.6681676E-04   1.9376532E+05   -1.7582867E+00
   2.6804895E-04   1.9220218E+05   -1.7577113E+00
   2.6928683E-04   1.9065215E+05   -1.7571358E+00
   2.7053042E-04   1.8911512E+05   -1.7565602E+00
   2.7177976E-04   1.8759098E+05   -1.7559846E+00
   2.7303487E-04   1.8607961E+05   -1.7554089E+00
   2.7429577E-04   1.8458091E+05   -1.7548331E+00
   2.7556250E-04   1.8309477E+05   -1.7542573E+00
   2.7683507E-04   1.8162108E+05   -1.7536814E+00
   2.7811353E-04   1.8015973E+05   -1.7531055E+00
   2.7939788E-04   1.7871060E+05   -1.7525296E+00
   2.8068817E-04   1.7727361E+05   -1.7519537E+00
   2.8198442E-04   1.7584864E+05   -1.7513777E+00
   2.8328665E-04   1.7443558E+05   -1.7508017E+00
   2.8459490E-04   1.7303434E+05   -1.7502257E+00
   2.8590919E-04   1.7164481E+05   -1.7496497E+00
   2.8722955E-04   1.7026689E+05   -1.7490737E+00
   2.8855600E-04   1.6890048E+05   -1.7484977E+00
   2.8988859E-04   1.6754548E+05   -1.7479217E+00
   2.9122732E-04   1.6620179E+05   -1.7473457E+00
   2.9257224E-04   1.6486931E+05   -1.7467698E+00
   2.9392337E-04   1.6354795E+05   -1.7461939E+00
   2.9528074E-04   1.6223762E+05   -1.7456181E+00
   2.9664438E-04   1.6093820E+05   -1.7450422E+00
   2.9801431E-04   1.5964962E+05   -1.7444665E+00
   2.9939057E-04   1.5837178E+05   -1.7438908E+00
   3.0077319E-04   1.5710458E+05   -1.7433151E+00
   3.0216219E-04   1.5584793E+05   -1.7427396E+00
   3.0355761E-04   1.5460175E+05   -1.7421641E+00
   3.0495947E-04   1.5336593E+05   -1.7415887E+00
   3.0636780E-04   1.5214040E+05   -1.7410134E+00
   3.0778264E-04   1.5092506E+05   -1.7404381E+00
   3.0920401E-04   1.4971983E+05   -1.7398630E+00
   3.1063195E-04   1.4852461E+05   -1.7392880E+00
   3.1206648E-04   1.4733933E+05   -1.7387131E+00
   3.1350764E-04   1.4616389E+05   -1.7381383E+00
   3.1495545E-04   1.4499822E+05   -1.7375637E+00
   3.1640994E-04   1.4384222E+05   -1.7369891E+00
   3.1787116E-04   1.4269581E+05   -1.7364147E+00
   3.1933912E-04   1.4155892E+05   -1.7358405E+00
   3.2081386E-04   1.4043145E+05   -1.7352664E+00
   3.2229541E-04   1.3931334E+05   -1.7346925E+00
   3.2378381E-04   1.3820449E+05   -1.7341187E+00
   3.2527908E-04   1.3710483E+05   -1.7335451E+00
   3.2678125E-04   1.3601428E+05   -1.7329716E+00
   3.2829036E-04   1.3493276E+05   -1.7323984E+00
   3.2980644E-04   1.3386019E+05   -1.7318253E+00
   3.3132952E-04   1.3279650E+05   -1.7312524E+00
   3.3285963E-04   1.3174161E+05   -1.7306797E+00
   3.3439681E-04   1.3069544E+05   -1.7301072E+00
   3.3594109E-04   1.2965793E+05   -1.7295350E+00
   3.3749250E-04   1.2862899E+05   -1.7289629E+00
   3.3905108E-04   1.2760855E+05   -1.7283911E+00
   3.4061685E-04   1.2659654E+05   -1.7278195E+00
   3.4218986E-04   1.2559288E+05   -1.7272481E+00
   3.4377013E-04   1.2459751E+05   -1.7266769E+00
   3.4535769E-04   1.2361036E+05   -1.7261060E+00
   3.4695259E-04   1.2263135E+05   -1.7255354E+00
   3.4855485E-04   1.2166041E+05   -1.7249650E+00
   3.5016452E-04   1.2069748E+05   -1.7243949E+00
   3.5178161E-04   1.1974248E+05   -1.7238250E+00
   3.5340618E-04   1.1879535E+05   -1.7232555E+00
   3.5503824E-04   1.1785602E+05   -1.7226862E+00
   3.5667785E-04   1.1692443E+05   -1.7221171E+00
   3.5832502E-04   1.1600050E+05   -1.7215484E+00
   3.5997981E-04   1.1508417E+05   -1.7209800E+00
   3.6164223E-04   1.1417539E+05   -1.7204119E+00
   3.6331233E-04   1.1327407E+05   -1.7198440E+00
   3.6499015E-04   1.1238017E+05   -1.7192765E+00
   3.6667571E-04   1.1149361E+05   -1.7187094E+00
   3.6836906E-04   1.1061433E+05   -1.7181425E+00
   3.7007022E-04   1.0974228E+05   -1.7175760E+00
   3.7177925E-04   1.0887738E+05   -1.7170098E+00
   3.7349616E-04   1.0801958E+05   -1.7164440E+00
   3.7522101E-04   1.0716882E+05   -1.7158785E+00
   3.7695382E-04   1.0632504E+05   -1.7153133E+00
   3.7869463E-04   1.0548817E+05   -1.7147486E+00
   3.8044348E-04   1.0465816E+05   -1.7141842E+00
   3.8220041E-04   1.0383496E+05   -1.7136201E+00
   3.8396545E-04   1.0301850E+05   -1.7130565E+00
   3.8573864E-04   1.0220872E+05   -1.7124932E+00
   3.8752002E-04   1.0140557E+05   -1.7119303E+00
   3.8930963E-04   1.0060899E+05   -1.7113678E+00
   3.9110750E-04   9.9818930E+04   -1.7108057E+00
   3.9291368E-04   9.9035329E+04   -1.7102440E+00
   3.9472820E-04   9.8258134E+04   -1.7096827E+00
   3.9655109E-04   9.7487290E+04   -1.7091219E+00
   3.9838241E-04   9.6722743E+04   -1.7085614E+00
   4.0022218E-04   9.5964439E+04   -1.7080014E+00
   4.0207045E-04   9.5212327E+04   -1.7074418E+00
   4.0392725E-04   9.4466353E+04   -1.7068827E+00
   4.0579263E-04   9.3726464E+04   -1.7063240E+00
   4.0766662E-04   9.2992610E+04   -1.7057657E+00
   4.0954927E-04   9.2264739E+04   -1.7052079E+00
   4.1144061E-04   9.1542800E+04   -1.7046506E+00
   4.1334068E-04   9.0826744E+04   -1.7040937E+00
   4.1524953E-04   9.0116519E+04   -1.7035373E+00
   4.1716720E-04   8.9412078E+04   -1.7029814E+00
   4.1909372E-04   8.8713369E+04   -1.7024259E+00
   4.2102914E-04   8.8020347E+04   -1.7018710E+00
   4.2297350E-04   8.7332961E+04   -1.7013165E+00
   4.2492683E-04   8.6651164E+04   -1.7007625E+00
   4.2688919E-04   8.5974910E+04   -1.7002091E+00
   4.2886061E-04   8.5304151E+04   -1.6996561E+00
   4.3084113E-04   8.4638841E+04   -1.6991036E+00
   4.3283080E-04   8.3978933E+04   -1.6985517E+00
   4.3482966E-04   8.3324382E+04   -1.6980003E+00
   4.3683775E-04   8.2675143E+04   -1.6974494E+00
   4.3885511E-04   8.2031170E+04   -1.6968991E+00
   4.4088179E-04   8.1392420E+04   -1.6963492E+00
   4.4291783E-04   8.0758848E+04   -1.6958000E+00
   4.4496327E-04   8.0130410E+04   -1.6952512E+00
   4.4701816E-04   7.9507064E+04   -1.6947031E+00
   4.4908253E-04   7.8888766E+04   -1.6941554E+00
   4.5115644E-04   7.8275473E+04   -1.6936084E+00
   4.5323993E-04   7.7667145E+04   -1.6930619E+00
   4.5533304E-04   7.7063738E+04   -1.6925160E+00
   4.5743582E-04   7.6465211E+04   -1.6919707E+00
   4.5954830E-04   7.5871523E+04   -1.6914259E+00
   4.6167054E-04   7.5282633E+04   -1.6908817E+00
   4.6380259E-04   7.4698502E+04   -1.6903382E+00
   4.6594448E-04   7.4119088E+04   -1.6897952E+00
   4.6809626E-04   7.3544352E+04   -1.6892528E+00
   4.7025797E-04   7.2974256E+04   -1.6887110E+00
   4.7242967E-04   7.2408759E+04   -1.6881699E+00
   4.7461140E-04   7.1847823E+04   -1.6876293E+00
   4.7680321E-04   7.1291411E+04   -1.6870894E+00
   4.7900514E-04   7.0739483E+04   -1.6865501E+00
   4.8121723E-04   7.0192003E+04   -1.6860114E+00
   4.8343954E-04   6.9648932E+04   -1.6854734E+00
   4.8567212E-04   6.9110235E+04   -1.6849360E+00
   4.8791500E-04   6.8575873E+04   -1.6843992E+00
   4.9016825E-04   6.8045812E+04   -1.6838631E+00
   4.9243189E-04   6.7520014E+04   -1.6833276E+00
   4.9470600E-04   6.6998445E+04   -1.6827928E+00
   4.9699060E-04   6.6481068E+04   -1.6822587E+00
   4.9928575E-04   6.5967848E+04   -1.6817252E+00
   5.0159151E-04   6.5458752E+04   -1.6811924E+00
   5.0390791E-04   6.4953743E+04   -1.6806603E+00
   5.0623501E-04   6.4452789E+04   -1.6801288E+00
   5.0857286E-04   6.3955855E+04   -1.6795981E+00
   5.1092150E-04   6.3462907E+04   -1.6790680E+00
   5.1328099E-04   6.2973912E+04   -1.6785386E+00
   5.1565137E-04   6.2488838E+04   -1.6780099E+00
   5.1803270E-04   6.2007651E+04   -1.6774819E+00
   5.2042503E-04   6.1530319E+04   -1.6769546E+00
   5.2282841E-04   6.1056809E+04   -1.6764280E+00
   5.2524289E-04   6.0587090E+04   -1.6759022E+00
   5.2766851E-04   6.0121131E+04   -1.6753770E+00
   5.3010534E-04   5.9658899E+04   -1.6748526E+00
   5.3255342E-04   5.9200364E+04   -1.6743289E+00
   5.3501281E-04   5.8745495E+04   -1.6738059E+00
   5.3748356E-04   5.8294262E+04   -1.6732836E+00
   5.3996571E-04   5.7846633E+04   -1.6727621E+00
   5.4245933E-04   5.7402579E+04   -1.6722414E+00
   5.4496446E-04   5.6962071E+04   -1.6717213E+00
   5.4748117E-04   5.6525079E+04   -1.6712021E+00
   5.5000949E-04   5.6091573E+04   -1.6706835E+00
   5.5254949E-04   5.5661525E+04   -1.6701658E+00
   5.5510123E-04   5.5234906E+04   -1.6696488E+00
   5.5766474E-04   5.4811687E+04   -1.6691325E+00
   5.6024010E-04   5.4391839E+04   -1.6686170E+00
   5.6282734E-04   5.3975336E+04   -1.6681023E+00
   5.6542654E-04   5.3562150E+04   -1.6675884E+00
   5.6803774E-04   5.3152252E+04   -1.6670753E+00
   5.7066099E-04   5.2745615E+04   -1.6665629E+00
   5.7329637E-04   5.2342213E+04   -1.6660513E+00
   5.7594391E-04   5.1942018E+04   -1.6655405E+00
   5.7860368E-04   5.1545005E+04   -1.6650305E+00
   5.8127573E-04   5.1151146E+04   -1.6645213E+00
   5.8396012E-04   5.0760415E+04   -1.6640129E+00
   5.8665691E-04   5.0372788E+04   -1.6635053E+00
   5.8936616E-04   4.9988237E+04   -1.6629985E+00
   5.9208791E-04   4.9606737E+04   -1.6624926E+00
   5.9482223E-04   4.9228264E+04   -1.6619874E+00
   5.9756919E-04   4.8852792E+04   -1.6614830E+00
   6.0032882E-04   4.8480296E+04   -1.6609795E+00
   6.0310120E-04   4.8110752E+04   -1.6604768E+00
   6.0588639E-04   4.7744135E+04   -1.6599749E+00
   6.0868443E-04   4.7380422E+04   -1.6594739E+00
   6.1149540E-04   4.7019587E+04   -1.6589737E+00
   6.1431935E-04   4.6661609E+04   -1.6584743E+00
   6.1715634E-04   4.6306462E+04   -1.6579758E+00
   6.2000644E-04   4.5954124E+04   -1.6574781E+00
   6.2286969E-04   4.5604571E+04   -1.6569812E+00
