#        a       HoverH0(a)       dlogHdloga_of_a(a)
   1.0000000E-04   1.0986240E+06   -1.8441878E+00
   1.0046181E-04   1.0893297E+06   -1.8436932E+00
   1.0092575E-04   1.0801165E+06   -1.8431977E+00
   1.0139184E-04   1.0709837E+06   -1.8427014E+00
   1.0186008E-04   1.0619306E+06   -1.8422042E+00
   1.0233048E-04   1.0529564E+06   -1.8417062E+00
   1.0280305E-04   1.0440604E+06   -1.8412073E+00
   1.0327781E-04   1.0352419E+06   -1.8407076E+00
   1.0375475E-04   1.0265004E+06   -1.8402070E+00
   1.0423390E-04   1.0178349E+06   -1.8397057E+00
   1.0471527E-04   1.0092450E+06   -1.8392035E+00
   1.0519885E-04   1.0007299E+06   -1.8387004E+00
   1.0568467E-04   9.9228887E+05   -1.8381966E+00
   1.0617274E-04   9.8392137E+05   -1.8376919E+00
   1.0666305E-04   9.7562669E+05   -1.8371864E+00
   1.0715563E-04   9.6740420E+05   -1.8366801E+00
   1.0765049E-04   9.5925325E+05   -1.8361730E+00
   1.0814763E-04   9.5117320E+05   -1.8356650E+00
   1.0864707E-04   9.4316342E+05   -1.8351563E+00
   1.0914881E-04   9.3522328E+05   -1.8346468E+00
   1.0965287E-04   9.2735217E+05   -1.8341365E+00
   1.1015926E-04   9.1954946E+05   -1.8336254E+00
   1.1066799E-04   9.1181456E+05   -1.8331135E+00
   1.1117906E-04   9.0414685E+05   -1.8326008E+00
   1.1169250E-04   8.9654574E+05   -1.8320873E+00
   1.1220831E-04   8.8901064E+05   -1.8315731E+00
   1.1272650E-04   8.8154095E+05   -1.8310580E+00
   1.1324708E-04   8.7413611E+05   -1.8305423E+00
   1.1377007E-04   8.6679553E+05   -1.8300257E+00
   1.1429547E-04   8.5951864E+05   -1.8295084E+00
   1.1482330E-04   8.5230487E+05   -1.8289903E+00
   1.1535356E-04   8.4515366E+05   -1.8284715E+00
   1.1588628E-04   8.3806446E+05   -1.8279519E+00
   1.1642145E-04   8.3103672E+05   -1.8274316E+00
   1.1695910E-04   8.2406989E+05   -1.8269105E+00
   1.1749923E-04   8.1716342E+05   -1.8263887E+00
   1.1804185E-04   8.1031678E+05   -1.8258661E+00
   1.1858698E-04   8.0352945E+05   -1.8253429E+00
   1.1913463E-04   7.9680089E+05   -1.8248189E+00
   1.1968481E-04   7.9013058E+05   -1.8242941E+00
   1.2023752E-04   7.8351801E+05   -1.8237687E+00
   1.2079279E-04   7.7696266E+05   -1.8232425E+00
   1.2135063E-04   7.7046403E+05   -1.8227157E+00
   1.2191104E-04   7.6402161E+05   -1.8221881E+00
   1.2247403E-04   7.5763490E+05   -1.8216598E+00
   1.2303963E-04   7.5130340E+05   -1.8211308E+00
   1.2360784E-04   7.4502664E+05   -1.8206011E+00
   1.2417868E-04   7.3880412E+05   -1.8200708E+00
   1.2475215E-04   7.3263537E+05   -1.8195397E+00
   1.2532826E-04   7.2651989E+05   -1.8190080E+00
   1.2590704E-04   7.2045723E+05   -1.8184756E+00
   1.2648850E-04   7.1444692E+05   -1.8179425E+00
   1.2707263E-04   7.0848849E+05   -1.8174088E+00
   1.2765947E-04   7.0258148E+05   -1.8168743E+00
   1.2824901E-04   6.9672544E+05   -1.8163393E+00
   1.2884128E-04   6.9091991E+05   -1.8158035E+00
   1.2943628E-04   6.8516445E+05   -1.8152672E+00
   1.3003403E-04   6.7945861E+05   -1.8147301E+00
   1.3063454E-04   6.7380196E+05   -1.8141925E+00
   1.3123783E-04   6.6819406E+05   -1.8136542E+00
   1.3184390E-04   6.6263447E+05   -1.8131153E+00
   1.3245277E-04   6.5712278E+05   -1.8125757E+00
   1.3306445E-04   6.5165855E+05   -1.8120355E+00
   1.3367895E-04   6.4624136E+05   -1.8114947E+00
   1.3429630E-04   6.4087081E+05   -1.8109533E+00
   1.3491649E-04   6.3554647E+05   -1.8104113E+00
   1.3553955E-04   6.3026795E+05   -1.8098687E+00
   1.3616548E-04   6.2503483E+05   -1.8093254E+00
   1.3679431E-04   6.1984671E+05   -1.8087816E+00
   1.3742604E-04   6.1470320E+05   -1.8082372E+00
   1.3806069E-04   6.0960390E+05   -1.8076922E+00
   1.3869827E-04   6.0454842E+05   -1.8071466E+00
   1.3933879E-04   5.9953637E+05   -1.8066005E+00
   1.3998227E-04   5.9456737E+05   -1.8060538E+00
   1.4062872E-04   5.8964104E+05   -1.8055065E+00
   1.4127816E-04   5.8475701E+05   -1.8049586E+00
   1.4193060E-04   5.7991489E+05   -1.8044102E+00
   1.4258605E-04   5.7511432E+05   -1.8038613E+00
   1.4324453E-04   5.7035494E+05   -1.8033118E+00
   1.4390605E-04   5.6563637E+05   -1.8027618E+00
   1.4457062E-04   5.6095826E+05   -1.8022112E+00
   1.4523826E-04   5.5632026E+05   -1.8016601E+00
   1.4590899E-04   5.5172201E+05   -1.8011085E+00
   1.4658281E-04   5.4716315E+05   -1.8005563E+00
   1.4725974E-04   5.4264334E+05   -1.8000037E+00
   1.4793981E-04   5.3816224E+05   -1.7994505E+00
   1.4862301E-04   5.3371951E+05   -1.7988968E+00
   1.4930936E-04   5.2931480E+05   -1.7983426E+00
   1.4999889E-04   5.2494779E+05   -1.7977880E+00
   1.5069160E-04   5.2061813E+05   -1.7972328E+00
   1.5138751E-04   5.1632551E+05   -1.7966772E+00
   1.5208663E-04   5.1206959E+05   -1.7961210E+00
   1.5278899E-04   5.0785005E+05   -1.7955645E+00
   1.5349458E-04   5.0366658E+05   -1.7950074E+00
   1.5420343E-04   4.9951885E+05   -1.7944499E+00
   1.5491556E-04   4.9540655E+05   -1.7938919E+00
   1.5563098E-04   4.9132937E+05   -1.7933335E+00
   1.5634970E-04   4.8728700E+05   -1.7927746E+00
   1.5707174E-04   4.8327913E+05   -1.7922153E+00
   1.5779711E-04   4.7930546E+05   -1.7916555E+00
   1.5852584E-04   4.7536569E+05   -1.7910953E+00
   1.5925792E-04   4.7145952E+05   -1.7905347E+00
   1.5999339E-04   4.6758666E+05   -1.7899737E+00
   1.6073226E-04   4.6374681E+05   -1.7894122E+00
   1.6147454E-04   4.5993968E+05   -1.7888504E+00
   1.6222024E-04   4.5616499E+05   -1.7882881E+00
   1.6296939E-04   4.5242245E+05   -1.7877255E+00
   1.6372200E-04   4.4871178E+05   -1.7871624E+00
   1.6447809E-04   4.4503270E+05   -1.7865990E+00
   1.6523767E-04   4.4138494E+05   -1.7860352E+00
   1.6600075E-04   4.3776820E+05   -1.7854710E+00
   1.6676736E-04   4.3418224E+05   -1.7849065E+00
   1.6753751E-04   4.3062676E+05   -1.7843416E+00
   1.6831122E-04   4.2710152E+05   -1.7837763E+00
   1.6908849E-04   4.2360623E+05   -1.7832107E+00
   1.6986936E-04   4.2014065E+05   -1.7826447E+00
   1.7065384E-04   4.1670451E+05   -1.7820784E+00
   1.7144193E-04   4.1329754E+05   -1.7815117E+00
   1.7223367E-04   4.0991950E+05   -1.7809447E+00
   1.7302906E-04   4.0657014E+05   -1.7803774E+00
   1.7382813E-04   4.0324920E+05   -1.7798098E+00
   1.7463089E-04   3.9995643E+05   -1.7792419E+00
   1.7543735E-04   3.9669158E+05   -1.7786737E+00
   1.7624754E-04   3.9345442E+05   -1.7781051E+00
   1.7706147E-04   3.9024470E+05   -1.7775363E+00
   1.7787916E-04   3.8706217E+05   -1.7769672E+00
   1.7870062E-04   3.8390661E+05   -1.7763978E+00
   1.7952588E-04   3.8077777E+05   -1.7758281E+00
   1.8035495E-04   3.7767542E+05   -1.7752581E+00
   1.8118785E-04   3.7459933E+05   -1.7746879E+00
   1.8202459E-04   3.7154927E+05   -1.7741174E+00
   1.8286520E-04   3.6852502E+05   -1.7735467E+00
   1.8370969E-04   3.6552634E+05   -1.7729757E+00
   1.8455808E-04   3.6255302E+05   -1.7724045E+00
   1.8541039E-04   3.5960483E+05   -1.7718330E+00
   1.8626663E-04   3.5668155E+05   -1.7712613E+00
   1.8712683E-04   3.5378297E+05   -1.7706894E+00
   1.8799100E-04   3.5090887E+05   -1.7701173E+00
   1.8885917E-04   3.4805904E+05   -1.7695449E+00
   1.8973134E-04   3.4523326E+05   -1.7689724E+00
   1.9060754E-04   3.4243133E+05   -1.7683996E+00
   1.9148778E-04   3.3965303E+05   -1.7678267E+00
   1.9237209E-04   3.3689816E+05   -1.7672536E+00
   1.9326049E-04   3.3416652E+05   -1.7666802E+00
   1.9415299E-04   3.3145791E+05   -1.7661068E+00
   1.9504960E-04   3.2877212E+05   -1.7655331E+00
   1.9595036E-04   3.2610895E+05   -1.7649593E+00
   1.9685528E-04   3.2346821E+05   -1.7643853E+00
   1.9776438E-04   3.2084971E+05   -1.7638111E+00
   1.9867768E-04   3.1825324E+05   -1.7632368E+00
   1.9959519E-04   3.1567862E+05   -1.7626624E+00
   2.0051694E-04   3.1312566E+05   -1.7620879E+00
   2.0144295E-04   3.1059417E+05   -1.7615132E+00
   2.0237324E-04   3.0808396E+05   -1.7609384E+00
   2.0330782E-04   3.0559484E+05   -1.7603634E+00
   2.0424671E-04   3.0312664E+05   -1.7597884E+00
   2.0518995E-04   3.0067917E+05   -1.7592133E+00
   2.0613754E-04   2.9825225E+05   -1.7586380E+00
   2.0708950E-04   2.9584571E+05   -1.7580627E+00
   2.0804586E-04   2.9345936E+05   -1.7574873E+00
   2.0900664E-04   2.9109303E+05   -1.7569118E+00
   2.0997185E-04   2.8874655E+05   -1.7563362E+00
   2.1094152E-04   2.8641974E+05   -1.7557606E+00
   2.1191567E-04   2.8411244E+05   -1.7551849E+00
   2.1289432E-04   2.8182447E+05   -1.7546091E+00
   2.1387749E-04   2.7955567E+05   -1.7540333E+00
   2.1486520E-04   2.7730587E+05   -1.7534575E+00
   2.1585747E-04   2.7507490E+05   -1.7528816E+00
   2.1685432E-04   2.7286261E+05   -1.7523057E+00
   2.1785578E-04   2.7066882E+05   -1.7517297E+00
   2.1886186E-04   2.6849339E+05   -1.7511538E+00
   2.1987259E-04   2.6633615E+05   -1.7505778E+00
   2.2088798E-04   2.6419694E+05   -1.7500018E+00
   2.2190807E-04   2.6207561E+05   -1.7494258E+00
   2.2293286E-04   2.5997200E+05   -1.7488499E+00
   2.2396239E-04   2.5788597E+05   -1.7482739E+00
   2.2499667E-04   2.5581735E+05   -1.7476980E+00
   2.2603573E-04   2.5376599E+05   -1.7471221E+00
   2.2707958E-04   2.5173176E+05   -1.7465462E+00
   2.2812826E-04   2.4971449E+05   -1.7459703E+00
   2.2918178E-04   2.4771404E+05   -1.7453945E+00
   2.3024017E-04   2.4573028E+05   -1.7448187E+00
   2.3130344E-04   2.4376304E+05   -1.7442430E+00
   2.3237162E-04   2.4181220E+05   -1.7436674E+00
   2.3344474E-04   2.3987760E+05   -1.7430918E+00
   2.3452281E-04   2.3795912E+05   -1.7425163E+00
   2.3560586E-04   2.3605660E+05   -1.7419409E+00
   2.3669392E-04   2.3416992E+05   -1.7413655E+00
   2.3778699E-04   2.3229893E+05   -1.7407903E+00
   2.3888512E-04   2.3044350E+05   -1.7402151E+00
   2.3998831E-04   2.2860349E+05   -1.7396401E+00
   2.4109661E-04   2.2677878E+05   -1.7390652E+00
   2.4221001E-04   2.2496923E+05   -1.7384903E+00
   2.4332857E-04   2.2317471E+05   -1.7379156E+00
   2.4445228E-04   2.2139509E+05   -1.7373411E+00
   2.4558119E-04   2.1963024E+05   -1.7367666E+00
   2.4671531E-04   2.1788004E+05   -1.7361923E+00
   2.4785467E-04   2.1614435E+05   -1.7356182E+00
   2.4899928E-04   2.1442306E+05   -1.7350442E+00
   2.5014919E-04   2.1271604E+05   -1.7344703E+00
   2.5130440E-04   2.1102317E+05   -1.7338966E+00
   2.5246495E-04   2.0934432E+05   -1.7333231E+00
   2.5363086E-04   2.0767938E+05   -1.7327498E+00
   2.5480216E-04   2.0602823E+05   -1.7321766E+00
   2.5597886E-04   2.0439074E+05   -1.7316037E+00
   2.5716100E-04   2.0276680E+05   -1.7310309E+00
   2.5834859E-04   2.0115629E+05   -1.7304583E+00
   2.5954168E-04   1.9955910E+05   -1.7298860E+00
   2.6074027E-04   1.9797512E+05   -1.7293138E+00
   2.6194439E-04   1.9640423E+05   -1.7287419E+00
   2.6315408E-04   1.9484631E+05   -1.7281701E+00
   2.6436935E-04   1.9330126E+05   -1.7275987E+00
   2.6559024E-04   1.9176897E+05   -1.7270274E+00
   2.6681676E-04   1.9024933E+05   -1.7264564E+00
   2.6804895E-04   1.8874222E+05   -1.7258857E+00
   2.6928683E-04   1.8724754E+05   -1.7253151E+00
   2.7053042E-04   1.8576519E+05   -1.7247449E+00
   2.7177976E-04   1.8429506E+05   -1.7241749E+00
   2.7303487E-04   1.8283705E+05   -1.7236052E+00
   2.7429577E-04   1.8139104E+05   -1.7230358E+00
   2.7556250E-04   1.7995694E+05   -1.7224666E+00
   2.7683507E-04   1.7853465E+05   -1.7218978E+00
   2.7811353E-04   1.7712406E+05   -1.7213292E+00
   2.7939788E-04   1.7572508E+05   -1.7207609E+00
   2.8068817E-04   1.7433761E+05   -1.7201929E+00
   2.8198442E-04   1.7296154E+05   -1.7196253E+00
   2.8328665E-04   1.7159678E+05   -1.7190580E+00
   2.8459490E-04   1.7024324E+05   -1.7184909E+00
   2.8590919E-04   1.6890081E+05   -1.7179243E+00
   2.8722955E-04   1.6756941E+05   -1.7173579E+00
   2.8855600E-04   1.6624893E+05   -1.7167919E+00
   2.8988859E-04   1.6493929E+05   -1.7162262E+00
   2.9122732E-04   1.6364040E+05   -1.7156609E+00
   2.9257224E-04   1.6235215E+05   -1.7150960E+00
   2.9392337E-04   1.6107447E+05   -1.7145314E+00
   2.9528074E-04   1.5980726E+05   -1.7139672E+00
   2.9664438E-04   1.5855043E+05   -1.7134033E+00
   2.9801431E-04   1.5730389E+05   -1.7128398E+00
   2.9939057E-04   1.5606755E+05   -1.7122768E+00
   3.0077319E-04   1.5484134E+05   -1.7117141E+00
   3.0216219E-04   1.5362516E+05   -1.7111518E+00
   3.0355761E-04   1.5241892E+05   -1.7105899E+00
   3.0495947E-04   1.5122255E+05   -1.7100284E+00
   3.0636780E-04   1.5003596E+05   -1.7094673E+00
   3.0778264E-04   1.4885906E+05   -1.7089067E+00
   3.0920401E-04   1.4769178E+05   -1.7083464E+00
   3.1063195E-04   1.4653402E+05   -1.7077866E+00
   3.1206648E-04   1.4538572E+05   -1.7072273E+00
   3.1350764E-04   1.4424678E+05   -1.7066683E+00
   3.1495545E-04   1.4311714E+05   -1.7061099E+00
   3.1640994E-04   1.4199671E+05   -1.7055518E+00
   3.1787116E-04   1.4088542E+05   -1.7049943E+00
   3.1933912E-04   1.3978317E+05   -1.7044371E+00
   3.2081386E-04   1.3868991E+05   -1.7038805E+00
   3.2229541E-04   1.3760556E+05   -1.7033243E+00
   3.2378381E-04   1.3653003E+05   -1.7027686E+00
   3.2527908E-04   1.3546325E+05   -1.7022134E+00
   3.2678125E-04   1.3440515E+05   -1.7016587E+00
   3.2829036E-04   1.3335566E+05   -1.7011045E+00
   3.2980644E-04   1.3231470E+05   -1.7005507E+00
   3.3132952E-04   1.3128220E+05   -1.6999975E+00
   3.3285963E-04   1.3025809E+05   -1.6994448E+00
   3.3439681E-04   1.2924229E+05   -1.6988926E+00
   3.3594109E-04   1.2823475E+05   -1.6983409E+00
   3.3749250E-04   1.2723538E+05   -1.6977897E+00
   3.3905108E-04   1.2624412E+05   -1.6972391E+00
   3.4061685E-04   1.2526091E+05   -1.6966890E+00
   3.4218986E-04   1.2428566E+05   -1.6961395E+00
   3.4377013E-04   1.2331832E+05   -1.6955904E+00
   3.4535769E-04   1.2235882E+05   -1.6950420E+00
   3.4695259E-04   1.2140709E+05   -1.6944941E+00
   3.4855485E-04   1.2046306E+05   -1.6939467E+00
   3.5016452E-04   1.1952668E+05   -1.6934000E+00
   3.5178161E-04   1.1859788E+05   -1.6928537E+00
   3.5340618E-04   1.1767658E+05   -1.6923081E+00
   3.5503824E-04   1.1676274E+05   -1.6917630E+00
   3.5667785E-04   1.1585629E+05   -1.6912186E+00
   3.5832502E-04   1.1495716E+05   -1.6906747E+00
   3.5997981E-04   1.1406530E+05   -1.6901314E+00
   3.6164223E-04   1.1318063E+05   -1.6895887E+00
   3.6331233E-04   1.1230311E+05   -1.6890466E+00
   3.6499015E-04   1.1143268E+05   -1.6885051E+00
   3.6667571E-04   1.1056926E+05   -1.6879643E+00
   3.6836906E-04   1.0971281E+05   -1.6874240E+00
   3.7007022E-04   1.0886326E+05   -1.6868844E+00
   3.7177925E-04   1.0802056E+05   -1.6863454E+00
   3.7349616E-04   1.0718464E+05   -1.6858070E+00
   3.7522101E-04   1.0635546E+05   -1.6852693E+00
   3.7695382E-04   1.0553296E+05   -1.6847322E+00
   3.7869463E-04   1.0471708E+05   -1.6841957E+00
   3.8044348E-04   1.0390776E+05   -1.6836599E+00
   3.8220041E-04   1.0310495E+05   -1.6831248E+00
   3.8396545E-04   1.0230859E+05   -1.6825903E+00
   3.8573864E-04   1.0151864E+05   -1.6820565E+00
   3.8752002E-04   1.0073503E+05   -1.6815233E+00
   3.8930963E-04   9.9957713E+04   -1.6809908E+00
   3.9110750E-04   9.9186641E+04   -1.6804590E+00
   3.9291368E-04   9.8421757E+04   -1.6799279E+00
   3.9472820E-04   9.7663011E+04   -1.6793974E+00
   3.9655109E-04   9.6910350E+04   -1.6788677E+00
   3.9838241E-04   9.6163725E+04   -1.6783386E+00
   4.0022218E-04   9.5423084E+04   -1.6778102E+00
   4.0207045E-04   9.4688378E+04   -1.6772826E+00
   4.0392725E-04   9.3959557E+04   -1.6767556E+00
   4.0579263E-04   9.3236573E+04   -1.6762294E+00
   4.0766662E-04   9.2519375E+04   -1.6757039E+00
   4.0954927E-04   9.1807917E+04   -1.6751790E+00
   4.1144061E-04   9.1102149E+04   -1.6746549E+00
   4.1334068E-04   9.0402025E+04   -1.6741316E+00
   4.1524953E-04   8.9707498E+04   -1.6736089E+00
   4.1716720E-04   8.9018521E+04   -1.6730871E+00
   4.1909372E-04   8.8335048E+04   -1.6725659E+00
   4.2102914E-04   8.7657033E+04   -1.6720455E+00
   4.2297350E-04   8.6984430E+04   -1.6715258E+00
   4.2492683E-04   8.6317194E+04   -1.6710069E+00
   4.2688919E-04   8.5655282E+04   -1.6704887E+00
   4.2886061E-04   8.4998648E+04   -1.6699713E+00
   4.3084113E-04   8.4347249E+04   -1.6694547E+00
   4.3283080E-04   8.3701041E+04   -1.6689388E+00
   4.3482966E-04   8.3059981E+04   -1.6684237E+00
   4.3683775E-04   8.2424026E+04   -1.6679093E+00
   4.3885511E-04   8.1793135E+04   -1.6673958E+00
   4.4088179E-04   8.1167264E+04   -1.6668830E+00
   4.4291783E-04   8.0546372E+04   -1.6663710E+00
   4.4496327E-04   7.9930418E+04   -1.6658598E+00
   4.4701816E-04   7.9319362E+04   -1.6653494E+00
   4.4908253E-04   7.8713161E+04   -1.6648397E+00
   4.5115644E-04   7.8111777E+04   -1.6643309E+00
   4.5323993E-04   7.7515169E+04   -1.6638229E+00
   4.5533304E-04   7.6923298E+04   -1.6633157E+00
   4.5743582E-04   7.6336125E+04   -1.6628093E+00
   4.5954830E-04   7.5753610E+04   -1.6623037E+00
   4.6167054E-04   7.5175715E+04   -1.6617989E+00
   4.6380259E-04   7.4602402E+04   -1.6612949E+00
   4.6594448E-04   7.4033634E+04   -1.6607918E+00
   4.6809626E-04   7.3469371E+04   -1.6602895E+00
   4.7025797E-04   7.2909578E+04   -1.6597880E+00
   4.7242967E-04   7.2354217E+04   -1.6592874E+00
   4.7461140E-04   7.1803252E+04   -1.6587875E+00
   4.7680321E-04   7.1256646E+04   -1.6582886E+00
   4.7900514E-04   7.0714364E+04   -1.6577904E+00
   4.8121723E-04   7.0176370E+04   -1.6572931E+00
   4.8343954E-04   6.9642628E+04   -1.6567967E+00
   4.8567212E-04   6.9113104E+04   -1.6563011E+00
   4.8791500E-04   6.8587762E+04   -1.6558064E+00
   4.9016825E-04   6.8066569E+04   -1.6553125E+00
   4.9243189E-04   6.7549489E+04   -1.6548195E+00
   4.9470600E-04   6.7036490E+04   -1.6543273E+00
   4.9699060E-04   6.6527538E+04   -1.6538360E+00
   4.9928575E-04   6.6022599E+04   -1.6533456E+00
   5.0159151E-04   6.5521640E+04   -1.6528561E+00
   5.0390791E-04   6.5024629E+04   -1.6523674E+00
   5.0623501E-04   6.4531533E+04   -1.6518796E+00
   5.0857286E-04   6.4042320E+04   -1.6513927E+00
   5.1092150E-04   6.3556958E+04   -1.6509067E+00
   5.1328099E-04   6.3075416E+04   -1.6504215E+00
   5.1565137E-04   6.2597663E+04   -1.6499373E+00
   5.1803270E-04   6.2123666E+04   -1.6494539E+00
   5.2042503E-04   6.1653396E+04   -1.6489714E+00
   5.2282841E-04   6.1186821E+04   -1.6484898E+00
   5.2524289E-04   6.0723912E+04   -1.6480092E+00
   5.2766851E-04   6.0264638E+04   -1.6475294E+00
   5.3010534E-04   5.9808971E+04   -1.6470505E+00
   5.3255342E-04   5.9356879E+04   -1.6465726E+00
   5.3501281E-04   5.8908334E+04   -1.6460955E+00
   5.3748356E-04   5.8463307E+04   -1.6456194E+00
   5.3996571E-04   5.8021770E+04   -1.6451441E+00
   5.4245933E-04   5.7583692E+04   -1.6446698E+00
   5.4496446E-04   5.7149048E+04   -1.6441964E+00
   5.4748117E-04   5.6717808E+04   -1.6437240E+00
   5.5000949E-04   5.6289944E+04   -1.6432524E+00
   5.5254949E-04   5.5865429E+04   -1.6427818E+00
   5.5510123E-04   5.5444236E+04   -1.6423121E+00
   5.5766474E-04   5.5026337E+04   -1.6418434E+00
   5.6024010E-04   5.4611706E+04   -1.6413755E+00
   5.6282734E-04   5.4200316E+04   -1.6409086E+00
   5.6542654E-04   5.3792140E+04   -1.6404427E+00
   5.6803774E-04   5.3387153E+04   -1.6399776E+00
   5.7066099E-04   5.2985328E+04   -1.6395136E+00
   5.7329637E-04   5.2586640E+04   -1.6390504E+00
   5.7594391E-04   5.2191063E+04   -1.6385882E+00
   5.7860368E-04   5.1798573E+04   -1.6381270E+00
   5.8127573E-04   5.1409143E+04   -1.6376667E+00
   5.8396012E-04   5.1022748E+04   -1.6372074E+00
   5.8665691E-04   5.0639365E+04   -1.6367490E+00
   5.8936616E-04   5.0258969E+04   -1.6362915E+00
   5.9208791E-04   4.9881536E+04   -1.6358351E+00
   5.9482223E-04   4.9507040E+04   -1.6353795E+00
   5.9756919E-04   4.9135460E+04   -1.6349250E+00
   6.0032882E-04   4.8766770E+04   -1.6344714E+00
   6.0310120E-04   4.8400948E+04   -1.6340188E+00
   6.0588639E-04   4.8037970E+04   -1.6335671E+00
   6.0868443E-04   4.7677813E+04   -1.6331164E+00
   6.1149540E-04   4.7320455E+04   -1.6326667E+00
   6.1431935E-04   4.6965872E+04   -1.6322179E+00
   6.1715634E-04   4.6614043E+04   -1.6317701E+00
   6.2000644E-04   4.6264945E+04   -1.6313233E+00
   6.2286969E-04   4.5918555E+04   -1.6308774E+00
