#        a       HoverH0(a)       dlogHdloga_of_a(a)
   1.0000000E-04   1.0825041E+06   -1.8411686E+00
   1.0046181E-04   1.0733611E+06   -1.8406688E+00
   1.0092575E-04   1.0642978E+06   -1.8401682E+00
   1.0139184E-04   1.0553135E+06   -1.8396667E+00
   1.0186008E-04   1.0464075E+06   -1.8391645E+00
   1.0233048E-04   1.0375790E+06   -1.8386614E+00
   1.0280305E-04   1.0288274E+06   -1.8381574E+00
   1.0327781E-04   1.0201520E+06   -1.8376527E+00
   1.0375475E-04   1.0115520E+06   -1.8371471E+00
   1.0423390E-04   1.0030269E+06   -1.8366408E+00
   1.0471527E-04   9.9457603E+05   -1.8361336E+00
   1.0519885E-04   9.8619863E+05   -1.8356256E+00
   1.0568467E-04   9.7789407E+05   -1.8351168E+00
   1.0617274E-04   9.6966172E+05   -1.8346072E+00
   1.0666305E-04   9.6150094E+05   -1.8340969E+00
   1.0715563E-04   9.5341108E+05   -1.8335857E+00
   1.0765049E-04   9.4539152E+05   -1.8330737E+00
   1.0814763E-04   9.3744163E+05   -1.8325610E+00
   1.0864707E-04   9.2956079E+05   -1.8320475E+00
   1.0914881E-04   9.2174838E+05   -1.8315331E+00
   1.0965287E-04   9.1400379E+05   -1.8310181E+00
   1.1015926E-04   9.0632643E+05   -1.8305022E+00
   1.1066799E-04   8.9871570E+05   -1.8299856E+00
   1.1117906E-04   8.9117099E+05   -1.8294682E+00
   1.1169250E-04   8.8369173E+05   -1.8289501E+00
   1.1220831E-04   8.7627734E+05   -1.8284312E+00
   1.1272650E-04   8.6892723E+05   -1.8279116E+00
   1.1324708E-04   8.6164084E+05   -1.8273912E+00
   1.1377007E-04   8.5441760E+05   -1.8268701E+00
   1.1429547E-04   8.4725696E+05   -1.8263482E+00
   1.1482330E-04   8.4015834E+05   -1.8258256E+00
   1.1535356E-04   8.3312120E+05   -1.8253023E+00
   1.1588628E-04   8.2614501E+05   -1.8247782E+00
   1.1642145E-04   8.1922920E+05   -1.8242534E+00
   1.1695910E-04   8.1237326E+05   -1.8237279E+00
   1.1749923E-04   8.0557664E+05   -1.8232017E+00
   1.1804185E-04   7.9883882E+05   -1.8226748E+00
   1.1858698E-04   7.9215929E+05   -1.8221471E+00
   1.1913463E-04   7.8553751E+05   -1.8216188E+00
   1.1968481E-04   7.7897299E+05   -1.8210898E+00
   1.2023752E-04   7.7246520E+05   -1.8205600E+00
   1.2079279E-04   7.6601366E+05   -1.8200296E+00
   1.2135063E-04   7.5961786E+05   -1.8194985E+00
   1.2191104E-04   7.5327730E+05   -1.8189667E+00
   1.2247403E-04   7.4699150E+05   -1.8184343E+00
   1.2303963E-04   7.4075997E+05   -1.8179012E+00
   1.2360784E-04   7.3458223E+05   -1.8173674E+00
   1.2417868E-04   7.2845781E+05   -1.8168329E+00
   1.2475215E-04   7.2238622E+05   -1.8162978E+00
   1.2532826E-04   7.1636701E+05   -1.8157620E+00
   1.2590704E-04   7.1039970E+05   -1.8152256E+00
   1.2648850E-04   7.0448385E+05   -1.8146885E+00
   1.2707263E-04   6.9861899E+05   -1.8141508E+00
   1.2765947E-04   6.9280467E+05   -1.8136124E+00
   1.2824901E-04   6.8704045E+05   -1.8130735E+00
   1.2884128E-04   6.8132588E+05   -1.8125339E+00
   1.2943628E-04   6.7566053E+05   -1.8119936E+00
   1.3003403E-04   6.7004395E+05   -1.8114528E+00
   1.3063454E-04   6.6447571E+05   -1.8109113E+00
   1.3123783E-04   6.5895540E+05   -1.8103693E+00
   1.3184390E-04   6.5348258E+05   -1.8098266E+00
   1.3245277E-04   6.4805683E+05   -1.8092833E+00
   1.3306445E-04   6.4267774E+05   -1.8087395E+00
   1.3367895E-04   6.3734490E+05   -1.8081950E+00
   1.3429630E-04   6.3205790E+05   -1.8076500E+00
   1.3491649E-04   6.2681632E+05   -1.8071043E+00
   1.3553955E-04   6.2161978E+05   -1.8065582E+00
   1.3616548E-04   6.1646788E+05   -1.8060114E+00
   1.3679431E-04   6.1136021E+05   -1.8054641E+00
   1.3742604E-04   6.0629639E+05   -1.8049162E+00
   1.3806069E-04   6.0127604E+05   -1.8043677E+00
   1.3869827E-04   5.9629876E+05   -1.8038187E+00
   1.3933879E-04   5.9136418E+05   -1.8032692E+00
   1.3998227E-04   5.8647191E+05   -1.8027191E+00
   1.4062872E-04   5.8162160E+05   -1.8021685E+00
   1.4127816E-04   5.7681287E+05   -1.8016174E+00
   1.4193060E-04   5.7204534E+05   -1.8010657E+00
   1.4258605E-04   5.6731866E+05   -1.8005135E+00
   1.4324453E-04   5.6263247E+05   -1.7999608E+00
   1.4390605E-04   5.5798642E+05   -1.7994076E+00
   1.4457062E-04   5.5338013E+05   -1.7988539E+00
   1.4523826E-04   5.4881328E+05   -1.7982997E+00
   1.4590899E-04   5.4428551E+05   -1.7977450E+00
   1.4658281E-04   5.3979647E+05   -1.7971898E+00
   1.4725974E-04   5.3534582E+05   -1.7966341E+00
   1.4793981E-04   5.3093323E+05   -1.7960780E+00
   1.4862301E-04   5.2655836E+05   -1.7955213E+00
   1.4930936E-04   5.2222087E+05   -1.7949642E+00
   1.4999889E-04   5.1792045E+05   -1.7944067E+00
   1.5069160E-04   5.1365676E+05   -1.7938487E+00
   1.5138751E-04   5.0942948E+05   -1.7932902E+00
   1.5208663E-04   5.0523829E+05   -1.7927313E+00
   1.5278899E-04   5.0108288E+05   -1.7921719E+00
   1.5349458E-04   4.9696292E+05   -1.7916122E+00
   1.5420343E-04   4.9287811E+05   -1.7910519E+00
   1.5491556E-04   4.8882814E+05   -1.7904913E+00
   1.5563098E-04   4.8481270E+05   -1.7899302E+00
   1.5634970E-04   4.8083148E+05   -1.7893688E+00
   1.5707174E-04   4.7688420E+05   -1.7888069E+00
   1.5779711E-04   4.7297054E+05   -1.7882446E+00
   1.5852584E-04   4.6909021E+05   -1.7876819E+00
   1.5925792E-04   4.6524293E+05   -1.7871189E+00
   1.5999339E-04   4.6142840E+05   -1.7865554E+00
   1.6073226E-04   4.5764633E+05   -1.7859916E+00
   1.6147454E-04   4.5389644E+05   -1.7854274E+00
   1.6222024E-04   4.5017845E+05   -1.7848628E+00
   1.6296939E-04   4.4649208E+05   -1.7842978E+00
   1.6372200E-04   4.4283704E+05   -1.7837325E+00
   1.6447809E-04   4.3921308E+05   -1.7831669E+00
   1.6523767E-04   4.3561990E+05   -1.7826009E+00
   1.6600075E-04   4.3205724E+05   -1.7820345E+00
   1.6676736E-04   4.2852484E+05   -1.7814679E+00
   1.6753751E-04   4.2502244E+05   -1.7809009E+00
   1.6831122E-04   4.2154975E+05   -1.7803336E+00
   1.6908849E-04   4.1810654E+05   -1.7797659E+00
   1.6986936E-04   4.1469253E+05   -1.7791980E+00
   1.7065384E-04   4.1130748E+05   -1.7786297E+00
   1.7144193E-04   4.0795113E+05   -1.7780611E+00
   1.7223367E-04   4.0462322E+05   -1.7774923E+00
   1.7302906E-04   4.0132352E+05   -1.7769231E+00
   1.7382813E-04   3.9805177E+05   -1.7763537E+00
   1.7463089E-04   3.9480773E+05   -1.7757840E+00
   1.7543735E-04   3.9159115E+05   -1.7752140E+00
   1.7624754E-04   3.8840180E+05   -1.7746438E+00
   1.7706147E-04   3.8523944E+05   -1.7740733E+00
   1.7787916E-04   3.8210383E+05   -1.7735026E+00
   1.7870062E-04   3.7899474E+05   -1.7729316E+00
   1.7952588E-04   3.7591194E+05   -1.7723603E+00
   1.8035495E-04   3.7285519E+05   -1.7717888E+00
   1.8118785E-04   3.6982428E+05   -1.7712171E+00
   1.8202459E-04   3.6681897E+05   -1.7706452E+00
   1.8286520E-04   3.6383904E+05   -1.7700731E+00
   1.8370969E-04   3.6088427E+05   -1.7695007E+00
   1.8455808E-04   3.5795444E+05   -1.7689281E+00
   1.8541039E-04   3.5504933E+05   -1.7683554E+00
   1.8626663E-04   3.5216873E+05   -1.7677824E+00
   1.8712683E-04   3.4931242E+05   -1.7672093E+00
   1.8799100E-04   3.4648020E+05   -1.7666359E+00
   1.8885917E-04   3.4367184E+05   -1.7660624E+00
   1.8973134E-04   3.4088715E+05   -1.7654888E+00
   1.9060754E-04   3.3812592E+05   -1.7649149E+00
   1.9148778E-04   3.3538794E+05   -1.7643409E+00
   1.9237209E-04   3.3267301E+05   -1.7637668E+00
   1.9326049E-04   3.2998093E+05   -1.7631925E+00
   1.9415299E-04   3.2731151E+05   -1.7626180E+00
   1.9504960E-04   3.2466453E+05   -1.7620435E+00
   1.9595036E-04   3.2203982E+05   -1.7614688E+00
   1.9685528E-04   3.1943717E+05   -1.7608940E+00
   1.9776438E-04   3.1685639E+05   -1.7603190E+00
   1.9867768E-04   3.1429730E+05   -1.7597440E+00
   1.9959519E-04   3.1175970E+05   -1.7591688E+00
   2.0051694E-04   3.0924341E+05   -1.7585936E+00
   2.0144295E-04   3.0674824E+05   -1.7580183E+00
   2.0237324E-04   3.0427401E+05   -1.7574428E+00
   2.0330782E-04   3.0182054E+05   -1.7568673E+00
   2.0424671E-04   2.9938765E+05   -1.7562918E+00
   2.0518995E-04   2.9697515E+05   -1.7557161E+00
   2.0613754E-04   2.9458288E+05   -1.7551404E+00
   2.0708950E-04   2.9221065E+05   -1.7545647E+00
   2.0804586E-04   2.8985829E+05   -1.7539889E+00
   2.0900664E-04   2.8752564E+05   -1.7534130E+00
   2.0997185E-04   2.8521251E+05   -1.7528371E+00
   2.1094152E-04   2.8291874E+05   -1.7522612E+00
   2.1191567E-04   2.8064417E+05   -1.7516853E+00
   2.1289432E-04   2.7838862E+05   -1.7511093E+00
   2.1387749E-04   2.7615193E+05   -1.7505334E+00
   2.1486520E-04   2.7393394E+05   -1.7499574E+00
   2.1585747E-04   2.7173448E+05   -1.7493814E+00
   2.1685432E-04   2.6955340E+05   -1.7488054E+00
   2.1785578E-04   2.6739053E+05   -1.7482295E+00
   2.1886186E-04   2.6524573E+05   -1.7476535E+00
   2.1987259E-04   2.6311882E+05   -1.7470776E+00
   2.2088798E-04   2.6100966E+05   -1.7465017E+00
   2.2190807E-04   2.5891810E+05   -1.7459259E+00
   2.2293286E-04   2.5684398E+05   -1.7453501E+00
   2.2396239E-04   2.5478715E+05   -1.7447743E+00
   2.2499667E-04   2.5274746E+05   -1.7441986E+00
   2.2603573E-04   2.5072477E+05   -1.7436230E+00
   2.2707958E-04   2.4871892E+05   -1.7430474E+00
   2.2812826E-04   2.4672977E+05   -1.7424719E+00
   2.2918178E-04   2.4475718E+05   -1.7418965E+00
   2.3024017E-04   2.4280101E+05   -1.7413212E+00
   2.3130344E-04   2.4086111E+05   -1.7407460E+00
   2.3237162E-04   2.3893734E+05   -1.7401708E+00
   2.3344474E-04   2.3702956E+05   -1.7395958E+00
   2.3452281E-04   2.3513764E+05   -1.7390208E+00
   2.3560586E-04   2.3326144E+05   -1.7384460E+00
   2.3669392E-04   2.3140082E+05   -1.7378713E+00
   2.3778699E-04   2.2955565E+05   -1.7372968E+00
   2.3888512E-04   2.2772580E+05   -1.7367224E+00
   2.3998831E-04   2.2591113E+05   -1.7361481E+00
   2.4109661E-04   2.2411151E+05   -1.7355739E+00
   2.4221001E-04   2.2232682E+05   -1.7349999E+00
   2.4332857E-04   2.2055692E+05   -1.7344261E+00
   2.4445228E-04   2.1880169E+05   -1.7338524E+00
   2.4558119E-04   2.1706101E+05   -1.7332790E+00
   2.4671531E-04   2.1533474E+05   -1.7327056E+00
   2.4785467E-04   2.1362276E+05   -1.7321325E+00
   2.4899928E-04   2.1192495E+05   -1.7315595E+00
   2.5014919E-04   2.1024120E+05   -1.7309868E+00
   2.5130440E-04   2.0857137E+05   -1.7304142E+00
   2.5246495E-04   2.0691535E+05   -1.7298419E+00
   2.5363086E-04   2.0527301E+05   -1.7292698E+00
   2.5480216E-04   2.0364426E+05   -1.7286978E+00
   2.5597886E-04   2.0202895E+05   -1.7281261E+00
   2.5716100E-04   2.0042699E+05   -1.7275547E+00
   2.5834859E-04   1.9883825E+05   -1.7269835E+00
   2.5954168E-04   1.9726263E+05   -1.7264125E+00
   2.6074027E-04   1.9570000E+05   -1.7258417E+00
   2.6194439E-04   1.9415027E+05   -1.7252713E+00
   2.6315408E-04   1.9261331E+05   -1.7247010E+00
   2.6436935E-04   1.9108902E+05   -1.7241311E+00
   2.6559024E-04   1.8957729E+05   -1.7235614E+00
   2.6681676E-04   1.8807802E+05   -1.7229920E+00
   2.6804895E-04   1.8659109E+05   -1.7224228E+00
   2.6928683E-04   1.8511640E+05   -1.7218540E+00
   2.7053042E-04   1.8365385E+05   -1.7212855E+00
   2.7177976E-04   1.8220333E+05   -1.7207172E+00
   2.7303487E-04   1.8076474E+05   -1.7201493E+00
   2.7429577E-04   1.7933798E+05   -1.7195817E+00
   2.7556250E-04   1.7792295E+05   -1.7190144E+00
   2.7683507E-04   1.7651954E+05   -1.7184474E+00
   2.7811353E-04   1.7512765E+05   -1.7178807E+00
   2.7939788E-04   1.7374720E+05   -1.7173144E+00
   2.8068817E-04   1.7237808E+05   -1.7167484E+00
   2.8198442E-04   1.7102019E+05   -1.7161828E+00
   2.8328665E-04   1.6967344E+05   -1.7156175E+00
   2.8459490E-04   1.6833774E+05   -1.7150526E+00
   2.8590919E-04   1.6701298E+05   -1.7144880E+00
   2.8722955E-04   1.6569908E+05   -1.7139238E+00
   2.8855600E-04   1.6439595E+05   -1.7133600E+00
   2.8988859E-04   1.6310348E+05   -1.7127966E+00
   2.9122732E-04   1.6182160E+05   -1.7122335E+00
   2.9257224E-04   1.6055021E+05   -1.7116709E+00
   2.9392337E-04   1.5928922E+05   -1.7111086E+00
   2.9528074E-04   1.5803854E+05   -1.7105467E+00
   2.9664438E-04   1.5679809E+05   -1.7099853E+00
   2.9801431E-04   1.5556778E+05   -1.7094243E+00
   2.9939057E-04   1.5434752E+05   -1.7088636E+00
   3.0077319E-04   1.5313723E+05   -1.7083034E+00
   3.0216219E-04   1.5193682E+05   -1.7077437E+00
   3.0355761E-04   1.5074621E+05   -1.7071843E+00
   3.0495947E-04   1.4956531E+05   -1.7066255E+00
   3.0636780E-04   1.4839404E+05   -1.7060670E+00
   3.0778264E-04   1.4723233E+05   -1.7055090E+00
   3.0920401E-04   1.4608009E+05   -1.7049515E+00
   3.1063195E-04   1.4493723E+05   -1.7043944E+00
   3.1206648E-04   1.4380369E+05   -1.7038378E+00
   3.1350764E-04   1.4267938E+05   -1.7032817E+00
   3.1495545E-04   1.4156422E+05   -1.7027260E+00
   3.1640994E-04   1.4045813E+05   -1.7021709E+00
   3.1787116E-04   1.3936105E+05   -1.7016162E+00
   3.1933912E-04   1.3827289E+05   -1.7010620E+00
   3.2081386E-04   1.3719357E+05   -1.7005083E+00
   3.2229541E-04   1.3612303E+05   -1.6999551E+00
   3.2378381E-04   1.3506118E+05   -1.6994024E+00
   3.2527908E-04   1.3400796E+05   -1.6988503E+00
   3.2678125E-04   1.3296328E+05   -1.6982986E+00
   3.2829036E-04   1.3192709E+05   -1.6977475E+00
   3.2980644E-04   1.3089931E+05   -1.6971969E+00
   3.3132952E-04   1.2987986E+05   -1.6966469E+00
   3.3285963E-04   1.2886867E+05   -1.6960974E+00
   3.3439681E-04   1.2786569E+05   -1.6955484E+00
   3.3594109E-04   1.2687083E+05   -1.6950000E+00
   3.3749250E-04   1.2588403E+05   -1.6944521E+00
   3.3905108E-04   1.2490522E+05   -1.6939048E+00
   3.4061685E-04   1.2393433E+05   -1.6933581E+00
   3.4218986E-04   1.2297130E+05   -1.6928119E+00
   3.4377013E-04   1.2201606E+05   -1.6922664E+00
   3.4535769E-04   1.2106854E+05   -1.6917213E+00
   3.4695259E-04   1.2012868E+05   -1.6911769E+00
   3.4855485E-04   1.1919642E+05   -1.6906331E+00
   3.5016452E-04   1.1827169E+05   -1.6900898E+00
   3.5178161E-04   1.1735443E+05   -1.6895472E+00
   3.5340618E-04   1.1644457E+05   -1.6890052E+00
   3.5503824E-04   1.1554205E+05   -1.6884637E+00
   3.5667785E-04   1.1464681E+05   -1.6879229E+00
   3.5832502E-04   1.1375880E+05   -1.6873827E+00
   3.5997981E-04   1.1287794E+05   -1.6868431E+00
   3.6164223E-04   1.1200419E+05   -1.6863042E+00
   3.6331233E-04   1.1113747E+05   -1.6857659E+00
   3.6499015E-04   1.1027773E+05   -1.6852282E+00
   3.6667571E-04   1.0942491E+05   -1.6846911E+00
   3.6836906E-04   1.0857896E+05   -1.6841547E+00
   3.7007022E-04   1.0773981E+05   -1.6836190E+00
   3.7177925E-04   1.0690742E+05   -1.6830839E+00
   3.7349616E-04   1.0608171E+05   -1.6825495E+00
   3.7522101E-04   1.0526264E+05   -1.6820157E+00
   3.7695382E-04   1.0445015E+05   -1.6814826E+00
   3.7869463E-04   1.0364419E+05   -1.6809502E+00
   3.8044348E-04   1.0284470E+05   -1.6804184E+00
   3.8220041E-04   1.0205163E+05   -1.6798874E+00
   3.8396545E-04   1.0126492E+05   -1.6793570E+00
   3.8573864E-04   1.0048452E+05   -1.6788273E+00
   3.8752002E-04   9.9710374E+04   -1.6782983E+00
   3.8930963E-04   9.8942436E+04   -1.6777700E+00
   3.9110750E-04   9.8180651E+04   -1.6772424E+00
   3.9291368E-04   9.7424968E+04   -1.6767155E+00
   3.9472820E-04   9.6675336E+04   -1.6761893E+00
   3.9655109E-04   9.5931704E+04   -1.6756638E+00
   3.9838241E-04   9.5194023E+04   -1.6751391E+00
   4.0022218E-04   9.4462242E+04   -1.6746150E+00
   4.0207045E-04   9.3736313E+04   -1.6740917E+00
   4.0392725E-04   9.3016187E+04   -1.6735692E+00
   4.0579263E-04   9.2301815E+04   -1.6730473E+00
   4.0766662E-04   9.1593150E+04   -1.6725262E+00
   4.0954927E-04   9.0890144E+04   -1.6720059E+00
   4.1144061E-04   9.0192750E+04   -1.6714863E+00
   4.1334068E-04   8.9500920E+04   -1.6709674E+00
   4.1524953E-04   8.8814610E+04   -1.6704493E+00
   4.1716720E-04   8.8133773E+04   -1.6699320E+00
   4.1909372E-04   8.7458363E+04   -1.6694154E+00
   4.2102914E-04   8.6788335E+04   -1.6688996E+00
   4.2297350E-04   8.6123645E+04   -1.6683845E+00
   4.2492683E-04   8.5464249E+04   -1.6678702E+00
   4.2688919E-04   8.4810102E+04   -1.6673567E+00
   4.2886061E-04   8.4161161E+04   -1.6668440E+00
   4.3084113E-04   8.3517382E+04   -1.6663321E+00
   4.3283080E-04   8.2878724E+04   -1.6658210E+00
   4.3482966E-04   8.2245142E+04   -1.6653106E+00
   4.3683775E-04   8.1616596E+04   -1.6648010E+00
   4.3885511E-04   8.0993044E+04   -1.6642923E+00
   4.4088179E-04   8.0374444E+04   -1.6637843E+00
   4.4291783E-04   7.9760755E+04   -1.6632772E+00
   4.4496327E-04   7.9151936E+04   -1.6627708E+00
   4.4701816E-04   7.8547948E+04   -1.6622653E+00
   4.4908253E-04   7.7948750E+04   -1.6617606E+00
   4.5115644E-04   7.7354302E+04   -1.6612567E+00
   4.5323993E-04   7.6764566E+04   -1.6607536E+00
   4.5533304E-04   7.6179503E+04   -1.6602514E+00
   4.5743582E-04   7.5599074E+04   -1.6597500E+00
   4.5954830E-04   7.5023240E+04   -1.6592494E+00
   4.6167054E-04   7.4451964E+04   -1.6587497E+00
   4.6380259E-04   7.3885208E+04   -1.6582508E+00
   4.6594448E-04   7.3322934E+04   -1.6577527E+00
   4.6809626E-04   7.2765106E+04   -1.6572555E+00
   4.7025797E-04   7.2211688E+04   -1.6567591E+00
   4.7242967E-04   7.1662642E+04   -1.6562636E+00
   4.7461140E-04   7.1117933E+04   -1.6557689E+00
   4.7680321E-04   7.0577525E+04   -1.6552751E+00
   4.7900514E-04   7.0041383E+04   -1.6547822E+00
   4.8121723E-04   6.9509471E+04   -1.6542901E+00
   4.8343954E-04   6.8981755E+04   -1.6537989E+00
   4.8567212E-04   6.8458201E+04   -1.6533085E+00
   4.8791500E-04   6.7938773E+04   -1.6528191E+00
   4.9016825E-04   6.7423439E+04   -1.6523305E+00
   4.9243189E-04   6.6912163E+04   -1.6518427E+00
   4.9470600E-04   6.6404914E+04   -1.6513559E+00
   4.9699060E-04   6.5901658E+04   -1.6508699E+00
   4.9928575E-04   6.5402363E+04   -1.6503849E+00
   5.0159151E-04   6.4906995E+04   -1.6499007E+00
   5.0390791E-04   6.4415522E+04   -1.6494174E+00
   5.0623501E-04   6.3927913E+04   -1.6489350E+00
   5.0857286E-04   6.3444137E+04   -1.6484535E+00
   5.1092150E-04   6.2964160E+04   -1.6479729E+00
   5.1328099E-04   6.2487953E+04   -1.6474932E+00
   5.1565137E-04   6.2015485E+04   -1.6470144E+00
   5.1803270E-04   6.1546725E+04   -1.6465365E+00
   5.2042503E-04   6.1081642E+04   -1.6460596E+00
   5.2282841E-04   6.0620207E+04   -1.6455835E+00
   5.2524289E-04   6.0162390E+04   -1.6451083E+00
   5.2766851E-04   5.9708160E+04   -1.6446341E+00
   5.3010534E-04   5.9257490E+04   -1.6441608E+00
   5.3255342E-04   5.8810349E+04   -1.6436884E+00
   5.3501281E-04   5.8366709E+04   -1.6432169E+00
   5.3748356E-04   5.7926542E+04   -1.6427464E+00
   5.3996571E-04   5.7489818E+04   -1.6422768E+00
   5.4245933E-04   5.7056510E+04   -1.6418081E+00
   5.4496446E-04   5.6626591E+04   -1.6413403E+00
   5.4748117E-04   5.6200032E+04   -1.6408735E+00
   5.5000949E-04   5.5776806E+04   -1.6404077E+00
   5.5254949E-04   5.5356885E+04   -1.6399427E+00
   5.5510123E-04   5.4940244E+04   -1.6394787E+00
   5.5766474E-04   5.4526855E+04   -1.6390157E+00
   5.6024010E-04   5.4116692E+04   -1.6385535E+00
   5.6282734E-04   5.3709729E+04   -1.6380924E+00
   5.6542654E-04   5.3305939E+04   -1.6376322E+00
   5.6803774E-04   5.2905296E+04   -1.6371729E+00
   5.7066099E-04   5.2507776E+04   -1.6367146E+00
   5.7329637E-04   5.2113353E+04   -1.6362572E+00
   5.7594391E-04   5.1722001E+04   -1.6358008E+00
   5.7860368E-04   5.1333697E+04   -1.6353454E+00
   5.8127573E-04   5.0948414E+04   -1.6348909E+00
   5.8396012E-04   5.0566129E+04   -1.6344374E+00
   5.8665691E-04   5.0186816E+04   -1.6339849E+00
   5.8936616E-04   4.9810453E+04   -1.6335333E+00
   5.9208791E-04   4.9437016E+04   -1.6330827E+00
   5.9482223E-04   4.9066479E+04   -1.6326330E+00
   5.9756919E-04   4.8698821E+04   -1.6321843E+00
   6.0032882E-04   4.8334017E+04   -1.6317366E+00
   6.0310120E-04   4.7972045E+04   -1.6312899E+00
   6.0588639E-04   4.7612882E+04   -1.6308441E+00
   6.0868443E-04   4.7256504E+04   -1.6303993E+00
   6.1149540E-04   4.6902890E+04   -1.6299555E+00
   6.1431935E-04   4.6552017E+04   -1.6295127E+00
   6.1715634E-04   4.6203864E+04   -1.6290709E+00
   6.2000644E-04   4.5858407E+04   -1.6286300E+00
   6.2286969E-04   4.5515626E+04   -1.6281901E+00
