#        a       HoverH0(a)       dlogHdloga_of_a(a)
   1.0000000E-04   1.1135124E+06   -1.8593072E+00
   1.0046181E-04   1.1040152E+06   -1.8588408E+00
   1.0092575E-04   1.0946014E+06   -1.8583736E+00
   1.0139184E-04   1.0852701E+06   -1.8579054E+00
   1.0186008E-04   1.0760208E+06   -1.8574363E+00
   1.0233048E-04   1.0668525E+06   -1.8569662E+00
   1.0280305E-04   1.0577647E+06   -1.8564953E+00
   1.0327781E-04   1.0487566E+06   -1.8560234E+00
   1.0375475E-04   1.0398274E+06   -1.8555505E+00
   1.0423390E-04   1.0309766E+06   -1.8550768E+00
   1.0471527E-04   1.0222032E+06   -1.8546021E+00
   1.0519885E-04   1.0135068E+06   -1.8541265E+00
   1.0568467E-04   1.0048866E+06   -1.8536501E+00
   1.0617274E-04   9.9634182E+05   -1.8531726E+00
   1.0666305E-04   9.8787191E+05   -1.8526943E+00
   1.0715563E-04   9.7947617E+05   -1.8522151E+00
   1.0765049E-04   9.7115393E+05   -1.8517350E+00
   1.0814763E-04   9.6290453E+05   -1.8512540E+00
   1.0864707E-04   9.5472733E+05   -1.8507720E+00
   1.0914881E-04   9.4662167E+05   -1.8502892E+00
   1.0965287E-04   9.3858692E+05   -1.8498055E+00
   1.1015926E-04   9.3062244E+05   -1.8493209E+00
   1.1066799E-04   9.2272760E+05   -1.8488354E+00
   1.1117906E-04   9.1490179E+05   -1.8483490E+00
   1.1169250E-04   9.0714439E+05   -1.8478618E+00
   1.1220831E-04   8.9945478E+05   -1.8473736E+00
   1.1272650E-04   8.9183236E+05   -1.8468846E+00
   1.1324708E-04   8.8427653E+05   -1.8463947E+00
   1.1377007E-04   8.7678670E+05   -1.8459040E+00
   1.1429547E-04   8.6936228E+05   -1.8454124E+00
   1.1482330E-04   8.6200267E+05   -1.8449199E+00
   1.1535356E-04   8.5470732E+05   -1.8444265E+00
   1.1588628E-04   8.4747563E+05   -1.8439323E+00
   1.1642145E-04   8.4030704E+05   -1.8434372E+00
   1.1695910E-04   8.3320100E+05   -1.8429413E+00
   1.1749923E-04   8.2615693E+05   -1.8424445E+00
   1.1804185E-04   8.1917430E+05   -1.8419469E+00
   1.1858698E-04   8.1225254E+05   -1.8414484E+00
   1.1913463E-04   8.0539112E+05   -1.8409491E+00
   1.1968481E-04   7.9858950E+05   -1.8404490E+00
   1.2023752E-04   7.9184715E+05   -1.8399480E+00
   1.2079279E-04   7.8516354E+05   -1.8394462E+00
   1.2135063E-04   7.7853814E+05   -1.8389435E+00
   1.2191104E-04   7.7197044E+05   -1.8384401E+00
   1.2247403E-04   7.6545992E+05   -1.8379358E+00
   1.2303963E-04   7.5900608E+05   -1.8374307E+00
   1.2360784E-04   7.5260840E+05   -1.8369248E+00
   1.2417868E-04   7.4626638E+05   -1.8364180E+00
   1.2475215E-04   7.3997954E+05   -1.8359105E+00
   1.2532826E-04   7.3374738E+05   -1.8354021E+00
   1.2590704E-04   7.2756941E+05   -1.8348930E+00
   1.2648850E-04   7.2144515E+05   -1.8343831E+00
   1.2707263E-04   7.1537413E+05   -1.8338723E+00
   1.2765947E-04   7.0935586E+05   -1.8333608E+00
   1.2824901E-04   7.0338988E+05   -1.8328485E+00
   1.2884128E-04   6.9747573E+05   -1.8323354E+00
   1.2943628E-04   6.9161294E+05   -1.8318215E+00
   1.3003403E-04   6.8580106E+05   -1.8313069E+00
   1.3063454E-04   6.8003963E+05   -1.8307914E+00
   1.3123783E-04   6.7432820E+05   -1.8302753E+00
   1.3184390E-04   6.6866633E+05   -1.8297583E+00
   1.3245277E-04   6.6305359E+05   -1.8292406E+00
   1.3306445E-04   6.5748952E+05   -1.8287221E+00
   1.3367895E-04   6.5197371E+05   -1.8282029E+00
   1.3429630E-04   6.4650571E+05   -1.8276829E+00
   1.3491649E-04   6.4108511E+05   -1.8271622E+00
   1.3553955E-04   6.3571149E+05   -1.8266407E+00
   1.3616548E-04   6.3038442E+05   -1.8261185E+00
   1.3679431E-04   6.2510350E+05   -1.8255956E+00
   1.3742604E-04   6.1986832E+05   -1.8250720E+00
   1.3806069E-04   6.1467846E+05   -1.8245476E+00
   1.3869827E-04   6.0953353E+05   -1.8240225E+00
   1.3933879E-04   6.0443312E+05   -1.8234966E+00
   1.3998227E-04   5.9937685E+05   -1.8229701E+00
   1.4062872E-04   5.9436432E+05   -1.8224429E+00
   1.4127816E-04   5.8939514E+05   -1.8219149E+00
   1.4193060E-04   5.8446892E+05   -1.8213863E+00
   1.4258605E-04   5.7958529E+05   -1.8208569E+00
   1.4324453E-04   5.7474388E+05   -1.8203269E+00
   1.4390605E-04   5.6994429E+05   -1.8197962E+00
   1.4457062E-04   5.6518617E+05   -1.8192647E+00
   1.4523826E-04   5.6046915E+05   -1.8187327E+00
   1.4590899E-04   5.5579285E+05   -1.8181999E+00
   1.4658281E-04   5.5115693E+05   -1.8176665E+00
   1.4725974E-04   5.4656102E+05   -1.8171324E+00
   1.4793981E-04   5.4200477E+05   -1.8165976E+00
   1.4862301E-04   5.3748783E+05   -1.8160622E+00
   1.4930936E-04   5.3300984E+05   -1.8155261E+00
   1.4999889E-04   5.2857047E+05   -1.8149894E+00
   1.5069160E-04   5.2416937E+05   -1.8144520E+00
   1.5138751E-04   5.1980620E+05   -1.8139140E+00
   1.5208663E-04   5.1548063E+05   -1.8133754E+00
   1.5278899E-04   5.1119232E+05   -1.8128361E+00
   1.5349458E-04   5.0694096E+05   -1.8122963E+00
   1.5420343E-04   5.0272619E+05   -1.8117558E+00
   1.5491556E-04   4.9854772E+05   -1.8112146E+00
   1.5563098E-04   4.9440520E+05   -1.8106729E+00
   1.5634970E-04   4.9029834E+05   -1.8101305E+00
   1.5707174E-04   4.8622680E+05   -1.8095876E+00
   1.5779711E-04   4.8219028E+05   -1.8090441E+00
   1.5852584E-04   4.7818846E+05   -1.8084999E+00
   1.5925792E-04   4.7422105E+05   -1.8079552E+00
   1.5999339E-04   4.7028774E+05   -1.8074099E+00
   1.6073226E-04   4.6638822E+05   -1.8068640E+00
   1.6147454E-04   4.6252220E+05   -1.8063176E+00
   1.6222024E-04   4.5868938E+05   -1.8057706E+00
   1.6296939E-04   4.5488947E+05   -1.8052230E+00
   1.6372200E-04   4.5112219E+05   -1.8046748E+00
   1.6447809E-04   4.4738723E+05   -1.8041261E+00
   1.6523767E-04   4.4368431E+05   -1.8035769E+00
   1.6600075E-04   4.4001316E+05   -1.8030271E+00
   1.6676736E-04   4.3637349E+05   -1.8024768E+00
   1.6753751E-04   4.3276502E+05   -1.8019260E+00
   1.6831122E-04   4.2918748E+05   -1.8013746E+00
   1.6908849E-04   4.2564060E+05   -1.8008227E+00
   1.6986936E-04   4.2212411E+05   -1.8002702E+00
   1.7065384E-04   4.1863773E+05   -1.7997173E+00
   1.7144193E-04   4.1518120E+05   -1.7991639E+00
   1.7223367E-04   4.1175427E+05   -1.7986099E+00
   1.7302906E-04   4.0835666E+05   -1.7980555E+00
   1.7382813E-04   4.0498813E+05   -1.7975006E+00
   1.7463089E-04   4.0164840E+05   -1.7969451E+00
   1.7543735E-04   3.9833724E+05   -1.7963892E+00
   1.7624754E-04   3.9505439E+05   -1.7958329E+00
   1.7706147E-04   3.9179960E+05   -1.7952760E+00
   1.7787916E-04   3.8857262E+05   -1.7947187E+00
   1.7870062E-04   3.8537321E+05   -1.7941609E+00
   1.7952588E-04   3.8220113E+05   -1.7936027E+00
   1.8035495E-04   3.7905613E+05   -1.7930440E+00
   1.8118785E-04   3.7593798E+05   -1.7924849E+00
   1.8202459E-04   3.7284644E+05   -1.7919254E+00
   1.8286520E-04   3.6978127E+05   -1.7913654E+00
   1.8370969E-04   3.6674226E+05   -1.7908050E+00
   1.8455808E-04   3.6372915E+05   -1.7902441E+00
   1.8541039E-04   3.6074174E+05   -1.7896829E+00
   1.8626663E-04   3.5777979E+05   -1.7891212E+00
   1.8712683E-04   3.5484307E+05   -1.7885592E+00
   1.8799100E-04   3.5193137E+05   -1.7879967E+00
   1.8885917E-04   3.4904447E+05   -1.7874338E+00
   1.8973134E-04   3.4618215E+05   -1.7868706E+00
   1.9060754E-04   3.4334420E+05   -1.7863069E+00
   1.9148778E-04   3.4053039E+05   -1.7857429E+00
   1.9237209E-04   3.3774052E+05   -1.7851785E+00
   1.9326049E-04   3.3497437E+05   -1.7846138E+00
   1.9415299E-04   3.3223175E+05   -1.7840487E+00
   1.9504960E-04   3.2951244E+05   -1.7834832E+00
   1.9595036E-04   3.2681625E+05   -1.7829174E+00
   1.9685528E-04   3.2414295E+05   -1.7823512E+00
   1.9776438E-04   3.2149237E+05   -1.7817847E+00
   1.9867768E-04   3.1886429E+05   -1.7812179E+00
   1.9959519E-04   3.1625852E+05   -1.7806508E+00
   2.0051694E-04   3.1367486E+05   -1.7800833E+00
   2.0144295E-04   3.1111313E+05   -1.7795155E+00
   2.0237324E-04   3.0857312E+05   -1.7789474E+00
   2.0330782E-04   3.0605465E+05   -1.7783790E+00
   2.0424671E-04   3.0355754E+05   -1.7778103E+00
   2.0518995E-04   3.0108158E+05   -1.7772413E+00
   2.0613754E-04   2.9862660E+05   -1.7766720E+00
   2.0708950E-04   2.9619242E+05   -1.7761024E+00
   2.0804586E-04   2.9377885E+05   -1.7755326E+00
   2.0900664E-04   2.9138572E+05   -1.7749625E+00
   2.0997185E-04   2.8901284E+05   -1.7743921E+00
   2.1094152E-04   2.8666003E+05   -1.7738215E+00
   2.1191567E-04   2.8432713E+05   -1.7732506E+00
   2.1289432E-04   2.8201395E+05   -1.7726795E+00
   2.1387749E-04   2.7972033E+05   -1.7721082E+00
   2.1486520E-04   2.7744609E+05   -1.7715366E+00
   2.1585747E-04   2.7519107E+05   -1.7709648E+00
   2.1685432E-04   2.7295510E+05   -1.7703927E+00
   2.1785578E-04   2.7073801E+05   -1.7698205E+00
   2.1886186E-04   2.6853963E+05   -1.7692480E+00
   2.1987259E-04   2.6635981E+05   -1.7686753E+00
   2.2088798E-04   2.6419838E+05   -1.7681025E+00
   2.2190807E-04   2.6205518E+05   -1.7675294E+00
   2.2293286E-04   2.5993005E+05   -1.7669562E+00
   2.2396239E-04   2.5782284E+05   -1.7663828E+00
   2.2499667E-04   2.5573339E+05   -1.7658092E+00
   2.2603573E-04   2.5366154E+05   -1.7652354E+00
   2.2707958E-04   2.5160714E+05   -1.7646615E+00
   2.2812826E-04   2.4957004E+05   -1.7640874E+00
   2.2918178E-04   2.4755008E+05   -1.7635132E+00
   2.3024017E-04   2.4554713E+05   -1.7629388E+00
   2.3130344E-04   2.4356103E+05   -1.7623643E+00
   2.3237162E-04   2.4159163E+05   -1.7617896E+00
   2.3344474E-04   2.3963879E+05   -1.7612149E+00
   2.3452281E-04   2.3770236E+05   -1.7606400E+00
   2.3560586E-04   2.3578221E+05   -1.7600650E+00
   2.3669392E-04   2.3387818E+05   -1.7594899E+00
   2.3778699E-04   2.3199015E+05   -1.7589147E+00
   2.3888512E-04   2.3011797E+05   -1.7583394E+00
   2.3998831E-04   2.2826150E+05   -1.7577640E+00
   2.4109661E-04   2.2642061E+05   -1.7571885E+00
   2.4221001E-04   2.2459516E+05   -1.7566130E+00
   2.4332857E-04   2.2278502E+05   -1.7560374E+00
   2.4445228E-04   2.2099006E+05   -1.7554617E+00
   2.4558119E-04   2.1921014E+05   -1.7548859E+00
   2.4671531E-04   2.1744513E+05   -1.7543101E+00
   2.4785467E-04   2.1569490E+05   -1.7537343E+00
   2.4899928E-04   2.1395933E+05   -1.7531584E+00
   2.5014919E-04   2.1223829E+05   -1.7525825E+00
   2.5130440E-04   2.1053165E+05   -1.7520066E+00
   2.5246495E-04   2.0883929E+05   -1.7514306E+00
   2.5363086E-04   2.0716108E+05   -1.7508546E+00
   2.5480216E-04   2.0549691E+05   -1.7502786E+00
   2.5597886E-04   2.0384664E+05   -1.7497026E+00
   2.5716100E-04   2.0221016E+05   -1.7491266E+00
   2.5834859E-04   2.0058735E+05   -1.7485507E+00
   2.5954168E-04   1.9897810E+05   -1.7479747E+00
   2.6074027E-04   1.9738228E+05   -1.7473987E+00
   2.6194439E-04   1.9579977E+05   -1.7468228E+00
   2.6315408E-04   1.9423047E+05   -1.7462469E+00
   2.6436935E-04   1.9267426E+05   -1.7456711E+00
   2.6559024E-04   1.9113103E+05   -1.7450953E+00
   2.6681676E-04   1.8960065E+05   -1.7445195E+00
   2.6804895E-04   1.8808303E+05   -1.7439439E+00
   2.6928683E-04   1.8657806E+05   -1.7433682E+00
   2.7053042E-04   1.8508561E+05   -1.7427927E+00
   2.7177976E-04   1.8360559E+05   -1.7422172E+00
   2.7303487E-04   1.8213789E+05   -1.7416418E+00
   2.7429577E-04   1.8068240E+05   -1.7410665E+00
   2.7556250E-04   1.7923902E+05   -1.7404913E+00
   2.7683507E-04   1.7780764E+05   -1.7399162E+00
   2.7811353E-04   1.7638815E+05   -1.7393411E+00
   2.7939788E-04   1.7498046E+05   -1.7387663E+00
   2.8068817E-04   1.7358447E+05   -1.7381915E+00
   2.8198442E-04   1.7220007E+05   -1.7376168E+00
   2.8328665E-04   1.7082716E+05   -1.7370423E+00
   2.8459490E-04   1.6946565E+05   -1.7364679E+00
   2.8590919E-04   1.6811543E+05   -1.7358937E+00
   2.8722955E-04   1.6677641E+05   -1.7353196E+00
   2.8855600E-04   1.6544850E+05   -1.7347456E+00
   2.8988859E-04   1.6413159E+05   -1.7341719E+00
   2.9122732E-04   1.6282559E+05   -1.7335982E+00
   2.9257224E-04   1.6153042E+05   -1.7330248E+00
   2.9392337E-04   1.6024596E+05   -1.7324515E+00
   2.9528074E-04   1.5897215E+05   -1.7318785E+00
   2.9664438E-04   1.5770887E+05   -1.7313056E+00
   2.9801431E-04   1.5645605E+05   -1.7307329E+00
   2.9939057E-04   1.5521358E+05   -1.7301604E+00
   3.0077319E-04   1.5398139E+05   -1.7295881E+00
   3.0216219E-04   1.5275939E+05   -1.7290161E+00
   3.0355761E-04   1.5154748E+05   -1.7284442E+00
   3.0495947E-04   1.5034558E+05   -1.7278726E+00
   3.0636780E-04   1.4915361E+05   -1.7273012E+00
   3.0778264E-04   1.4797148E+05   -1.7267301E+00
   3.0920401E-04   1.4679910E+05   -1.7261592E+00
   3.1063195E-04   1.4563640E+05   -1.7255886E+00
   3.1206648E-04   1.4448328E+05   -1.7250182E+00
   3.1350764E-04   1.4333967E+05   -1.7244480E+00
   3.1495545E-04   1.4220548E+05   -1.7238782E+00
   3.1640994E-04   1.4108065E+05   -1.7233086E+00
   3.1787116E-04   1.3996507E+05   -1.7227393E+00
   3.1933912E-04   1.3885868E+05   -1.7221702E+00
   3.2081386E-04   1.3776140E+05   -1.7216015E+00
   3.2229541E-04   1.3667314E+05   -1.7210331E+00
   3.2378381E-04   1.3559384E+05   -1.7204650E+00
   3.2527908E-04   1.3452341E+05   -1.7198971E+00
   3.2678125E-04   1.3346179E+05   -1.7193296E+00
   3.2829036E-04   1.3240888E+05   -1.7187624E+00
   3.2980644E-04   1.3136463E+05   -1.7181956E+00
   3.3132952E-04   1.3032895E+05   -1.7176290E+00
   3.3285963E-04   1.2930178E+05   -1.7170628E+00
   3.3439681E-04   1.2828303E+05   -1.7164970E+00
   3.3594109E-04   1.2727264E+05   -1.7159315E+00
   3.3749250E-04   1.2627054E+05   -1.7153663E+00
   3.3905108E-04   1.2527666E+05   -1.7148016E+00
   3.4061685E-04   1.2429092E+05   -1.7142371E+00
   3.4218986E-04   1.2331326E+05   -1.7136731E+00
   3.4377013E-04   1.2234361E+05   -1.7131094E+00
   3.4535769E-04   1.2138190E+05   -1.7125461E+00
   3.4695259E-04   1.2042806E+05   -1.7119832E+00
   3.4855485E-04   1.1948202E+05   -1.7114207E+00
   3.5016452E-04   1.1854373E+05   -1.7108586E+00
   3.5178161E-04   1.1761310E+05   -1.7102969E+00
   3.5340618E-04   1.1669009E+05   -1.7097356E+00
   3.5503824E-04   1.1577461E+05   -1.7091747E+00
   3.5667785E-04   1.1486662E+05   -1.7086142E+00
   3.5832502E-04   1.1396604E+05   -1.7080542E+00
   3.5997981E-04   1.1307282E+05   -1.7074946E+00
   3.6164223E-04   1.1218688E+05   -1.7069355E+00
   3.6331233E-04   1.1130817E+05   -1.7063767E+00
   3.6499015E-04   1.1043663E+05   -1.7058185E+00
   3.6667571E-04   1.0957220E+05   -1.7052606E+00
   3.6836906E-04   1.0871481E+05   -1.7047033E+00
   3.7007022E-04   1.0786440E+05   -1.7041464E+00
   3.7177925E-04   1.0702093E+05   -1.7035900E+00
   3.7349616E-04   1.0618432E+05   -1.7030340E+00
   3.7522101E-04   1.0535452E+05   -1.7024786E+00
   3.7695382E-04   1.0453147E+05   -1.7019236E+00
   3.7869463E-04   1.0371512E+05   -1.7013691E+00
   3.8044348E-04   1.0290540E+05   -1.7008151E+00
   3.8220041E-04   1.0210227E+05   -1.7002616E+00
   3.8396545E-04   1.0130566E+05   -1.6997086E+00
   3.8573864E-04   1.0051553E+05   -1.6991561E+00
   3.8752002E-04   9.9731809E+04   -1.6986042E+00
   3.8930963E-04   9.8954453E+04   -1.6980527E+00
   3.9110750E-04   9.8183405E+04   -1.6975018E+00
   3.9291368E-04   9.7418612E+04   -1.6969514E+00
   3.9472820E-04   9.6660021E+04   -1.6964016E+00
   3.9655109E-04   9.5907581E+04   -1.6958523E+00
   3.9838241E-04   9.5161238E+04   -1.6953035E+00
   4.0022218E-04   9.4420942E+04   -1.6947553E+00
   4.0207045E-04   9.3686641E+04   -1.6942077E+00
   4.0392725E-04   9.2958286E+04   -1.6936606E+00
   4.0579263E-04   9.2235826E+04   -1.6931141E+00
   4.0766662E-04   9.1519210E+04   -1.6925682E+00
   4.0954927E-04   9.0808391E+04   -1.6920228E+00
   4.1144061E-04   9.0103319E+04   -1.6914780E+00
   4.1334068E-04   8.9403945E+04   -1.6909338E+00
   4.1524953E-04   8.8710222E+04   -1.6903902E+00
   4.1716720E-04   8.8022103E+04   -1.6898472E+00
   4.1909372E-04   8.7339539E+04   -1.6893048E+00
   4.2102914E-04   8.6662485E+04   -1.6887630E+00
   4.2297350E-04   8.5990894E+04   -1.6882218E+00
   4.2492683E-04   8.5324720E+04   -1.6876812E+00
   4.2688919E-04   8.4663918E+04   -1.6871413E+00
   4.2886061E-04   8.4008442E+04   -1.6866019E+00
   4.3084113E-04   8.3358248E+04   -1.6860632E+00
   4.3283080E-04   8.2713292E+04   -1.6855252E+00
   4.3482966E-04   8.2073529E+04   -1.6849877E+00
   4.3683775E-04   8.1438916E+04   -1.6844509E+00
   4.3885511E-04   8.0809409E+04   -1.6839148E+00
   4.4088179E-04   8.0184967E+04   -1.6833793E+00
   4.4291783E-04   7.9565546E+04   -1.6828445E+00
   4.4496327E-04   7.8951104E+04   -1.6823103E+00
   4.4701816E-04   7.8341600E+04   -1.6817768E+00
   4.4908253E-04   7.7736992E+04   -1.6812440E+00
   4.5115644E-04   7.7137240E+04   -1.6807118E+00
   4.5323993E-04   7.6542303E+04   -1.6801803E+00
   4.5533304E-04   7.5952140E+04   -1.6796495E+00
   4.5743582E-04   7.5366711E+04   -1.6791194E+00
   4.5954830E-04   7.4785978E+04   -1.6785900E+00
   4.6167054E-04   7.4209900E+04   -1.6780612E+00
   4.6380259E-04   7.3638439E+04   -1.6775332E+00
   4.6594448E-04   7.3071556E+04   -1.6770059E+00
   4.6809626E-04   7.2509213E+04   -1.6764793E+00
   4.7025797E-04   7.1951373E+04   -1.6759534E+00
   4.7242967E-04   7.1397997E+04   -1.6754282E+00
   4.7461140E-04   7.0849048E+04   -1.6749037E+00
   4.7680321E-04   7.0304489E+04   -1.6743800E+00
   4.7900514E-04   6.9764285E+04   -1.6738569E+00
   4.8121723E-04   6.9228398E+04   -1.6733347E+00
   4.8343954E-04   6.8696792E+04   -1.6728131E+00
   4.8567212E-04   6.8169433E+04   -1.6722923E+00
   4.8791500E-04   6.7646284E+04   -1.6717722E+00
   4.9016825E-04   6.7127310E+04   -1.6712529E+00
   4.9243189E-04   6.6612478E+04   -1.6707344E+00
   4.9470600E-04   6.6101751E+04   -1.6702166E+00
   4.9699060E-04   6.5595097E+04   -1.6696995E+00
   4.9928575E-04   6.5092481E+04   -1.6691832E+00
   5.0159151E-04   6.4593870E+04   -1.6686677E+00
   5.0390791E-04   6.4099230E+04   -1.6681530E+00
   5.0623501E-04   6.3608529E+04   -1.6676390E+00
   5.0857286E-04   6.3121734E+04   -1.6671258E+00
   5.1092150E-04   6.2638812E+04   -1.6666134E+00
   5.1328099E-04   6.2159732E+04   -1.6661018E+00
   5.1565137E-04   6.1684461E+04   -1.6655910E+00
   5.1803270E-04   6.1212968E+04   -1.6650809E+00
   5.2042503E-04   6.0745221E+04   -1.6645717E+00
   5.2282841E-04   6.0281190E+04   -1.6640632E+00
   5.2524289E-04   5.9820844E+04   -1.6635556E+00
   5.2766851E-04   5.9364152E+04   -1.6630488E+00
   5.3010534E-04   5.8911084E+04   -1.6625427E+00
   5.3255342E-04   5.8461610E+04   -1.6620375E+00
   5.3501281E-04   5.8015700E+04   -1.6615331E+00
   5.3748356E-04   5.7573325E+04   -1.6610296E+00
   5.3996571E-04   5.7134455E+04   -1.6605268E+00
   5.4245933E-04   5.6699063E+04   -1.6600249E+00
   5.4496446E-04   5.6267118E+04   -1.6595238E+00
   5.4748117E-04   5.5838593E+04   -1.6590236E+00
   5.5000949E-04   5.5413459E+04   -1.6585242E+00
   5.5254949E-04   5.4991688E+04   -1.6580256E+00
   5.5510123E-04   5.4573252E+04   -1.6575279E+00
   5.5766474E-04   5.4158125E+04   -1.6570310E+00
   5.6024010E-04   5.3746278E+04   -1.6565349E+00
   5.6282734E-04   5.3337685E+04   -1.6560398E+00
   5.6542654E-04   5.2932319E+04   -1.6555454E+00
   5.6803774E-04   5.2530154E+04   -1.6550520E+00
   5.7066099E-04   5.2131162E+04   -1.6545593E+00
   5.7329637E-04   5.1735318E+04   -1.6540676E+00
   5.7594391E-04   5.1342596E+04   -1.6535767E+00
   5.7860368E-04   5.0952970E+04   -1.6530867E+00
   5.8127573E-04   5.0566415E+04   -1.6525976E+00
   5.8396012E-04   5.0182906E+04   -1.6521093E+00
   5.8665691E-04   4.9802417E+04   -1.6516220E+00
   5.8936616E-04   4.9424925E+04   -1.6511355E+00
   5.9208791E-04   4.9050403E+04   -1.6506499E+00
   5.9482223E-04   4.8678828E+04   -1.6501651E+00
   5.9756919E-04   4.8310175E+04   -1.6496813E+00
   6.0032882E-04   4.7944422E+04   -1.6491984E+00
   6.0310120E-04   4.7581543E+04   -1.6487163E+00
   6.0588639E-04   4.7221515E+04   -1.6482352E+00
   6.0868443E-04   4.6864316E+04   -1.6477549E+00
   6.1149540E-04   4.6509921E+04   -1.6472756E+00
   6.1431935E-04   4.6158308E+04   -1.6467971E+00
   6.1715634E-04   4.5809454E+04   -1.6463196E+00
   6.2000644E-04   4.5463337E+04   -1.6458430E+00
   6.2286969E-04   4.5119934E+04   -1.6453673E+00
