#        a       HoverH0(a)       dlogHdloga_of_a(a)
   1.0000000E-04   1.1650241E+06   -1.9112204E+00
   1.0046181E-04   1.1548109E+06   -1.9108835E+00
   1.0092575E-04   1.1446891E+06   -1.9105455E+00
   1.0139184E-04   1.1346578E+06   -1.9102066E+00
   1.0186008E-04   1.1247161E+06   -1.9098667E+00
   1.0233048E-04   1.1148632E+06   -1.9095257E+00
   1.0280305E-04   1.1050985E+06   -1.9091838E+00
   1.0327781E-04   1.0954210E+06   -1.9088408E+00
   1.0375475E-04   1.0858299E+06   -1.9084969E+00
   1.0423390E-04   1.0763245E+06   -1.9081519E+00
   1.0471527E-04   1.0669041E+06   -1.9078059E+00
   1.0519885E-04   1.0575677E+06   -1.9074590E+00
   1.0568467E-04   1.0483148E+06   -1.9071110E+00
   1.0617274E-04   1.0391445E+06   -1.9067620E+00
   1.0666305E-04   1.0300560E+06   -1.9064120E+00
   1.0715563E-04   1.0210487E+06   -1.9060610E+00
   1.0765049E-04   1.0121218E+06   -1.9057089E+00
   1.0814763E-04   1.0032746E+06   -1.9053559E+00
   1.0864707E-04   9.9450636E+05   -1.9050018E+00
   1.0914881E-04   9.8581634E+05   -1.9046468E+00
   1.0965287E-04   9.7720385E+05   -1.9042907E+00
   1.1015926E-04   9.6866819E+05   -1.9039336E+00
   1.1066799E-04   9.6020867E+05   -1.9035755E+00
   1.1117906E-04   9.5182461E+05   -1.9032164E+00
   1.1169250E-04   9.4351531E+05   -1.9028562E+00
   1.1220831E-04   9.3528010E+05   -1.9024951E+00
   1.1272650E-04   9.2711832E+05   -1.9021329E+00
   1.1324708E-04   9.1902930E+05   -1.9017697E+00
   1.1377007E-04   9.1101238E+05   -1.9014055E+00
   1.1429547E-04   9.0306692E+05   -1.9010403E+00
   1.1482330E-04   8.9519226E+05   -1.9006741E+00
   1.1535356E-04   8.8738776E+05   -1.9003068E+00
   1.1588628E-04   8.7965280E+05   -1.8999385E+00
   1.1642145E-04   8.7198674E+05   -1.8995692E+00
   1.1695910E-04   8.6438896E+05   -1.8991989E+00
   1.1749923E-04   8.5685885E+05   -1.8988276E+00
   1.1804185E-04   8.4939579E+05   -1.8984552E+00
   1.1858698E-04   8.4199917E+05   -1.8980818E+00
   1.1913463E-04   8.3466841E+05   -1.8977074E+00
   1.1968481E-04   8.2740290E+05   -1.8973320E+00
   1.2023752E-04   8.2020205E+05   -1.8969556E+00
   1.2079279E-04   8.1306529E+05   -1.8965781E+00
   1.2135063E-04   8.0599203E+05   -1.8961996E+00
   1.2191104E-04   7.9898170E+05   -1.8958201E+00
   1.2247403E-04   7.9203372E+05   -1.8954396E+00
   1.2303963E-04   7.8514755E+05   -1.8950581E+00
   1.2360784E-04   7.7832262E+05   -1.8946755E+00
   1.2417868E-04   7.7155837E+05   -1.8942919E+00
   1.2475215E-04   7.6485427E+05   -1.8939073E+00
   1.2532826E-04   7.5820976E+05   -1.8935217E+00
   1.2590704E-04   7.5162431E+05   -1.8931350E+00
   1.2648850E-04   7.4509739E+05   -1.8927473E+00
   1.2707263E-04   7.3862846E+05   -1.8923587E+00
   1.2765947E-04   7.3221702E+05   -1.8919689E+00
   1.2824901E-04   7.2586253E+05   -1.8915782E+00
   1.2884128E-04   7.1956449E+05   -1.8911864E+00
   1.2943628E-04   7.1332238E+05   -1.8907937E+00
   1.3003403E-04   7.0713571E+05   -1.8903999E+00
   1.3063454E-04   7.0100396E+05   -1.8900050E+00
   1.3123783E-04   6.9492665E+05   -1.8896092E+00
   1.3184390E-04   6.8890328E+05   -1.8892123E+00
   1.3245277E-04   6.8293338E+05   -1.8888144E+00
   1.3306445E-04   6.7701644E+05   -1.8884155E+00
   1.3367895E-04   6.7115201E+05   -1.8880156E+00
   1.3429630E-04   6.6533961E+05   -1.8876147E+00
   1.3491649E-04   6.5957876E+05   -1.8872127E+00
   1.3553955E-04   6.5386900E+05   -1.8868097E+00
   1.3616548E-04   6.4820988E+05   -1.8864058E+00
   1.3679431E-04   6.4260094E+05   -1.8860007E+00
   1.3742604E-04   6.3704172E+05   -1.8855947E+00
   1.3806069E-04   6.3153177E+05   -1.8851877E+00
   1.3869827E-04   6.2607066E+05   -1.8847796E+00
   1.3933879E-04   6.2065794E+05   -1.8843705E+00
   1.3998227E-04   6.1529318E+05   -1.8839605E+00
   1.4062872E-04   6.0997594E+05   -1.8835494E+00
   1.4127816E-04   6.0470580E+05   -1.8831372E+00
   1.4193060E-04   5.9948233E+05   -1.8827241E+00
   1.4258605E-04   5.9430512E+05   -1.8823100E+00
   1.4324453E-04   5.8917374E+05   -1.8818948E+00
   1.4390605E-04   5.8408778E+05   -1.8814787E+00
   1.4457062E-04   5.7904685E+05   -1.8810615E+00
   1.4523826E-04   5.7405052E+05   -1.8806433E+00
   1.4590899E-04   5.6909840E+05   -1.8802241E+00
   1.4658281E-04   5.6419010E+05   -1.8798039E+00
   1.4725974E-04   5.5932521E+05   -1.8793827E+00
   1.4793981E-04   5.5450334E+05   -1.8789605E+00
   1.4862301E-04   5.4972412E+05   -1.8785373E+00
   1.4930936E-04   5.4498715E+05   -1.8781131E+00
   1.4999889E-04   5.4029205E+05   -1.8776878E+00
   1.5069160E-04   5.3563846E+05   -1.8772616E+00
   1.5138751E-04   5.3102599E+05   -1.8768344E+00
   1.5208663E-04   5.2645428E+05   -1.8764062E+00
   1.5278899E-04   5.2192296E+05   -1.8759769E+00
   1.5349458E-04   5.1743166E+05   -1.8755467E+00
   1.5420343E-04   5.1298003E+05   -1.8751155E+00
   1.5491556E-04   5.0856771E+05   -1.8746833E+00
   1.5563098E-04   5.0419435E+05   -1.8742501E+00
   1.5634970E-04   4.9985960E+05   -1.8738159E+00
   1.5707174E-04   4.9556311E+05   -1.8733807E+00
   1.5779711E-04   4.9130453E+05   -1.8729445E+00
   1.5852584E-04   4.8708353E+05   -1.8725073E+00
   1.5925792E-04   4.8289976E+05   -1.8720692E+00
   1.5999339E-04   4.7875290E+05   -1.8716300E+00
   1.6073226E-04   4.7464261E+05   -1.8711899E+00
   1.6147454E-04   4.7056857E+05   -1.8707488E+00
   1.6222024E-04   4.6653044E+05   -1.8703067E+00
   1.6296939E-04   4.6252791E+05   -1.8698636E+00
   1.6372200E-04   4.5856066E+05   -1.8694195E+00
   1.6447809E-04   4.5462837E+05   -1.8689745E+00
   1.6523767E-04   4.5073072E+05   -1.8685284E+00
   1.6600075E-04   4.4686741E+05   -1.8680814E+00
   1.6676736E-04   4.4303812E+05   -1.8676335E+00
   1.6753751E-04   4.3924255E+05   -1.8671845E+00
   1.6831122E-04   4.3548041E+05   -1.8667346E+00
   1.6908849E-04   4.3175138E+05   -1.8662837E+00
   1.6986936E-04   4.2805517E+05   -1.8658319E+00
   1.7065384E-04   4.2439150E+05   -1.8653791E+00
   1.7144193E-04   4.2076005E+05   -1.8649253E+00
   1.7223367E-04   4.1716056E+05   -1.8644705E+00
   1.7302906E-04   4.1359272E+05   -1.8640148E+00
   1.7382813E-04   4.1005627E+05   -1.8635582E+00
   1.7463089E-04   4.0655090E+05   -1.8631005E+00
   1.7543735E-04   4.0307636E+05   -1.8626420E+00
   1.7624754E-04   3.9963235E+05   -1.8621824E+00
   1.7706147E-04   3.9621861E+05   -1.8617219E+00
   1.7787916E-04   3.9283486E+05   -1.8612605E+00
   1.7870062E-04   3.8948085E+05   -1.8607981E+00
   1.7952588E-04   3.8615629E+05   -1.8603348E+00
   1.8035495E-04   3.8286092E+05   -1.8598706E+00
   1.8118785E-04   3.7959449E+05   -1.8594053E+00
   1.8202459E-04   3.7635674E+05   -1.8589392E+00
   1.8286520E-04   3.7314741E+05   -1.8584721E+00
   1.8370969E-04   3.6996624E+05   -1.8580041E+00
   1.8455808E-04   3.6681298E+05   -1.8575351E+00
   1.8541039E-04   3.6368739E+05   -1.8570653E+00
   1.8626663E-04   3.6058920E+05   -1.8565944E+00
   1.8712683E-04   3.5751819E+05   -1.8561227E+00
   1.8799100E-04   3.5447411E+05   -1.8556500E+00
   1.8885917E-04   3.5145671E+05   -1.8551765E+00
   1.8973134E-04   3.4846575E+05   -1.8547020E+00
   1.9060754E-04   3.4550100E+05   -1.8542265E+00
   1.9148778E-04   3.4256223E+05   -1.8537502E+00
   1.9237209E-04   3.3964921E+05   -1.8532730E+00
   1.9326049E-04   3.3676169E+05   -1.8527948E+00
   1.9415299E-04   3.3389946E+05   -1.8523157E+00
   1.9504960E-04   3.3106229E+05   -1.8518358E+00
   1.9595036E-04   3.2824995E+05   -1.8513549E+00
   1.9685528E-04   3.2546223E+05   -1.8508731E+00
   1.9776438E-04   3.2269889E+05   -1.8503905E+00
   1.9867768E-04   3.1995973E+05   -1.8499069E+00
   1.9959519E-04   3.1724453E+05   -1.8494225E+00
   2.0051694E-04   3.1455308E+05   -1.8489371E+00
   2.0144295E-04   3.1188515E+05   -1.8484509E+00
   2.0237324E-04   3.0924055E+05   -1.8479638E+00
   2.0330782E-04   3.0661906E+05   -1.8474758E+00
   2.0424671E-04   3.0402048E+05   -1.8469869E+00
   2.0518995E-04   3.0144460E+05   -1.8464972E+00
   2.0613754E-04   2.9889122E+05   -1.8460066E+00
   2.0708950E-04   2.9636014E+05   -1.8455151E+00
   2.0804586E-04   2.9385115E+05   -1.8450227E+00
   2.0900664E-04   2.9136408E+05   -1.8445295E+00
   2.0997185E-04   2.8889870E+05   -1.8440354E+00
   2.1094152E-04   2.8645485E+05   -1.8435405E+00
   2.1191567E-04   2.8403231E+05   -1.8430447E+00
   2.1289432E-04   2.8163090E+05   -1.8425481E+00
   2.1387749E-04   2.7925044E+05   -1.8420506E+00
   2.1486520E-04   2.7689073E+05   -1.8415523E+00
   2.1585747E-04   2.7455159E+05   -1.8410531E+00
   2.1685432E-04   2.7223285E+05   -1.8405531E+00
   2.1785578E-04   2.6993430E+05   -1.8400522E+00
   2.1886186E-04   2.6765578E+05   -1.8395506E+00
   2.1987259E-04   2.6539711E+05   -1.8390480E+00
   2.2088798E-04   2.6315811E+05   -1.8385447E+00
   2.2190807E-04   2.6093861E+05   -1.8380406E+00
   2.2293286E-04   2.5873842E+05   -1.8375356E+00
   2.2396239E-04   2.5655738E+05   -1.8370298E+00
   2.2499667E-04   2.5439533E+05   -1.8365232E+00
   2.2603573E-04   2.5225208E+05   -1.8360158E+00
   2.2707958E-04   2.5012747E+05   -1.8355075E+00
   2.2812826E-04   2.4802134E+05   -1.8349985E+00
   2.2918178E-04   2.4593352E+05   -1.8344887E+00
   2.3024017E-04   2.4386385E+05   -1.8339781E+00
   2.3130344E-04   2.4181216E+05   -1.8334667E+00
   2.3237162E-04   2.3977831E+05   -1.8329545E+00
   2.3344474E-04   2.3776212E+05   -1.8324415E+00
   2.3452281E-04   2.3576344E+05   -1.8319277E+00
   2.3560586E-04   2.3378212E+05   -1.8314132E+00
   2.3669392E-04   2.3181799E+05   -1.8308979E+00
   2.3778699E-04   2.2987092E+05   -1.8303818E+00
   2.3888512E-04   2.2794074E+05   -1.8298650E+00
   2.3998831E-04   2.2602731E+05   -1.8293474E+00
   2.4109661E-04   2.2413047E+05   -1.8288290E+00
   2.4221001E-04   2.2225008E+05   -1.8283099E+00
   2.4332857E-04   2.2038600E+05   -1.8277900E+00
   2.4445228E-04   2.1853808E+05   -1.8272694E+00
   2.4558119E-04   2.1670617E+05   -1.8267481E+00
   2.4671531E-04   2.1489013E+05   -1.8262260E+00
   2.4785467E-04   2.1308982E+05   -1.8257031E+00
   2.4899928E-04   2.1130511E+05   -1.8251796E+00
   2.5014919E-04   2.0953585E+05   -1.8246553E+00
   2.5130440E-04   2.0778191E+05   -1.8241303E+00
   2.5246495E-04   2.0604315E+05   -1.8236046E+00
   2.5363086E-04   2.0431943E+05   -1.8230781E+00
   2.5480216E-04   2.0261062E+05   -1.8225510E+00
   2.5597886E-04   2.0091660E+05   -1.8220231E+00
   2.5716100E-04   1.9923722E+05   -1.8214945E+00
   2.5834859E-04   1.9757236E+05   -1.8209653E+00
   2.5954168E-04   1.9592189E+05   -1.8204353E+00
   2.6074027E-04   1.9428569E+05   -1.8199047E+00
   2.6194439E-04   1.9266362E+05   -1.8193734E+00
   2.6315408E-04   1.9105556E+05   -1.8188414E+00
   2.6436935E-04   1.8946138E+05   -1.8183087E+00
   2.6559024E-04   1.8788097E+05   -1.8177753E+00
   2.6681676E-04   1.8631421E+05   -1.8172413E+00
   2.6804895E-04   1.8476096E+05   -1.8167066E+00
   2.6928683E-04   1.8322111E+05   -1.8161713E+00
   2.7053042E-04   1.8169454E+05   -1.8156353E+00
   2.7177976E-04   1.8018114E+05   -1.8150987E+00
   2.7303487E-04   1.7868079E+05   -1.8145614E+00
   2.7429577E-04   1.7719337E+05   -1.8140234E+00
   2.7556250E-04   1.7571876E+05   -1.8134849E+00
   2.7683507E-04   1.7425686E+05   -1.8129457E+00
   2.7811353E-04   1.7280755E+05   -1.8124059E+00
   2.7939788E-04   1.7137073E+05   -1.8118654E+00
   2.8068817E-04   1.6994627E+05   -1.8113244E+00
   2.8198442E-04   1.6853407E+05   -1.8107827E+00
   2.8328665E-04   1.6713403E+05   -1.8102404E+00
   2.8459490E-04   1.6574603E+05   -1.8096975E+00
   2.8590919E-04   1.6436997E+05   -1.8091540E+00
   2.8722955E-04   1.6300574E+05   -1.8086100E+00
   2.8855600E-04   1.6165324E+05   -1.8080653E+00
   2.8988859E-04   1.6031237E+05   -1.8075200E+00
   2.9122732E-04   1.5898301E+05   -1.8069742E+00
   2.9257224E-04   1.5766508E+05   -1.8064278E+00
   2.9392337E-04   1.5635846E+05   -1.8058808E+00
   2.9528074E-04   1.5506307E+05   -1.8053333E+00
   2.9664438E-04   1.5377879E+05   -1.8047852E+00
   2.9801431E-04   1.5250554E+05   -1.8042366E+00
   2.9939057E-04   1.5124321E+05   -1.8036874E+00
   3.0077319E-04   1.4999171E+05   -1.8031376E+00
   3.0216219E-04   1.4875095E+05   -1.8025873E+00
   3.0355761E-04   1.4752082E+05   -1.8020365E+00
   3.0495947E-04   1.4630123E+05   -1.8014852E+00
   3.0636780E-04   1.4509210E+05   -1.8009333E+00
   3.0778264E-04   1.4389332E+05   -1.8003809E+00
   3.0920401E-04   1.4270482E+05   -1.7998280E+00
   3.1063195E-04   1.4152649E+05   -1.7992746E+00
   3.1206648E-04   1.4035825E+05   -1.7987207E+00
   3.1350764E-04   1.3920000E+05   -1.7981663E+00
   3.1495545E-04   1.3805167E+05   -1.7976114E+00
   3.1640994E-04   1.3691316E+05   -1.7970560E+00
   3.1787116E-04   1.3578439E+05   -1.7965001E+00
   3.1933912E-04   1.3466527E+05   -1.7959437E+00
   3.2081386E-04   1.3355572E+05   -1.7953869E+00
   3.2229541E-04   1.3245565E+05   -1.7948296E+00
   3.2378381E-04   1.3136497E+05   -1.7942719E+00
   3.2527908E-04   1.3028361E+05   -1.7937137E+00
   3.2678125E-04   1.2921149E+05   -1.7931550E+00
   3.2829036E-04   1.2814852E+05   -1.7925959E+00
   3.2980644E-04   1.2709462E+05   -1.7920363E+00
   3.3132952E-04   1.2604971E+05   -1.7914764E+00
   3.3285963E-04   1.2501372E+05   -1.7909160E+00
   3.3439681E-04   1.2398656E+05   -1.7903551E+00
   3.3594109E-04   1.2296816E+05   -1.7897939E+00
   3.3749250E-04   1.2195844E+05   -1.7892322E+00
   3.3905108E-04   1.2095732E+05   -1.7886701E+00
   3.4061685E-04   1.1996473E+05   -1.7881077E+00
   3.4218986E-04   1.1898060E+05   -1.7875448E+00
   3.4377013E-04   1.1800485E+05   -1.7869815E+00
   3.4535769E-04   1.1703740E+05   -1.7864179E+00
   3.4695259E-04   1.1607818E+05   -1.7858539E+00
   3.4855485E-04   1.1512713E+05   -1.7852895E+00
   3.5016452E-04   1.1418416E+05   -1.7847247E+00
   3.5178161E-04   1.1324921E+05   -1.7841596E+00
   3.5340618E-04   1.1232221E+05   -1.7835941E+00
   3.5503824E-04   1.1140309E+05   -1.7830283E+00
   3.5667785E-04   1.1049178E+05   -1.7824621E+00
   3.5832502E-04   1.0958821E+05   -1.7818955E+00
   3.5997981E-04   1.0869231E+05   -1.7813287E+00
   3.6164223E-04   1.0780402E+05   -1.7807615E+00
   3.6331233E-04   1.0692327E+05   -1.7801940E+00
   3.6499015E-04   1.0604999E+05   -1.7796262E+00
   3.6667571E-04   1.0518411E+05   -1.7790580E+00
   3.6836906E-04   1.0432558E+05   -1.7784896E+00
   3.7007022E-04   1.0347433E+05   -1.7779209E+00
   3.7177925E-04   1.0263030E+05   -1.7773518E+00
   3.7349616E-04   1.0179341E+05   -1.7767825E+00
   3.7522101E-04   1.0096362E+05   -1.7762129E+00
   3.7695382E-04   1.0014085E+05   -1.7756430E+00
   3.7869463E-04   9.9325046E+04   -1.7750729E+00
   3.8044348E-04   9.8516149E+04   -1.7745025E+00
   3.8220041E-04   9.7714096E+04   -1.7739318E+00
   3.8396545E-04   9.6918827E+04   -1.7733609E+00
   3.8573864E-04   9.6130284E+04   -1.7727897E+00
   3.8752002E-04   9.5348408E+04   -1.7722183E+00
   3.8930963E-04   9.4573140E+04   -1.7716466E+00
   3.9110750E-04   9.3804422E+04   -1.7710748E+00
   3.9291368E-04   9.3042198E+04   -1.7705027E+00
   3.9472820E-04   9.2286411E+04   -1.7699303E+00
   3.9655109E-04   9.1537005E+04   -1.7693578E+00
   3.9838241E-04   9.0793924E+04   -1.7687851E+00
   4.0022218E-04   9.0057113E+04   -1.7682121E+00
   4.0207045E-04   8.9326517E+04   -1.7676390E+00
   4.0392725E-04   8.8602082E+04   -1.7670657E+00
   4.0579263E-04   8.7883755E+04   -1.7664922E+00
   4.0766662E-04   8.7171481E+04   -1.7659185E+00
   4.0954927E-04   8.6465209E+04   -1.7653447E+00
   4.1144061E-04   8.5764886E+04   -1.7647707E+00
   4.1334068E-04   8.5070460E+04   -1.7641965E+00
   4.1524953E-04   8.4381880E+04   -1.7636222E+00
   4.1716720E-04   8.3699095E+04   -1.7630478E+00
   4.1909372E-04   8.3022055E+04   -1.7624732E+00
   4.2102914E-04   8.2350709E+04   -1.7618984E+00
   4.2297350E-04   8.1685008E+04   -1.7613236E+00
   4.2492683E-04   8.1024904E+04   -1.7607486E+00
   4.2688919E-04   8.0370347E+04   -1.7601735E+00
   4.2886061E-04   7.9721289E+04   -1.7595983E+00
   4.3084113E-04   7.9077682E+04   -1.7590230E+00
   4.3283080E-04   7.8439479E+04   -1.7584476E+00
   4.3482966E-04   7.7806633E+04   -1.7578721E+00
   4.3683775E-04   7.7179097E+04   -1.7572965E+00
   4.3885511E-04   7.6556826E+04   -1.7567209E+00
   4.4088179E-04   7.5939773E+04   -1.7561451E+00
   4.4291783E-04   7.5327894E+04   -1.7555693E+00
   4.4496327E-04   7.4721143E+04   -1.7549935E+00
   4.4701816E-04   7.4119475E+04   -1.7544176E+00
   4.4908253E-04   7.3522848E+04   -1.7538416E+00
   4.5115644E-04   7.2931217E+04   -1.7532656E+00
   4.5323993E-04   7.2344539E+04   -1.7526896E+00
   4.5533304E-04   7.1762770E+04   -1.7521135E+00
   4.5743582E-04   7.1185869E+04   -1.7515374E+00
   4.5954830E-04   7.0613793E+04   -1.7509613E+00
   4.6167054E-04   7.0046501E+04   -1.7503852E+00
   4.6380259E-04   6.9483950E+04   -1.7498091E+00
   4.6594448E-04   6.8926100E+04   -1.7492329E+00
   4.6809626E-04   6.8372911E+04   -1.7486568E+00
   4.7025797E-04   6.7824341E+04   -1.7480807E+00
   4.7242967E-04   6.7280351E+04   -1.7475046E+00
   4.7461140E-04   6.6740901E+04   -1.7469286E+00
   4.7680321E-04   6.6205952E+04   -1.7463525E+00
   4.7900514E-04   6.5675466E+04   -1.7457765E+00
   4.8121723E-04   6.5149403E+04   -1.7452006E+00
   4.8343954E-04   6.4627725E+04   -1.7446247E+00
   4.8567212E-04   6.4110394E+04   -1.7440488E+00
   4.8791500E-04   6.3597374E+04   -1.7434731E+00
   4.9016825E-04   6.3088626E+04   -1.7428974E+00
   4.9243189E-04   6.2584114E+04   -1.7423217E+00
   4.9470600E-04   6.2083801E+04   -1.7417462E+00
   4.9699060E-04   6.1587650E+04   -1.7411707E+00
   4.9928575E-04   6.1095627E+04   -1.7405953E+00
   5.0159151E-04   6.0607695E+04   -1.7400200E+00
   5.0390791E-04   6.0123820E+04   -1.7394448E+00
   5.0623501E-04   5.9643965E+04   -1.7388698E+00
   5.0857286E-04   5.9168098E+04   -1.7382948E+00
   5.1092150E-04   5.8696182E+04   -1.7377200E+00
   5.1328099E-04   5.8228185E+04   -1.7371453E+00
   5.1565137E-04   5.7764071E+04   -1.7365707E+00
   5.1803270E-04   5.7303809E+04   -1.7359963E+00
   5.2042503E-04   5.6847365E+04   -1.7354220E+00
   5.2282841E-04   5.6394705E+04   -1.7348479E+00
   5.2524289E-04   5.5945798E+04   -1.7342739E+00
   5.2766851E-04   5.5500611E+04   -1.7337001E+00
   5.3010534E-04   5.5059112E+04   -1.7331265E+00
   5.3255342E-04   5.4621270E+04   -1.7325530E+00
   5.3501281E-04   5.4187052E+04   -1.7319798E+00
   5.3748356E-04   5.3756428E+04   -1.7314067E+00
   5.3996571E-04   5.3329368E+04   -1.7308338E+00
   5.4245933E-04   5.2905839E+04   -1.7302611E+00
   5.4496446E-04   5.2485813E+04   -1.7296886E+00
   5.4748117E-04   5.2069258E+04   -1.7291164E+00
   5.5000949E-04   5.1656146E+04   -1.7285443E+00
   5.5254949E-04   5.1246447E+04   -1.7279725E+00
   5.5510123E-04   5.0840130E+04   -1.7274009E+00
   5.5766474E-04   5.0437168E+04   -1.7268295E+00
   5.6024010E-04   5.0037532E+04   -1.7262584E+00
   5.6282734E-04   4.9641193E+04   -1.7256875E+00
   5.6542654E-04   4.9248122E+04   -1.7251169E+00
   5.6803774E-04   4.8858293E+04   -1.7245466E+00
   5.7066099E-04   4.8471676E+04   -1.7239765E+00
   5.7329637E-04   4.8088245E+04   -1.7234067E+00
   5.7594391E-04   4.7707973E+04   -1.7228371E+00
   5.7860368E-04   4.7330832E+04   -1.7222679E+00
   5.8127573E-04   4.6956795E+04   -1.7216989E+00
   5.8396012E-04   4.6585836E+04   -1.7211302E+00
   5.8665691E-04   4.6217929E+04   -1.7205619E+00
   5.8936616E-04   4.5853048E+04   -1.7199938E+00
   5.9208791E-04   4.5491166E+04   -1.7194261E+00
   5.9482223E-04   4.5132258E+04   -1.7188586E+00
   5.9756919E-04   4.4776299E+04   -1.7182915E+00
   6.0032882E-04   4.4423263E+04   -1.7177247E+00
   6.0310120E-04   4.4073126E+04   -1.7171583E+00
   6.0588639E-04   4.3725863E+04   -1.7165922E+00
   6.0868443E-04   4.3381449E+04   -1.7160264E+00
   6.1149540E-04   4.3039860E+04   -1.7154610E+00
   6.1431935E-04   4.2701072E+04   -1.7148960E+00
   6.1715634E-04   4.2365061E+04   -1.7143313E+00
   6.2000644E-04   4.2031803E+04   -1.7137670E+00
   6.2286969E-04   4.1701275E+04   -1.7132030E+00
