#        a       HoverH0(a)       dlogHdloga_of_a(a)
   1.0000000E-04   1.0942821E+06   -1.8607032E+00
   1.0046181E-04   1.0849419E+06   -1.8602397E+00
   1.0092575E-04   1.0756837E+06   -1.8597753E+00
   1.0139184E-04   1.0665069E+06   -1.8593099E+00
   1.0186008E-04   1.0574106E+06   -1.8588436E+00
   1.0233048E-04   1.0483941E+06   -1.8583764E+00
   1.0280305E-04   1.0394567E+06   -1.8579082E+00
   1.0327781E-04   1.0305978E+06   -1.8574391E+00
   1.0375475E-04   1.0218166E+06   -1.8569690E+00
   1.0423390E-04   1.0131124E+06   -1.8564981E+00
   1.0471527E-04   1.0044845E+06   -1.8560262E+00
   1.0519885E-04   9.9593226E+05   -1.8555533E+00
   1.0568467E-04   9.8745499E+05   -1.8550796E+00
   1.0617274E-04   9.7905202E+05   -1.8546049E+00
   1.0666305E-04   9.7072269E+05   -1.8541294E+00
   1.0715563E-04   9.6246633E+05   -1.8536529E+00
   1.0765049E-04   9.5428228E+05   -1.8531755E+00
   1.0814763E-04   9.4616992E+05   -1.8526972E+00
   1.0864707E-04   9.3812858E+05   -1.8522180E+00
   1.0914881E-04   9.3015764E+05   -1.8517378E+00
   1.0965287E-04   9.2225647E+05   -1.8512568E+00
   1.1015926E-04   9.1442445E+05   -1.8507749E+00
   1.1066799E-04   9.0666095E+05   -1.8502921E+00
   1.1117906E-04   8.9896536E+05   -1.8498084E+00
   1.1169250E-04   8.9133708E+05   -1.8493238E+00
   1.1220831E-04   8.8377551E+05   -1.8488383E+00
   1.1272650E-04   8.7628004E+05   -1.8483519E+00
   1.1324708E-04   8.6885010E+05   -1.8478647E+00
   1.1377007E-04   8.6148509E+05   -1.8473765E+00
   1.1429547E-04   8.5418444E+05   -1.8468875E+00
   1.1482330E-04   8.4694756E+05   -1.8463976E+00
   1.1535356E-04   8.3977390E+05   -1.8459069E+00
   1.1588628E-04   8.3266287E+05   -1.8454153E+00
   1.1642145E-04   8.2561394E+05   -1.8449228E+00
   1.1695910E-04   8.1862654E+05   -1.8444294E+00
   1.1749923E-04   8.1170012E+05   -1.8439352E+00
   1.1804185E-04   8.0483414E+05   -1.8434401E+00
   1.1858698E-04   7.9802806E+05   -1.8429442E+00
   1.1913463E-04   7.9128134E+05   -1.8424474E+00
   1.1968481E-04   7.8459346E+05   -1.8419498E+00
   1.2023752E-04   7.7796389E+05   -1.8414514E+00
   1.2079279E-04   7.7139211E+05   -1.8409521E+00
   1.2135063E-04   7.6487761E+05   -1.8404519E+00
   1.2191104E-04   7.5841988E+05   -1.8399509E+00
   1.2247403E-04   7.5201840E+05   -1.8394491E+00
   1.2303963E-04   7.4567268E+05   -1.8389465E+00
   1.2360784E-04   7.3938222E+05   -1.8384430E+00
   1.2417868E-04   7.3314652E+05   -1.8379388E+00
   1.2475215E-04   7.2696511E+05   -1.8374337E+00
   1.2532826E-04   7.2083749E+05   -1.8369277E+00
   1.2590704E-04   7.1476320E+05   -1.8364210E+00
   1.2648850E-04   7.0874174E+05   -1.8359135E+00
   1.2707263E-04   7.0277265E+05   -1.8354051E+00
   1.2765947E-04   6.9685547E+05   -1.8348960E+00
   1.2824901E-04   6.9098974E+05   -1.8343861E+00
   1.2884128E-04   6.8517499E+05   -1.8338753E+00
   1.2943628E-04   6.7941077E+05   -1.8333638E+00
   1.3003403E-04   6.7369664E+05   -1.8328515E+00
   1.3063454E-04   6.6803214E+05   -1.8323384E+00
   1.3123783E-04   6.6241684E+05   -1.8318245E+00
   1.3184390E-04   6.5685029E+05   -1.8313099E+00
   1.3245277E-04   6.5133206E+05   -1.8307945E+00
   1.3306445E-04   6.4586173E+05   -1.8302783E+00
   1.3367895E-04   6.4043887E+05   -1.8297613E+00
   1.3429630E-04   6.3506305E+05   -1.8292436E+00
   1.3491649E-04   6.2973386E+05   -1.8287252E+00
   1.3553955E-04   6.2445089E+05   -1.8282059E+00
   1.3616548E-04   6.1921371E+05   -1.8276860E+00
   1.3679431E-04   6.1402194E+05   -1.8271653E+00
   1.3742604E-04   6.0887515E+05   -1.8266438E+00
   1.3806069E-04   6.0377296E+05   -1.8261216E+00
   1.3869827E-04   5.9871496E+05   -1.8255987E+00
   1.3933879E-04   5.9370077E+05   -1.8250750E+00
   1.3998227E-04   5.8872999E+05   -1.8245506E+00
   1.4062872E-04   5.8380224E+05   -1.8240255E+00
   1.4127816E-04   5.7891714E+05   -1.8234997E+00
   1.4193060E-04   5.7407431E+05   -1.8229732E+00
   1.4258605E-04   5.6927337E+05   -1.8224460E+00
   1.4324453E-04   5.6451395E+05   -1.8219180E+00
   1.4390605E-04   5.5979569E+05   -1.8213894E+00
   1.4457062E-04   5.5511821E+05   -1.8208600E+00
   1.4523826E-04   5.5048117E+05   -1.8203300E+00
   1.4590899E-04   5.4588419E+05   -1.8197993E+00
   1.4658281E-04   5.4132693E+05   -1.8192679E+00
   1.4725974E-04   5.3680902E+05   -1.8187358E+00
   1.4793981E-04   5.3233013E+05   -1.8182030E+00
   1.4862301E-04   5.2788991E+05   -1.8176696E+00
   1.4930936E-04   5.2348800E+05   -1.8171355E+00
   1.4999889E-04   5.1912409E+05   -1.8166007E+00
   1.5069160E-04   5.1479782E+05   -1.8160653E+00
   1.5138751E-04   5.1050886E+05   -1.8155293E+00
   1.5208663E-04   5.0625689E+05   -1.8149925E+00
   1.5278899E-04   5.0204157E+05   -1.8144552E+00
   1.5349458E-04   4.9786259E+05   -1.8139172E+00
   1.5420343E-04   4.9371962E+05   -1.8133786E+00
   1.5491556E-04   4.8961234E+05   -1.8128393E+00
   1.5563098E-04   4.8554043E+05   -1.8122994E+00
   1.5634970E-04   4.8150359E+05   -1.8117589E+00
   1.5707174E-04   4.7750150E+05   -1.8112178E+00
   1.5779711E-04   4.7353386E+05   -1.8106761E+00
   1.5852584E-04   4.6960035E+05   -1.8101337E+00
   1.5925792E-04   4.6570069E+05   -1.8095908E+00
   1.5999339E-04   4.6183456E+05   -1.8090472E+00
   1.6073226E-04   4.5800168E+05   -1.8085031E+00
   1.6147454E-04   4.5420174E+05   -1.8079584E+00
   1.6222024E-04   4.5043447E+05   -1.8074131E+00
   1.6296939E-04   4.4669956E+05   -1.8068672E+00
   1.6372200E-04   4.4299674E+05   -1.8063208E+00
   1.6447809E-04   4.3932572E+05   -1.8057737E+00
   1.6523767E-04   4.3568622E+05   -1.8052262E+00
   1.6600075E-04   4.3207796E+05   -1.8046780E+00
   1.6676736E-04   4.2850067E+05   -1.8041293E+00
   1.6753751E-04   4.2495407E+05   -1.8035801E+00
   1.6831122E-04   4.2143789E+05   -1.8030303E+00
   1.6908849E-04   4.1795186E+05   -1.8024800E+00
   1.6986936E-04   4.1449572E+05   -1.8019292E+00
   1.7065384E-04   4.1106920E+05   -1.8013778E+00
   1.7144193E-04   4.0767205E+05   -1.8008259E+00
   1.7223367E-04   4.0430399E+05   -1.8002735E+00
   1.7302906E-04   4.0096479E+05   -1.7997205E+00
   1.7382813E-04   3.9765418E+05   -1.7991671E+00
   1.7463089E-04   3.9437191E+05   -1.7986131E+00
   1.7543735E-04   3.9111773E+05   -1.7980587E+00
   1.7624754E-04   3.8789139E+05   -1.7975038E+00
   1.7706147E-04   3.8469265E+05   -1.7969484E+00
   1.7787916E-04   3.8152127E+05   -1.7963925E+00
   1.7870062E-04   3.7837700E+05   -1.7958361E+00
   1.7952588E-04   3.7525960E+05   -1.7952792E+00
   1.8035495E-04   3.7216885E+05   -1.7947219E+00
   1.8118785E-04   3.6910449E+05   -1.7941642E+00
   1.8202459E-04   3.6606632E+05   -1.7936060E+00
   1.8286520E-04   3.6305408E+05   -1.7930473E+00
   1.8370969E-04   3.6006756E+05   -1.7924882E+00
   1.8455808E-04   3.5710652E+05   -1.7919286E+00
   1.8541039E-04   3.5417075E+05   -1.7913686E+00
   1.8626663E-04   3.5126002E+05   -1.7908082E+00
   1.8712683E-04   3.4837411E+05   -1.7902474E+00
   1.8799100E-04   3.4551281E+05   -1.7896861E+00
   1.8885917E-04   3.4267589E+05   -1.7891245E+00
   1.8973134E-04   3.3986315E+05   -1.7885624E+00
   1.9060754E-04   3.3707436E+05   -1.7879999E+00
   1.9148778E-04   3.3430933E+05   -1.7874371E+00
   1.9237209E-04   3.3156784E+05   -1.7868738E+00
   1.9326049E-04   3.2884968E+05   -1.7863102E+00
   1.9415299E-04   3.2615466E+05   -1.7857462E+00
   1.9504960E-04   3.2348256E+05   -1.7851818E+00
   1.9595036E-04   3.2083319E+05   -1.7846170E+00
   1.9685528E-04   3.1820634E+05   -1.7840519E+00
   1.9776438E-04   3.1560183E+05   -1.7834865E+00
   1.9867768E-04   3.1301944E+05   -1.7829207E+00
   1.9959519E-04   3.1045900E+05   -1.7823545E+00
   2.0051694E-04   3.0792031E+05   -1.7817880E+00
   2.0144295E-04   3.0540317E+05   -1.7812212E+00
   2.0237324E-04   3.0290740E+05   -1.7806540E+00
   2.0330782E-04   3.0043281E+05   -1.7800865E+00
   2.0424671E-04   2.9797922E+05   -1.7795187E+00
   2.0518995E-04   2.9554644E+05   -1.7789506E+00
   2.0613754E-04   2.9313428E+05   -1.7783822E+00
   2.0708950E-04   2.9074258E+05   -1.7778135E+00
   2.0804586E-04   2.8837115E+05   -1.7772445E+00
   2.0900664E-04   2.8601980E+05   -1.7766753E+00
   2.0997185E-04   2.8368838E+05   -1.7761057E+00
   2.1094152E-04   2.8137670E+05   -1.7755359E+00
   2.1191567E-04   2.7908459E+05   -1.7749658E+00
   2.1289432E-04   2.7681187E+05   -1.7743954E+00
   2.1387749E-04   2.7455839E+05   -1.7738248E+00
   2.1486520E-04   2.7232397E+05   -1.7732539E+00
   2.1585747E-04   2.7010844E+05   -1.7726828E+00
   2.1685432E-04   2.6791164E+05   -1.7721114E+00
   2.1785578E-04   2.6573341E+05   -1.7715398E+00
   2.1886186E-04   2.6357358E+05   -1.7709680E+00
   2.1987259E-04   2.6143200E+05   -1.7703960E+00
   2.2088798E-04   2.5930850E+05   -1.7698237E+00
   2.2190807E-04   2.5720293E+05   -1.7692513E+00
   2.2293286E-04   2.5511513E+05   -1.7686786E+00
   2.2396239E-04   2.5304494E+05   -1.7681057E+00
   2.2499667E-04   2.5099222E+05   -1.7675327E+00
   2.2603573E-04   2.4895680E+05   -1.7669594E+00
   2.2707958E-04   2.4693854E+05   -1.7663860E+00
   2.2812826E-04   2.4493729E+05   -1.7658124E+00
   2.2918178E-04   2.4295290E+05   -1.7652387E+00
   2.3024017E-04   2.4098523E+05   -1.7646647E+00
   2.3130344E-04   2.3903412E+05   -1.7640907E+00
   2.3237162E-04   2.3709944E+05   -1.7635164E+00
   2.3344474E-04   2.3518104E+05   -1.7629421E+00
   2.3452281E-04   2.3327878E+05   -1.7623675E+00
   2.3560586E-04   2.3139252E+05   -1.7617929E+00
   2.3669392E-04   2.2952212E+05   -1.7612181E+00
   2.3778699E-04   2.2766744E+05   -1.7606432E+00
   2.3888512E-04   2.2582834E+05   -1.7600683E+00
   2.3998831E-04   2.2400470E+05   -1.7594931E+00
   2.4109661E-04   2.2219637E+05   -1.7589179E+00
   2.4221001E-04   2.2040322E+05   -1.7583426E+00
   2.4332857E-04   2.1862512E+05   -1.7577672E+00
   2.4445228E-04   2.1686194E+05   -1.7571918E+00
   2.4558119E-04   2.1511356E+05   -1.7566162E+00
   2.4671531E-04   2.1337983E+05   -1.7560406E+00
   2.4785467E-04   2.1166064E+05   -1.7554649E+00
   2.4899928E-04   2.0995586E+05   -1.7548892E+00
   2.5014919E-04   2.0826536E+05   -1.7543134E+00
   2.5130440E-04   2.0658902E+05   -1.7537375E+00
   2.5246495E-04   2.0492671E+05   -1.7531617E+00
   2.5363086E-04   2.0327833E+05   -1.7525857E+00
   2.5480216E-04   2.0164373E+05   -1.7520098E+00
   2.5597886E-04   2.0002281E+05   -1.7514338E+00
   2.5716100E-04   1.9841545E+05   -1.7508578E+00
   2.5834859E-04   1.9682153E+05   -1.7502819E+00
   2.5954168E-04   1.9524093E+05   -1.7497059E+00
   2.6074027E-04   1.9367353E+05   -1.7491299E+00
   2.6194439E-04   1.9211923E+05   -1.7485539E+00
   2.6315408E-04   1.9057791E+05   -1.7479779E+00
   2.6436935E-04   1.8904945E+05   -1.7474020E+00
   2.6559024E-04   1.8753376E+05   -1.7468261E+00
   2.6681676E-04   1.8603070E+05   -1.7462502E+00
   2.6804895E-04   1.8454019E+05   -1.7456743E+00
   2.6928683E-04   1.8306210E+05   -1.7450985E+00
   2.7053042E-04   1.8159633E+05   -1.7445228E+00
   2.7177976E-04   1.8014278E+05   -1.7439471E+00
   2.7303487E-04   1.7870133E+05   -1.7433714E+00
   2.7429577E-04   1.7727189E+05   -1.7427959E+00
   2.7556250E-04   1.7585435E+05   -1.7422204E+00
   2.7683507E-04   1.7444861E+05   -1.7416450E+00
   2.7811353E-04   1.7305456E+05   -1.7410697E+00
   2.7939788E-04   1.7167211E+05   -1.7404945E+00
   2.8068817E-04   1.7030116E+05   -1.7399194E+00
   2.8198442E-04   1.6894160E+05   -1.7393443E+00
   2.8328665E-04   1.6759333E+05   -1.7387694E+00
   2.8459490E-04   1.6625627E+05   -1.7381947E+00
   2.8590919E-04   1.6493031E+05   -1.7376200E+00
   2.8722955E-04   1.6361536E+05   -1.7370455E+00
   2.8855600E-04   1.6231133E+05   -1.7364711E+00
   2.8988859E-04   1.6101811E+05   -1.7358969E+00
   2.9122732E-04   1.5973562E+05   -1.7353228E+00
   2.9257224E-04   1.5846376E+05   -1.7347488E+00
   2.9392337E-04   1.5720245E+05   -1.7341750E+00
   2.9528074E-04   1.5595158E+05   -1.7336014E+00
   2.9664438E-04   1.5471108E+05   -1.7330280E+00
   2.9801431E-04   1.5348085E+05   -1.7324547E+00
   2.9939057E-04   1.5226081E+05   -1.7318816E+00
   3.0077319E-04   1.5105087E+05   -1.7313087E+00
   3.0216219E-04   1.4985093E+05   -1.7307361E+00
   3.0355761E-04   1.4866092E+05   -1.7301636E+00
   3.0495947E-04   1.4748075E+05   -1.7295913E+00
   3.0636780E-04   1.4631033E+05   -1.7290192E+00
   3.0778264E-04   1.4514958E+05   -1.7284474E+00
   3.0920401E-04   1.4399842E+05   -1.7278758E+00
   3.1063195E-04   1.4285677E+05   -1.7273044E+00
   3.1206648E-04   1.4172454E+05   -1.7267332E+00
   3.1350764E-04   1.4060166E+05   -1.7261623E+00
   3.1495545E-04   1.3948803E+05   -1.7255917E+00
   3.1640994E-04   1.3838360E+05   -1.7250213E+00
   3.1787116E-04   1.3728827E+05   -1.7244511E+00
   3.1933912E-04   1.3620196E+05   -1.7238813E+00
   3.2081386E-04   1.3512461E+05   -1.7233117E+00
   3.2229541E-04   1.3405613E+05   -1.7227424E+00
   3.2378381E-04   1.3299644E+05   -1.7221734E+00
   3.2527908E-04   1.3194548E+05   -1.7216046E+00
   3.2678125E-04   1.3090317E+05   -1.7210362E+00
   3.2829036E-04   1.2986943E+05   -1.7204680E+00
   3.2980644E-04   1.2884419E+05   -1.7199002E+00
   3.3132952E-04   1.2782738E+05   -1.7193327E+00
   3.3285963E-04   1.2681893E+05   -1.7187655E+00
   3.3439681E-04   1.2581876E+05   -1.7181986E+00
   3.3594109E-04   1.2482680E+05   -1.7176321E+00
   3.3749250E-04   1.2384299E+05   -1.7170659E+00
   3.3905108E-04   1.2286725E+05   -1.7165001E+00
   3.4061685E-04   1.2189952E+05   -1.7159345E+00
   3.4218986E-04   1.2093972E+05   -1.7153694E+00
   3.4377013E-04   1.1998780E+05   -1.7148046E+00
   3.4535769E-04   1.1904368E+05   -1.7142402E+00
   3.4695259E-04   1.1810729E+05   -1.7136761E+00
   3.4855485E-04   1.1717857E+05   -1.7131124E+00
   3.5016452E-04   1.1625746E+05   -1.7125491E+00
   3.5178161E-04   1.1534388E+05   -1.7119862E+00
   3.5340618E-04   1.1443779E+05   -1.7114237E+00
   3.5503824E-04   1.1353910E+05   -1.7108616E+00
   3.5667785E-04   1.1264776E+05   -1.7102999E+00
   3.5832502E-04   1.1176371E+05   -1.7097386E+00
   3.5997981E-04   1.1088689E+05   -1.7091777E+00
   3.6164223E-04   1.1001723E+05   -1.7086172E+00
   3.6331233E-04   1.0915467E+05   -1.7080572E+00
   3.6499015E-04   1.0829915E+05   -1.7074976E+00
   3.6667571E-04   1.0745062E+05   -1.7069384E+00
   3.6836906E-04   1.0660900E+05   -1.7063797E+00
   3.7007022E-04   1.0577425E+05   -1.7058214E+00
   3.7177925E-04   1.0494631E+05   -1.7052636E+00
   3.7349616E-04   1.0412512E+05   -1.7047063E+00
   3.7522101E-04   1.0331061E+05   -1.7041494E+00
   3.7695382E-04   1.0250274E+05   -1.7035929E+00
   3.7869463E-04   1.0170145E+05   -1.7030370E+00
   3.8044348E-04   1.0090669E+05   -1.7024815E+00
   3.8220041E-04   1.0011838E+05   -1.7019265E+00
   3.8396545E-04   9.9336494E+04   -1.7013720E+00
   3.8573864E-04   9.8560963E+04   -1.7008180E+00
   3.8752002E-04   9.7791736E+04   -1.7002645E+00
   3.8930963E-04   9.7028759E+04   -1.6997115E+00
   3.9110750E-04   9.6271981E+04   -1.6991590E+00
   3.9291368E-04   9.5521348E+04   -1.6986071E+00
   3.9472820E-04   9.4776808E+04   -1.6980556E+00
   3.9655109E-04   9.4038311E+04   -1.6975047E+00
   3.9838241E-04   9.3305805E+04   -1.6969543E+00
   4.0022218E-04   9.2579239E+04   -1.6964045E+00
   4.0207045E-04   9.1858563E+04   -1.6958552E+00
   4.0392725E-04   9.1143729E+04   -1.6953064E+00
   4.0579263E-04   9.0434685E+04   -1.6947582E+00
   4.0766662E-04   8.9731384E+04   -1.6942106E+00
   4.0954927E-04   8.9033778E+04   -1.6936635E+00
   4.1144061E-04   8.8341817E+04   -1.6931170E+00
   4.1334068E-04   8.7655454E+04   -1.6925710E+00
   4.1524953E-04   8.6974643E+04   -1.6920256E+00
   4.1716720E-04   8.6299336E+04   -1.6914808E+00
   4.1909372E-04   8.5629488E+04   -1.6909366E+00
   4.2102914E-04   8.4965051E+04   -1.6903930E+00
   4.2297350E-04   8.4305982E+04   -1.6898500E+00
   4.2492683E-04   8.3652234E+04   -1.6893076E+00
   4.2688919E-04   8.3003762E+04   -1.6887658E+00
   4.2886061E-04   8.2360524E+04   -1.6882246E+00
   4.3084113E-04   8.1722473E+04   -1.6876840E+00
   4.3283080E-04   8.1089568E+04   -1.6871440E+00
   4.3482966E-04   8.0461764E+04   -1.6866047E+00
   4.3683775E-04   7.9839019E+04   -1.6860660E+00
   4.3885511E-04   7.9221291E+04   -1.6855279E+00
   4.4088179E-04   7.8608536E+04   -1.6849905E+00
   4.4291783E-04   7.8000714E+04   -1.6844537E+00
   4.4496327E-04   7.7397783E+04   -1.6839175E+00
   4.4701816E-04   7.6799703E+04   -1.6833820E+00
   4.4908253E-04   7.6206431E+04   -1.6828472E+00
   4.5115644E-04   7.5617929E+04   -1.6823130E+00
   4.5323993E-04   7.5034157E+04   -1.6817795E+00
   4.5533304E-04   7.4455074E+04   -1.6812467E+00
   4.5743582E-04   7.3880641E+04   -1.6807145E+00
   4.5954830E-04   7.3310820E+04   -1.6801830E+00
   4.6167054E-04   7.2745572E+04   -1.6796522E+00
   4.6380259E-04   7.2184858E+04   -1.6791221E+00
   4.6594448E-04   7.1628641E+04   -1.6785926E+00
   4.6809626E-04   7.1076884E+04   -1.6780639E+00
   4.7025797E-04   7.0529548E+04   -1.6775359E+00
   4.7242967E-04   6.9986597E+04   -1.6770085E+00
   4.7461140E-04   6.9447994E+04   -1.6764819E+00
   4.7680321E-04   6.8913704E+04   -1.6759560E+00
   4.7900514E-04   6.8383690E+04   -1.6754308E+00
   4.8121723E-04   6.7857916E+04   -1.6749063E+00
   4.8343954E-04   6.7336347E+04   -1.6743826E+00
   4.8567212E-04   6.6818948E+04   -1.6738595E+00
   4.8791500E-04   6.6305685E+04   -1.6733372E+00
   4.9016825E-04   6.5796522E+04   -1.6728157E+00
   4.9243189E-04   6.5291426E+04   -1.6722949E+00
   4.9470600E-04   6.4790363E+04   -1.6717748E+00
   4.9699060E-04   6.4293299E+04   -1.6712555E+00
   4.9928575E-04   6.3800201E+04   -1.6707369E+00
   5.0159151E-04   6.3311036E+04   -1.6702191E+00
   5.0390791E-04   6.2825771E+04   -1.6697020E+00
   5.0623501E-04   6.2344374E+04   -1.6691858E+00
   5.0857286E-04   6.1866813E+04   -1.6686702E+00
   5.1092150E-04   6.1393055E+04   -1.6681555E+00
   5.1328099E-04   6.0923070E+04   -1.6676415E+00
   5.1565137E-04   6.0456826E+04   -1.6671283E+00
   5.1803270E-04   5.9994292E+04   -1.6666159E+00
   5.2042503E-04   5.9535437E+04   -1.6661043E+00
   5.2282841E-04   5.9080231E+04   -1.6655934E+00
   5.2524289E-04   5.8628643E+04   -1.6650834E+00
   5.2766851E-04   5.8180643E+04   -1.6645741E+00
   5.3010534E-04   5.7736202E+04   -1.6640657E+00
   5.3255342E-04   5.7295290E+04   -1.6635580E+00
   5.3501281E-04   5.6857879E+04   -1.6630512E+00
   5.3748356E-04   5.6423938E+04   -1.6625452E+00
   5.3996571E-04   5.5993439E+04   -1.6620399E+00
   5.4245933E-04   5.5566354E+04   -1.6615355E+00
   5.4496446E-04   5.5142655E+04   -1.6610320E+00
   5.4748117E-04   5.4722314E+04   -1.6605292E+00
   5.5000949E-04   5.4305302E+04   -1.6600273E+00
   5.5254949E-04   5.3891593E+04   -1.6595262E+00
   5.5510123E-04   5.3481159E+04   -1.6590259E+00
   5.5766474E-04   5.3073973E+04   -1.6585265E+00
   5.6024010E-04   5.2670008E+04   -1.6580279E+00
   5.6282734E-04   5.2269238E+04   -1.6575302E+00
   5.6542654E-04   5.1871636E+04   -1.6570333E+00
   5.6803774E-04   5.1477177E+04   -1.6565372E+00
   5.7066099E-04   5.1085833E+04   -1.6560421E+00
   5.7329637E-04   5.0697581E+04   -1.6555477E+00
   5.7594391E-04   5.0312393E+04   -1.6550542E+00
   5.7860368E-04   4.9930246E+04   -1.6545616E+00
   5.8127573E-04   4.9551114E+04   -1.6540699E+00
   5.8396012E-04   4.9174972E+04   -1.6535790E+00
   5.8665691E-04   4.8801795E+04   -1.6530890E+00
   5.8936616E-04   4.8431560E+04   -1.6525998E+00
   5.9208791E-04   4.8064241E+04   -1.6521116E+00
   5.9482223E-04   4.7699816E+04   -1.6516242E+00
   5.9756919E-04   4.7338260E+04   -1.6511377E+00
   6.0032882E-04   4.6979549E+04   -1.6506521E+00
   6.0310120E-04   4.6623661E+04   -1.6501673E+00
   6.0588639E-04   4.6270573E+04   -1.6496835E+00
   6.0868443E-04   4.5920260E+04   -1.6492005E+00
   6.1149540E-04   4.5572701E+04   -1.6487185E+00
   6.1431935E-04   4.5227873E+04   -1.6482373E+00
   6.1715634E-04   4.4885754E+04   -1.6477571E+00
   6.2000644E-04   4.4546321E+04   -1.6472777E+00
   6.2286969E-04   4.4209552E+04   -1.6467993E+00
