#        a       HoverH0(a)       dlogHdloga_of_a(a)
   1.0000000E-04   1.1023748E+06   -1.8391784E+00
   1.0046181E-04   1.0930740E+06   -1.8386754E+00
   1.0092575E-04   1.0838542E+06   -1.8381715E+00
   1.0139184E-04   1.0747147E+06   -1.8376667E+00
   1.0186008E-04   1.0656548E+06   -1.8371612E+00
   1.0233048E-04   1.0566737E+06   -1.8366549E+00
   1.0280305E-04   1.0477707E+06   -1.8361477E+00
   1.0327781E-04   1.0389451E+06   -1.8356397E+00
   1.0375475E-04   1.0301964E+06   -1.8351310E+00
   1.0423390E-04   1.0215236E+06   -1.8346214E+00
   1.0471527E-04   1.0129263E+06   -1.8341111E+00
   1.0519885E-04   1.0044037E+06   -1.8335999E+00
   1.0568467E-04   9.9595516E+05   -1.8330880E+00
   1.0617274E-04   9.8758001E+05   -1.8325752E+00
   1.0666305E-04   9.7927759E+05   -1.8320617E+00
   1.0715563E-04   9.7104728E+05   -1.8315475E+00
   1.0765049E-04   9.6288842E+05   -1.8310324E+00
   1.0814763E-04   9.5480038E+05   -1.8305166E+00
   1.0864707E-04   9.4678253E+05   -1.8300000E+00
   1.0914881E-04   9.3883425E+05   -1.8294826E+00
   1.0965287E-04   9.3095491E+05   -1.8289645E+00
   1.1015926E-04   9.2314391E+05   -1.8284457E+00
   1.1066799E-04   9.1540063E+05   -1.8279260E+00
   1.1117906E-04   9.0772448E+05   -1.8274057E+00
   1.1169250E-04   9.0011485E+05   -1.8268846E+00
   1.1220831E-04   8.9257116E+05   -1.8263627E+00
   1.1272650E-04   8.8509283E+05   -1.8258401E+00
   1.1324708E-04   8.7767926E+05   -1.8253168E+00
   1.1377007E-04   8.7032990E+05   -1.8247928E+00
   1.1429547E-04   8.6304416E+05   -1.8242680E+00
   1.1482330E-04   8.5582148E+05   -1.8237425E+00
   1.1535356E-04   8.4866130E+05   -1.8232164E+00
   1.1588628E-04   8.4156307E+05   -1.8226894E+00
   1.1642145E-04   8.3452624E+05   -1.8221618E+00
   1.1695910E-04   8.2755025E+05   -1.8216335E+00
   1.1749923E-04   8.2063458E+05   -1.8211045E+00
   1.1804185E-04   8.1377869E+05   -1.8205748E+00
   1.1858698E-04   8.0698205E+05   -1.8200444E+00
   1.1913463E-04   8.0024413E+05   -1.8195133E+00
   1.1968481E-04   7.9356440E+05   -1.8189816E+00
   1.2023752E-04   7.8694237E+05   -1.8184491E+00
   1.2079279E-04   7.8037751E+05   -1.8179160E+00
   1.2135063E-04   7.7386932E+05   -1.8173822E+00
   1.2191104E-04   7.6741729E+05   -1.8168478E+00
   1.2247403E-04   7.6102093E+05   -1.8163127E+00
   1.2303963E-04   7.5467975E+05   -1.8157769E+00
   1.2360784E-04   7.4839325E+05   -1.8152405E+00
   1.2417868E-04   7.4216096E+05   -1.8147035E+00
   1.2475215E-04   7.3598238E+05   -1.8141658E+00
   1.2532826E-04   7.2985705E+05   -1.8136274E+00
   1.2590704E-04   7.2378450E+05   -1.8130885E+00
   1.2648850E-04   7.1776426E+05   -1.8125489E+00
   1.2707263E-04   7.1179586E+05   -1.8120087E+00
   1.2765947E-04   7.0587884E+05   -1.8114679E+00
   1.2824901E-04   7.0001277E+05   -1.8109264E+00
   1.2884128E-04   6.9419717E+05   -1.8103844E+00
   1.2943628E-04   6.8843161E+05   -1.8098417E+00
   1.3003403E-04   6.8271564E+05   -1.8092985E+00
   1.3063454E-04   6.7704883E+05   -1.8087546E+00
   1.3123783E-04   6.7143073E+05   -1.8082102E+00
   1.3184390E-04   6.6586093E+05   -1.8076652E+00
   1.3245277E-04   6.6033898E+05   -1.8071196E+00
   1.3306445E-04   6.5486448E+05   -1.8065734E+00
   1.3367895E-04   6.4943700E+05   -1.8060266E+00
   1.3429630E-04   6.4405613E+05   -1.8054793E+00
   1.3491649E-04   6.3872145E+05   -1.8049315E+00
   1.3553955E-04   6.3343255E+05   -1.8043830E+00
   1.3616548E-04   6.2818904E+05   -1.8038341E+00
   1.3679431E-04   6.2299051E+05   -1.8032845E+00
   1.3742604E-04   6.1783657E+05   -1.8027345E+00
   1.3806069E-04   6.1272682E+05   -1.8021839E+00
   1.3869827E-04   6.0766087E+05   -1.8016328E+00
   1.3933879E-04   6.0263834E+05   -1.8010811E+00
   1.3998227E-04   5.9765883E+05   -1.8005289E+00
   1.4062872E-04   5.9272199E+05   -1.7999762E+00
   1.4127816E-04   5.8782741E+05   -1.7994231E+00
   1.4193060E-04   5.8297475E+05   -1.7988694E+00
   1.4258605E-04   5.7816362E+05   -1.7983152E+00
   1.4324453E-04   5.7339366E+05   -1.7977605E+00
   1.4390605E-04   5.6866450E+05   -1.7972053E+00
   1.4457062E-04   5.6397580E+05   -1.7966496E+00
   1.4523826E-04   5.5932718E+05   -1.7960935E+00
   1.4590899E-04   5.5471831E+05   -1.7955369E+00
   1.4658281E-04   5.5014882E+05   -1.7949798E+00
   1.4725974E-04   5.4561838E+05   -1.7944222E+00
   1.4793981E-04   5.4112663E+05   -1.7938642E+00
   1.4862301E-04   5.3667325E+05   -1.7933058E+00
   1.4930936E-04   5.3225788E+05   -1.7927469E+00
   1.4999889E-04   5.2788020E+05   -1.7921876E+00
   1.5069160E-04   5.2353987E+05   -1.7916278E+00
   1.5138751E-04   5.1923657E+05   -1.7910676E+00
   1.5208663E-04   5.1496997E+05   -1.7905069E+00
   1.5278899E-04   5.1073975E+05   -1.7899459E+00
   1.5349458E-04   5.0654559E+05   -1.7893844E+00
   1.5420343E-04   5.0238718E+05   -1.7888226E+00
   1.5491556E-04   4.9826419E+05   -1.7882603E+00
   1.5563098E-04   4.9417632E+05   -1.7876976E+00
   1.5634970E-04   4.9012325E+05   -1.7871346E+00
   1.5707174E-04   4.8610469E+05   -1.7865711E+00
   1.5779711E-04   4.8212033E+05   -1.7860073E+00
   1.5852584E-04   4.7816987E+05   -1.7854431E+00
   1.5925792E-04   4.7425302E+05   -1.7848785E+00
   1.5999339E-04   4.7036947E+05   -1.7843136E+00
   1.6073226E-04   4.6651894E+05   -1.7837483E+00
   1.6147454E-04   4.6270113E+05   -1.7831827E+00
   1.6222024E-04   4.5891577E+05   -1.7826167E+00
   1.6296939E-04   4.5516256E+05   -1.7820504E+00
   1.6372200E-04   4.5144122E+05   -1.7814837E+00
   1.6447809E-04   4.4775148E+05   -1.7809167E+00
   1.6523767E-04   4.4409306E+05   -1.7803494E+00
   1.6600075E-04   4.4046568E+05   -1.7797818E+00
   1.6676736E-04   4.3686907E+05   -1.7792138E+00
   1.6753751E-04   4.3330296E+05   -1.7786456E+00
   1.6831122E-04   4.2976709E+05   -1.7780770E+00
   1.6908849E-04   4.2626119E+05   -1.7775082E+00
   1.6986936E-04   4.2278499E+05   -1.7769390E+00
   1.7065384E-04   4.1933825E+05   -1.7763696E+00
   1.7144193E-04   4.1592070E+05   -1.7757999E+00
   1.7223367E-04   4.1253208E+05   -1.7752300E+00
   1.7302906E-04   4.0917214E+05   -1.7746597E+00
   1.7382813E-04   4.0584064E+05   -1.7740893E+00
   1.7463089E-04   4.0253732E+05   -1.7735185E+00
   1.7543735E-04   3.9926194E+05   -1.7729475E+00
   1.7624754E-04   3.9601425E+05   -1.7723763E+00
   1.7706147E-04   3.9279402E+05   -1.7718048E+00
   1.7787916E-04   3.8960099E+05   -1.7712331E+00
   1.7870062E-04   3.8643494E+05   -1.7706612E+00
   1.7952588E-04   3.8329563E+05   -1.7700891E+00
   1.8035495E-04   3.8018282E+05   -1.7695167E+00
   1.8118785E-04   3.7709629E+05   -1.7689442E+00
   1.8202459E-04   3.7403580E+05   -1.7683714E+00
   1.8286520E-04   3.7100113E+05   -1.7677984E+00
   1.8370969E-04   3.6799205E+05   -1.7672253E+00
   1.8455808E-04   3.6500835E+05   -1.7666520E+00
   1.8541039E-04   3.6204979E+05   -1.7660785E+00
   1.8626663E-04   3.5911616E+05   -1.7655048E+00
   1.8712683E-04   3.5620724E+05   -1.7649310E+00
   1.8799100E-04   3.5332282E+05   -1.7643570E+00
   1.8885917E-04   3.5046269E+05   -1.7637828E+00
   1.8973134E-04   3.4762663E+05   -1.7632086E+00
   1.9060754E-04   3.4481442E+05   -1.7626341E+00
   1.9148778E-04   3.4202588E+05   -1.7620596E+00
   1.9237209E-04   3.3926078E+05   -1.7614849E+00
   1.9326049E-04   3.3651893E+05   -1.7609101E+00
   1.9415299E-04   3.3380013E+05   -1.7603351E+00
   1.9504960E-04   3.3110416E+05   -1.7597601E+00
   1.9595036E-04   3.2843084E+05   -1.7591849E+00
   1.9685528E-04   3.2577997E+05   -1.7586097E+00
   1.9776438E-04   3.2315135E+05   -1.7580344E+00
   1.9867768E-04   3.2054479E+05   -1.7574590E+00
   1.9959519E-04   3.1796010E+05   -1.7568835E+00
   2.0051694E-04   3.1539709E+05   -1.7563079E+00
   2.0144295E-04   3.1285556E+05   -1.7557323E+00
   2.0237324E-04   3.1033534E+05   -1.7551566E+00
   2.0330782E-04   3.0783624E+05   -1.7545808E+00
   2.0424671E-04   3.0535807E+05   -1.7540050E+00
   2.0518995E-04   3.0290065E+05   -1.7534292E+00
   2.0613754E-04   3.0046381E+05   -1.7528533E+00
   2.0708950E-04   2.9804737E+05   -1.7522774E+00
   2.0804586E-04   2.9565114E+05   -1.7517014E+00
   2.0900664E-04   2.9327496E+05   -1.7511255E+00
   2.0997185E-04   2.9091864E+05   -1.7505495E+00
   2.1094152E-04   2.8858203E+05   -1.7499735E+00
   2.1191567E-04   2.8626494E+05   -1.7493976E+00
   2.1289432E-04   2.8396721E+05   -1.7488216E+00
   2.1387749E-04   2.8168867E+05   -1.7482456E+00
   2.1486520E-04   2.7942915E+05   -1.7476697E+00
   2.1585747E-04   2.7718849E+05   -1.7470938E+00
   2.1685432E-04   2.7496653E+05   -1.7465179E+00
   2.1785578E-04   2.7276311E+05   -1.7459421E+00
   2.1886186E-04   2.7057806E+05   -1.7453663E+00
   2.1987259E-04   2.6841122E+05   -1.7447905E+00
   2.2088798E-04   2.6626245E+05   -1.7442148E+00
   2.2190807E-04   2.6413158E+05   -1.7436392E+00
   2.2293286E-04   2.6201845E+05   -1.7430636E+00
   2.2396239E-04   2.5992292E+05   -1.7424881E+00
   2.2499667E-04   2.5784484E+05   -1.7419127E+00
   2.2603573E-04   2.5578404E+05   -1.7413374E+00
   2.2707958E-04   2.5374039E+05   -1.7407621E+00
   2.2812826E-04   2.5171374E+05   -1.7401870E+00
   2.2918178E-04   2.4970393E+05   -1.7396119E+00
   2.3024017E-04   2.4771083E+05   -1.7390370E+00
   2.3130344E-04   2.4573428E+05   -1.7384622E+00
   2.3237162E-04   2.4377415E+05   -1.7378875E+00
   2.3344474E-04   2.4183030E+05   -1.7373129E+00
   2.3452281E-04   2.3990259E+05   -1.7367385E+00
   2.3560586E-04   2.3799087E+05   -1.7361642E+00
   2.3669392E-04   2.3609501E+05   -1.7355901E+00
   2.3778699E-04   2.3421487E+05   -1.7350161E+00
   2.3888512E-04   2.3235031E+05   -1.7344422E+00
   2.3998831E-04   2.3050121E+05   -1.7338686E+00
   2.4109661E-04   2.2866744E+05   -1.7332951E+00
   2.4221001E-04   2.2684884E+05   -1.7327218E+00
   2.4332857E-04   2.2504531E+05   -1.7321486E+00
   2.4445228E-04   2.2325670E+05   -1.7315757E+00
   2.4558119E-04   2.2148290E+05   -1.7310029E+00
   2.4671531E-04   2.1972376E+05   -1.7304303E+00
   2.4785467E-04   2.1797918E+05   -1.7298580E+00
   2.4899928E-04   2.1624902E+05   -1.7292859E+00
   2.5014919E-04   2.1453315E+05   -1.7287139E+00
   2.5130440E-04   2.1283146E+05   -1.7281422E+00
   2.5246495E-04   2.1114382E+05   -1.7275708E+00
   2.5363086E-04   2.0947012E+05   -1.7269995E+00
   2.5480216E-04   2.0781023E+05   -1.7264286E+00
   2.5597886E-04   2.0616404E+05   -1.7258578E+00
   2.5716100E-04   2.0453143E+05   -1.7252873E+00
   2.5834859E-04   2.0291227E+05   -1.7247171E+00
   2.5954168E-04   2.0130647E+05   -1.7241471E+00
   2.6074027E-04   1.9971389E+05   -1.7235774E+00
   2.6194439E-04   1.9813444E+05   -1.7230080E+00
   2.6315408E-04   1.9656799E+05   -1.7224389E+00
   2.6436935E-04   1.9501444E+05   -1.7218700E+00
   2.6559024E-04   1.9347367E+05   -1.7213015E+00
   2.6681676E-04   1.9194558E+05   -1.7207332E+00
   2.6804895E-04   1.9043006E+05   -1.7201653E+00
   2.6928683E-04   1.8892699E+05   -1.7195977E+00
   2.7053042E-04   1.8743628E+05   -1.7190304E+00
   2.7177976E-04   1.8595782E+05   -1.7184634E+00
   2.7303487E-04   1.8449150E+05   -1.7178967E+00
   2.7429577E-04   1.8303723E+05   -1.7173304E+00
   2.7556250E-04   1.8159489E+05   -1.7167644E+00
   2.7683507E-04   1.8016438E+05   -1.7161987E+00
   2.7811353E-04   1.7874561E+05   -1.7156335E+00
   2.7939788E-04   1.7733847E+05   -1.7150685E+00
   2.8068817E-04   1.7594287E+05   -1.7145040E+00
   2.8198442E-04   1.7455871E+05   -1.7139398E+00
   2.8328665E-04   1.7318588E+05   -1.7133759E+00
   2.8459490E-04   1.7182430E+05   -1.7128125E+00
   2.8590919E-04   1.7047387E+05   -1.7122494E+00
   2.8722955E-04   1.6913448E+05   -1.7116868E+00
   2.8855600E-04   1.6780606E+05   -1.7111245E+00
   2.8988859E-04   1.6648850E+05   -1.7105626E+00
   2.9122732E-04   1.6518171E+05   -1.7100012E+00
   2.9257224E-04   1.6388561E+05   -1.7094401E+00
   2.9392337E-04   1.6260009E+05   -1.7088795E+00
   2.9528074E-04   1.6132507E+05   -1.7083193E+00
   2.9664438E-04   1.6006047E+05   -1.7077595E+00
   2.9801431E-04   1.5880619E+05   -1.7072002E+00
   2.9939057E-04   1.5756214E+05   -1.7066413E+00
   3.0077319E-04   1.5632824E+05   -1.7060828E+00
   3.0216219E-04   1.5510440E+05   -1.7055248E+00
   3.0355761E-04   1.5389054E+05   -1.7049673E+00
   3.0495947E-04   1.5268657E+05   -1.7044102E+00
   3.0636780E-04   1.5149241E+05   -1.7038536E+00
   3.0778264E-04   1.5030797E+05   -1.7032974E+00
   3.0920401E-04   1.4913318E+05   -1.7027418E+00
   3.1063195E-04   1.4796795E+05   -1.7021866E+00
   3.1206648E-04   1.4681219E+05   -1.7016319E+00
   3.1350764E-04   1.4566584E+05   -1.7010777E+00
   3.1495545E-04   1.4452880E+05   -1.7005240E+00
   3.1640994E-04   1.4340101E+05   -1.6999708E+00
   3.1787116E-04   1.4228238E+05   -1.6994181E+00
   3.1933912E-04   1.4117284E+05   -1.6988659E+00
   3.2081386E-04   1.4007230E+05   -1.6983143E+00
   3.2229541E-04   1.3898070E+05   -1.6977632E+00
   3.2378381E-04   1.3789795E+05   -1.6972126E+00
   3.2527908E-04   1.3682399E+05   -1.6966625E+00
   3.2678125E-04   1.3575873E+05   -1.6961130E+00
   3.2829036E-04   1.3470211E+05   -1.6955640E+00
   3.2980644E-04   1.3365405E+05   -1.6950156E+00
   3.3132952E-04   1.3261448E+05   -1.6944677E+00
   3.3285963E-04   1.3158332E+05   -1.6939204E+00
   3.3439681E-04   1.3056052E+05   -1.6933736E+00
   3.3594109E-04   1.2954599E+05   -1.6928275E+00
   3.3749250E-04   1.2853967E+05   -1.6922819E+00
   3.3905108E-04   1.2754148E+05   -1.6917368E+00
   3.4061685E-04   1.2655137E+05   -1.6911924E+00
   3.4218986E-04   1.2556925E+05   -1.6906485E+00
   3.4377013E-04   1.2459507E+05   -1.6901053E+00
   3.4535769E-04   1.2362876E+05   -1.6895626E+00
   3.4695259E-04   1.2267024E+05   -1.6890206E+00
   3.4855485E-04   1.2171947E+05   -1.6884791E+00
   3.5016452E-04   1.2077636E+05   -1.6879383E+00
   3.5178161E-04   1.1984086E+05   -1.6873981E+00
   3.5340618E-04   1.1891290E+05   -1.6868585E+00
   3.5503824E-04   1.1799242E+05   -1.6863195E+00
   3.5667785E-04   1.1707935E+05   -1.6857812E+00
   3.5832502E-04   1.1617364E+05   -1.6852435E+00
   3.5997981E-04   1.1527522E+05   -1.6847064E+00
   3.6164223E-04   1.1438403E+05   -1.6841700E+00
   3.6331233E-04   1.1350001E+05   -1.6836343E+00
   3.6499015E-04   1.1262311E+05   -1.6830992E+00
   3.6667571E-04   1.1175325E+05   -1.6825647E+00
   3.6836906E-04   1.1089038E+05   -1.6820309E+00
   3.7007022E-04   1.1003445E+05   -1.6814978E+00
   3.7177925E-04   1.0918539E+05   -1.6809654E+00
   3.7349616E-04   1.0834314E+05   -1.6804336E+00
   3.7522101E-04   1.0750766E+05   -1.6799025E+00
   3.7695382E-04   1.0667888E+05   -1.6793721E+00
   3.7869463E-04   1.0585675E+05   -1.6788424E+00
   3.8044348E-04   1.0504121E+05   -1.6783134E+00
   3.8220041E-04   1.0423221E+05   -1.6777851E+00
   3.8396545E-04   1.0342969E+05   -1.6772574E+00
   3.8573864E-04   1.0263360E+05   -1.6767305E+00
   3.8752002E-04   1.0184389E+05   -1.6762043E+00
   3.8930963E-04   1.0106049E+05   -1.6756788E+00
   3.9110750E-04   1.0028336E+05   -1.6751541E+00
   3.9291368E-04   9.9512452E+04   -1.6746300E+00
   3.9472820E-04   9.8747706E+04   -1.6741067E+00
   3.9655109E-04   9.7989074E+04   -1.6735841E+00
   3.9838241E-04   9.7236503E+04   -1.6730623E+00
   4.0022218E-04   9.6489944E+04   -1.6725411E+00
   4.0207045E-04   9.5749346E+04   -1.6720208E+00
   4.0392725E-04   9.5014661E+04   -1.6715011E+00
   4.0579263E-04   9.4285839E+04   -1.6709823E+00
   4.0766662E-04   9.3562831E+04   -1.6704641E+00
   4.0954927E-04   9.2845588E+04   -1.6699468E+00
   4.1144061E-04   9.2134063E+04   -1.6694302E+00
   4.1334068E-04   9.1428208E+04   -1.6689144E+00
   4.1524953E-04   9.0727977E+04   -1.6683993E+00
   4.1716720E-04   9.0033322E+04   -1.6678850E+00
   4.1909372E-04   8.9344197E+04   -1.6673715E+00
   4.2102914E-04   8.8660556E+04   -1.6668587E+00
   4.2297350E-04   8.7982354E+04   -1.6663468E+00
   4.2492683E-04   8.7309545E+04   -1.6658356E+00
   4.2688919E-04   8.6642086E+04   -1.6653253E+00
   4.2886061E-04   8.5979931E+04   -1.6648157E+00
   4.3084113E-04   8.5323037E+04   -1.6643069E+00
   4.3283080E-04   8.4671360E+04   -1.6637989E+00
   4.3482966E-04   8.4024857E+04   -1.6632918E+00
   4.3683775E-04   8.3383485E+04   -1.6627854E+00
   4.3885511E-04   8.2747201E+04   -1.6622799E+00
   4.4088179E-04   8.2115964E+04   -1.6617751E+00
   4.4291783E-04   8.1489731E+04   -1.6612712E+00
   4.4496327E-04   8.0868462E+04   -1.6607681E+00
   4.4701816E-04   8.0252115E+04   -1.6602659E+00
   4.4908253E-04   7.9640650E+04   -1.6597644E+00
   4.5115644E-04   7.9034027E+04   -1.6592638E+00
   4.5323993E-04   7.8432204E+04   -1.6587641E+00
   4.5533304E-04   7.7835144E+04   -1.6582652E+00
   4.5743582E-04   7.7242806E+04   -1.6577671E+00
   4.5954830E-04   7.6655152E+04   -1.6572698E+00
   4.6167054E-04   7.6072142E+04   -1.6567734E+00
   4.6380259E-04   7.5493740E+04   -1.6562779E+00
   4.6594448E-04   7.4919906E+04   -1.6557832E+00
   4.6809626E-04   7.4350603E+04   -1.6552894E+00
   4.7025797E-04   7.3785793E+04   -1.6547964E+00
   4.7242967E-04   7.3225441E+04   -1.6543043E+00
   4.7461140E-04   7.2669508E+04   -1.6538131E+00
   4.7680321E-04   7.2117960E+04   -1.6533227E+00
   4.7900514E-04   7.1570759E+04   -1.6528332E+00
   4.8121723E-04   7.1027870E+04   -1.6523446E+00
   4.8343954E-04   7.0489258E+04   -1.6518569E+00
   4.8567212E-04   6.9954887E+04   -1.6513700E+00
   4.8791500E-04   6.9424723E+04   -1.6508840E+00
   4.9016825E-04   6.8898730E+04   -1.6503989E+00
   4.9243189E-04   6.8376876E+04   -1.6499147E+00
   4.9470600E-04   6.7859125E+04   -1.6494314E+00
   4.9699060E-04   6.7345445E+04   -1.6489490E+00
   4.9928575E-04   6.6835802E+04   -1.6484675E+00
   5.0159151E-04   6.6330162E+04   -1.6479869E+00
   5.0390791E-04   6.5828493E+04   -1.6475072E+00
   5.0623501E-04   6.5330763E+04   -1.6470283E+00
   5.0857286E-04   6.4836939E+04   -1.6465504E+00
   5.1092150E-04   6.4346990E+04   -1.6460734E+00
   5.1328099E-04   6.3860883E+04   -1.6455973E+00
   5.1565137E-04   6.3378587E+04   -1.6451222E+00
   5.1803270E-04   6.2900071E+04   -1.6446479E+00
   5.2042503E-04   6.2425305E+04   -1.6441746E+00
   5.2282841E-04   6.1954256E+04   -1.6437022E+00
   5.2524289E-04   6.1486896E+04   -1.6432307E+00
   5.2766851E-04   6.1023194E+04   -1.6427601E+00
   5.3010534E-04   6.0563120E+04   -1.6422905E+00
   5.3255342E-04   6.0106645E+04   -1.6418218E+00
   5.3501281E-04   5.9653739E+04   -1.6413540E+00
   5.3748356E-04   5.9204373E+04   -1.6408872E+00
   5.3996571E-04   5.8758518E+04   -1.6404213E+00
   5.4245933E-04   5.8316146E+04   -1.6399563E+00
   5.4496446E-04   5.7877229E+04   -1.6394923E+00
   5.4748117E-04   5.7441738E+04   -1.6390292E+00
   5.5000949E-04   5.7009645E+04   -1.6385671E+00
   5.5254949E-04   5.6580922E+04   -1.6381059E+00
   5.5510123E-04   5.6155543E+04   -1.6376457E+00
   5.5766474E-04   5.5733480E+04   -1.6371864E+00
   5.6024010E-04   5.5314706E+04   -1.6367280E+00
   5.6282734E-04   5.4899195E+04   -1.6362707E+00
   5.6542654E-04   5.4486919E+04   -1.6358142E+00
   5.6803774E-04   5.4077853E+04   -1.6353588E+00
   5.7066099E-04   5.3671971E+04   -1.6349043E+00
   5.7329637E-04   5.3269246E+04   -1.6344507E+00
   5.7594391E-04   5.2869654E+04   -1.6339982E+00
   5.7860368E-04   5.2473169E+04   -1.6335466E+00
   5.8127573E-04   5.2079765E+04   -1.6330959E+00
   5.8396012E-04   5.1689418E+04   -1.6326462E+00
   5.8665691E-04   5.1302102E+04   -1.6321975E+00
   5.8936616E-04   5.0917794E+04   -1.6317498E+00
   5.9208791E-04   5.0536469E+04   -1.6313031E+00
   5.9482223E-04   5.0158103E+04   -1.6308573E+00
   5.9756919E-04   4.9782672E+04   -1.6304125E+00
   6.0032882E-04   4.9410152E+04   -1.6299686E+00
   6.0310120E-04   4.9040520E+04   -1.6295258E+00
   6.0588639E-04   4.8673752E+04   -1.6290839E+00
   6.0868443E-04   4.8309826E+04   -1.6286430E+00
   6.1149540E-04   4.7948717E+04   -1.6282032E+00
   6.1431935E-04   4.7590405E+04   -1.6277642E+00
   6.1715634E-04   4.7234865E+04   -1.6273263E+00
   6.2000644E-04   4.6882076E+04   -1.6268894E+00
   6.2286969E-04   4.6532016E+04   -1.6264534E+00
