#        a       HoverH0(a)       dlogHdloga_of_a(a)
   1.0000000E-04   1.1925118E+06   -1.8985475E+00
   1.0046181E-04   1.1821268E+06   -1.8981744E+00
   1.0092575E-04   1.1718342E+06   -1.8978003E+00
   1.0139184E-04   1.1616333E+06   -1.8974251E+00
   1.0186008E-04   1.1515232E+06   -1.8970489E+00
   1.0233048E-04   1.1415030E+06   -1.8966717E+00
   1.0280305E-04   1.1315720E+06   -1.8962935E+00
   1.0327781E-04   1.1217294E+06   -1.8959143E+00
   1.0375475E-04   1.1119743E+06   -1.8955340E+00
   1.0423390E-04   1.1023060E+06   -1.8951527E+00
   1.0471527E-04   1.0927237E+06   -1.8947704E+00
   1.0519885E-04   1.0832266E+06   -1.8943871E+00
   1.0568467E-04   1.0738139E+06   -1.8940027E+00
   1.0617274E-04   1.0644849E+06   -1.8936174E+00
   1.0666305E-04   1.0552388E+06   -1.8932310E+00
   1.0715563E-04   1.0460749E+06   -1.8928436E+00
   1.0765049E-04   1.0369925E+06   -1.8924551E+00
   1.0814763E-04   1.0279907E+06   -1.8920657E+00
   1.0864707E-04   1.0190689E+06   -1.8916752E+00
   1.0914881E-04   1.0102264E+06   -1.8912837E+00
   1.0965287E-04   1.0014624E+06   -1.8908912E+00
   1.1015926E-04   9.9277618E+05   -1.8904976E+00
   1.1066799E-04   9.8416714E+05   -1.8901031E+00
   1.1117906E-04   9.7563452E+05   -1.8897075E+00
   1.1169250E-04   9.6717764E+05   -1.8893109E+00
   1.1220831E-04   9.5879582E+05   -1.8889132E+00
   1.1272650E-04   9.5048838E+05   -1.8885146E+00
   1.1324708E-04   9.4225466E+05   -1.8881149E+00
   1.1377007E-04   9.3409399E+05   -1.8877143E+00
   1.1429547E-04   9.2600571E+05   -1.8873126E+00
   1.1482330E-04   9.1798916E+05   -1.8869098E+00
   1.1535356E-04   9.1004370E+05   -1.8865061E+00
   1.1588628E-04   9.0216870E+05   -1.8861014E+00
   1.1642145E-04   8.9436351E+05   -1.8856956E+00
   1.1695910E-04   8.8662751E+05   -1.8852888E+00
   1.1749923E-04   8.7896007E+05   -1.8848810E+00
   1.1804185E-04   8.7136057E+05   -1.8844722E+00
   1.1858698E-04   8.6382841E+05   -1.8840624E+00
   1.1913463E-04   8.5636298E+05   -1.8836515E+00
   1.1968481E-04   8.4896367E+05   -1.8832397E+00
   1.2023752E-04   8.4162990E+05   -1.8828268E+00
   1.2079279E-04   8.3436108E+05   -1.8824129E+00
   1.2135063E-04   8.2715660E+05   -1.8819980E+00
   1.2191104E-04   8.2001591E+05   -1.8815821E+00
   1.2247403E-04   8.1293842E+05   -1.8811652E+00
   1.2303963E-04   8.0592357E+05   -1.8807473E+00
   1.2360784E-04   7.9897078E+05   -1.8803284E+00
   1.2417868E-04   7.9207951E+05   -1.8799084E+00
   1.2475215E-04   7.8524920E+05   -1.8794875E+00
   1.2532826E-04   7.7847930E+05   -1.8790655E+00
   1.2590704E-04   7.7176927E+05   -1.8786426E+00
   1.2648850E-04   7.6511857E+05   -1.8782186E+00
   1.2707263E-04   7.5852666E+05   -1.8777936E+00
   1.2765947E-04   7.5199302E+05   -1.8773677E+00
   1.2824901E-04   7.4551712E+05   -1.8769407E+00
   1.2884128E-04   7.3909845E+05   -1.8765127E+00
   1.2943628E-04   7.3273649E+05   -1.8760838E+00
   1.3003403E-04   7.2643072E+05   -1.8756538E+00
   1.3063454E-04   7.2018065E+05   -1.8752228E+00
   1.3123783E-04   7.1398578E+05   -1.8747909E+00
   1.3184390E-04   7.0784560E+05   -1.8743579E+00
   1.3245277E-04   7.0175963E+05   -1.8739240E+00
   1.3306445E-04   6.9572737E+05   -1.8734891E+00
   1.3367895E-04   6.8974836E+05   -1.8730531E+00
   1.3429630E-04   6.8382210E+05   -1.8726162E+00
   1.3491649E-04   6.7794812E+05   -1.8721783E+00
   1.3553955E-04   6.7212596E+05   -1.8717394E+00
   1.3616548E-04   6.6635515E+05   -1.8712995E+00
   1.3679431E-04   6.6063523E+05   -1.8708587E+00
   1.3742604E-04   6.5496574E+05   -1.8704168E+00
   1.3806069E-04   6.4934623E+05   -1.8699740E+00
   1.3869827E-04   6.4377625E+05   -1.8695302E+00
   1.3933879E-04   6.3825535E+05   -1.8690854E+00
   1.3998227E-04   6.3278309E+05   -1.8686396E+00
   1.4062872E-04   6.2735905E+05   -1.8681929E+00
   1.4127816E-04   6.2198278E+05   -1.8677451E+00
   1.4193060E-04   6.1665385E+05   -1.8672964E+00
   1.4258605E-04   6.1137185E+05   -1.8668468E+00
   1.4324453E-04   6.0613634E+05   -1.8663962E+00
   1.4390605E-04   6.0094692E+05   -1.8659445E+00
   1.4457062E-04   5.9580318E+05   -1.8654920E+00
   1.4523826E-04   5.9070469E+05   -1.8650385E+00
   1.4590899E-04   5.8565105E+05   -1.8645840E+00
   1.4658281E-04   5.8064187E+05   -1.8641285E+00
   1.4725974E-04   5.7567675E+05   -1.8636721E+00
   1.4793981E-04   5.7075528E+05   -1.8632147E+00
   1.4862301E-04   5.6587708E+05   -1.8627564E+00
   1.4930936E-04   5.6104175E+05   -1.8622971E+00
   1.4999889E-04   5.5624893E+05   -1.8618369E+00
   1.5069160E-04   5.5149821E+05   -1.8613757E+00
   1.5138751E-04   5.4678924E+05   -1.8609136E+00
   1.5208663E-04   5.4212163E+05   -1.8604505E+00
   1.5278899E-04   5.3749501E+05   -1.8599865E+00
   1.5349458E-04   5.3290901E+05   -1.8595215E+00
   1.5420343E-04   5.2836328E+05   -1.8590556E+00
   1.5491556E-04   5.2385745E+05   -1.8585888E+00
   1.5563098E-04   5.1939116E+05   -1.8581210E+00
   1.5634970E-04   5.1496406E+05   -1.8576523E+00
   1.5707174E-04   5.1057581E+05   -1.8571826E+00
   1.5779711E-04   5.0622604E+05   -1.8567121E+00
   1.5852584E-04   5.0191441E+05   -1.8562406E+00
   1.5925792E-04   4.9764060E+05   -1.8557682E+00
   1.5999339E-04   4.9340424E+05   -1.8552948E+00
   1.6073226E-04   4.8920503E+05   -1.8548206E+00
   1.6147454E-04   4.8504260E+05   -1.8543454E+00
   1.6222024E-04   4.8091665E+05   -1.8538693E+00
   1.6296939E-04   4.7682685E+05   -1.8533923E+00
   1.6372200E-04   4.7277286E+05   -1.8529144E+00
   1.6447809E-04   4.6875438E+05   -1.8524356E+00
   1.6523767E-04   4.6477108E+05   -1.8519558E+00
   1.6600075E-04   4.6082264E+05   -1.8514752E+00
   1.6676736E-04   4.5690877E+05   -1.8509937E+00
   1.6753751E-04   4.5302914E+05   -1.8505112E+00
   1.6831122E-04   4.4918345E+05   -1.8500279E+00
   1.6908849E-04   4.4537139E+05   -1.8495437E+00
   1.6986936E-04   4.4159268E+05   -1.8490586E+00
   1.7065384E-04   4.3784701E+05   -1.8485726E+00
   1.7144193E-04   4.3413408E+05   -1.8480857E+00
   1.7223367E-04   4.3045360E+05   -1.8475980E+00
   1.7302906E-04   4.2680529E+05   -1.8471093E+00
   1.7382813E-04   4.2318885E+05   -1.8466198E+00
   1.7463089E-04   4.1960400E+05   -1.8461294E+00
   1.7543735E-04   4.1605046E+05   -1.8456382E+00
   1.7624754E-04   4.1252794E+05   -1.8451461E+00
   1.7706147E-04   4.0903618E+05   -1.8446531E+00
   1.7787916E-04   4.0557490E+05   -1.8441592E+00
   1.7870062E-04   4.0214382E+05   -1.8436645E+00
   1.7952588E-04   3.9874268E+05   -1.8431690E+00
   1.8035495E-04   3.9537120E+05   -1.8426726E+00
   1.8118785E-04   3.9202913E+05   -1.8421753E+00
   1.8202459E-04   3.8871621E+05   -1.8416772E+00
   1.8286520E-04   3.8543216E+05   -1.8411783E+00
   1.8370969E-04   3.8217674E+05   -1.8406785E+00
   1.8455808E-04   3.7894969E+05   -1.8401779E+00
   1.8541039E-04   3.7575075E+05   -1.8396764E+00
   1.8626663E-04   3.7257968E+05   -1.8391741E+00
   1.8712683E-04   3.6943623E+05   -1.8386710E+00
   1.8799100E-04   3.6632015E+05   -1.8381671E+00
   1.8885917E-04   3.6323119E+05   -1.8376623E+00
   1.8973134E-04   3.6016913E+05   -1.8371567E+00
   1.9060754E-04   3.5713370E+05   -1.8366504E+00
   1.9148778E-04   3.5412469E+05   -1.8361432E+00
   1.9237209E-04   3.5114185E+05   -1.8356352E+00
   1.9326049E-04   3.4818495E+05   -1.8351264E+00
   1.9415299E-04   3.4525376E+05   -1.8346168E+00
   1.9504960E-04   3.4234805E+05   -1.8341064E+00
   1.9595036E-04   3.3946759E+05   -1.8335952E+00
   1.9685528E-04   3.3661216E+05   -1.8330832E+00
   1.9776438E-04   3.3378154E+05   -1.8325704E+00
   1.9867768E-04   3.3097551E+05   -1.8320569E+00
   1.9959519E-04   3.2819384E+05   -1.8315426E+00
   2.0051694E-04   3.2543632E+05   -1.8310275E+00
   2.0144295E-04   3.2270274E+05   -1.8305116E+00
   2.0237324E-04   3.1999288E+05   -1.8299950E+00
   2.0330782E-04   3.1730653E+05   -1.8294776E+00
   2.0424671E-04   3.1464348E+05   -1.8289594E+00
   2.0518995E-04   3.1200353E+05   -1.8284405E+00
   2.0613754E-04   3.0938647E+05   -1.8279208E+00
   2.0708950E-04   3.0679210E+05   -1.8274004E+00
   2.0804586E-04   3.0422021E+05   -1.8268793E+00
   2.0900664E-04   3.0167061E+05   -1.8263574E+00
   2.0997185E-04   2.9914310E+05   -1.8258348E+00
   2.1094152E-04   2.9663747E+05   -1.8253114E+00
   2.1191567E-04   2.9415354E+05   -1.8247873E+00
   2.1289432E-04   2.9169112E+05   -1.8242625E+00
   2.1387749E-04   2.8925001E+05   -1.8237370E+00
   2.1486520E-04   2.8683003E+05   -1.8232108E+00
   2.1585747E-04   2.8443098E+05   -1.8226838E+00
   2.1685432E-04   2.8205268E+05   -1.8221561E+00
   2.1785578E-04   2.7969495E+05   -1.8216278E+00
   2.1886186E-04   2.7735760E+05   -1.8210987E+00
   2.1987259E-04   2.7504046E+05   -1.8205690E+00
   2.2088798E-04   2.7274334E+05   -1.8200385E+00
   2.2190807E-04   2.7046607E+05   -1.8195074E+00
   2.2293286E-04   2.6820847E+05   -1.8189756E+00
   2.2396239E-04   2.6597037E+05   -1.8184431E+00
   2.2499667E-04   2.6375158E+05   -1.8179099E+00
   2.2603573E-04   2.6155196E+05   -1.8173761E+00
   2.2707958E-04   2.5937131E+05   -1.8168416E+00
   2.2812826E-04   2.5720948E+05   -1.8163065E+00
   2.2918178E-04   2.5506630E+05   -1.8157707E+00
   2.3024017E-04   2.5294160E+05   -1.8152342E+00
   2.3130344E-04   2.5083521E+05   -1.8146971E+00
   2.3237162E-04   2.4874699E+05   -1.8141594E+00
   2.3344474E-04   2.4667676E+05   -1.8136210E+00
   2.3452281E-04   2.4462437E+05   -1.8130820E+00
   2.3560586E-04   2.4258966E+05   -1.8125423E+00
   2.3669392E-04   2.4057247E+05   -1.8120021E+00
   2.3778699E-04   2.3857265E+05   -1.8114612E+00
   2.3888512E-04   2.3659004E+05   -1.8109197E+00
   2.3998831E-04   2.3462450E+05   -1.8103776E+00
   2.4109661E-04   2.3267586E+05   -1.8098349E+00
   2.4221001E-04   2.3074399E+05   -1.8092916E+00
   2.4332857E-04   2.2882872E+05   -1.8087477E+00
   2.4445228E-04   2.2692993E+05   -1.8082032E+00
   2.4558119E-04   2.2504746E+05   -1.8076581E+00
   2.4671531E-04   2.2318116E+05   -1.8071125E+00
   2.4785467E-04   2.2133090E+05   -1.8065662E+00
   2.4899928E-04   2.1949653E+05   -1.8060194E+00
   2.5014919E-04   2.1767791E+05   -1.8054721E+00
   2.5130440E-04   2.1587490E+05   -1.8049241E+00
   2.5246495E-04   2.1408737E+05   -1.8043756E+00
   2.5363086E-04   2.1231518E+05   -1.8038266E+00
   2.5480216E-04   2.1055819E+05   -1.8032770E+00
   2.5597886E-04   2.0881627E+05   -1.8027269E+00
   2.5716100E-04   2.0708928E+05   -1.8021763E+00
   2.5834859E-04   2.0537710E+05   -1.8016251E+00
   2.5954168E-04   2.0367959E+05   -1.8010734E+00
   2.6074027E-04   2.0199663E+05   -1.8005211E+00
   2.6194439E-04   2.0032808E+05   -1.7999684E+00
   2.6315408E-04   1.9867382E+05   -1.7994151E+00
   2.6436935E-04   1.9703372E+05   -1.7988614E+00
   2.6559024E-04   1.9540767E+05   -1.7983071E+00
   2.6681676E-04   1.9379552E+05   -1.7977524E+00
   2.6804895E-04   1.9219717E+05   -1.7971971E+00
   2.6928683E-04   1.9061249E+05   -1.7966414E+00
   2.7053042E-04   1.8904136E+05   -1.7960852E+00
   2.7177976E-04   1.8748366E+05   -1.7955285E+00
   2.7303487E-04   1.8593927E+05   -1.7949714E+00
   2.7429577E-04   1.8440808E+05   -1.7944138E+00
   2.7556250E-04   1.8288997E+05   -1.7938557E+00
   2.7683507E-04   1.8138482E+05   -1.7932972E+00
   2.7811353E-04   1.7989252E+05   -1.7927382E+00
   2.7939788E-04   1.7841296E+05   -1.7921788E+00
   2.8068817E-04   1.7694602E+05   -1.7916190E+00
   2.8198442E-04   1.7549160E+05   -1.7910587E+00
   2.8328665E-04   1.7404958E+05   -1.7904980E+00
   2.8459490E-04   1.7261986E+05   -1.7899369E+00
   2.8590919E-04   1.7120232E+05   -1.7893754E+00
   2.8722955E-04   1.6979687E+05   -1.7888135E+00
   2.8855600E-04   1.6840339E+05   -1.7882511E+00
   2.8988859E-04   1.6702177E+05   -1.7876884E+00
   2.9122732E-04   1.6565193E+05   -1.7871253E+00
   2.9257224E-04   1.6429374E+05   -1.7865617E+00
   2.9392337E-04   1.6294711E+05   -1.7859978E+00
   2.9528074E-04   1.6161194E+05   -1.7854336E+00
   2.9664438E-04   1.6028813E+05   -1.7848689E+00
   2.9801431E-04   1.5897557E+05   -1.7843039E+00
   2.9939057E-04   1.5767418E+05   -1.7837386E+00
   3.0077319E-04   1.5638384E+05   -1.7831729E+00
   3.0216219E-04   1.5510447E+05   -1.7826068E+00
   3.0355761E-04   1.5383597E+05   -1.7820404E+00
   3.0495947E-04   1.5257824E+05   -1.7814737E+00
   3.0636780E-04   1.5133118E+05   -1.7809066E+00
   3.0778264E-04   1.5009471E+05   -1.7803392E+00
   3.0920401E-04   1.4886874E+05   -1.7797715E+00
   3.1063195E-04   1.4765316E+05   -1.7792035E+00
   3.1206648E-04   1.4644789E+05   -1.7786352E+00
   3.1350764E-04   1.4525285E+05   -1.7780666E+00
   3.1495545E-04   1.4406793E+05   -1.7774976E+00
   3.1640994E-04   1.4289305E+05   -1.7769284E+00
   3.1787116E-04   1.4172812E+05   -1.7763589E+00
   3.1933912E-04   1.4057307E+05   -1.7757892E+00
   3.2081386E-04   1.3942779E+05   -1.7752191E+00
   3.2229541E-04   1.3829220E+05   -1.7746488E+00
   3.2378381E-04   1.3716622E+05   -1.7740782E+00
   3.2527908E-04   1.3604977E+05   -1.7735074E+00
   3.2678125E-04   1.3494277E+05   -1.7729364E+00
   3.2829036E-04   1.3384512E+05   -1.7723650E+00
   3.2980644E-04   1.3275675E+05   -1.7717935E+00
   3.3132952E-04   1.3167757E+05   -1.7712217E+00
   3.3285963E-04   1.3060752E+05   -1.7706497E+00
   3.3439681E-04   1.2954650E+05   -1.7700775E+00
   3.3594109E-04   1.2849443E+05   -1.7695051E+00
   3.3749250E-04   1.2745125E+05   -1.7689324E+00
   3.3905108E-04   1.2641687E+05   -1.7683596E+00
   3.4061685E-04   1.2539122E+05   -1.7677866E+00
   3.4218986E-04   1.2437422E+05   -1.7672133E+00
   3.4377013E-04   1.2336579E+05   -1.7666399E+00
   3.4535769E-04   1.2236586E+05   -1.7660663E+00
   3.4695259E-04   1.2137436E+05   -1.7654926E+00
   3.4855485E-04   1.2039121E+05   -1.7649187E+00
   3.5016452E-04   1.1941634E+05   -1.7643446E+00
   3.5178161E-04   1.1844967E+05   -1.7637704E+00
   3.5340618E-04   1.1749114E+05   -1.7631960E+00
   3.5503824E-04   1.1654068E+05   -1.7626215E+00
   3.5667785E-04   1.1559821E+05   -1.7620468E+00
   3.5832502E-04   1.1466367E+05   -1.7614720E+00
   3.5997981E-04   1.1373698E+05   -1.7608971E+00
   3.6164223E-04   1.1281808E+05   -1.7603221E+00
   3.6331233E-04   1.1190691E+05   -1.7597470E+00
   3.6499015E-04   1.1100338E+05   -1.7591718E+00
   3.6667571E-04   1.1010745E+05   -1.7585964E+00
   3.6836906E-04   1.0921903E+05   -1.7580210E+00
   3.7007022E-04   1.0833807E+05   -1.7574455E+00
   3.7177925E-04   1.0746450E+05   -1.7568699E+00
   3.7349616E-04   1.0659825E+05   -1.7562942E+00
   3.7522101E-04   1.0573927E+05   -1.7557185E+00
   3.7695382E-04   1.0488749E+05   -1.7551427E+00
   3.7869463E-04   1.0404285E+05   -1.7545669E+00
   3.8044348E-04   1.0320528E+05   -1.7539910E+00
   3.8220041E-04   1.0237473E+05   -1.7534150E+00
   3.8396545E-04   1.0155113E+05   -1.7528391E+00
   3.8573864E-04   1.0073442E+05   -1.7522631E+00
   3.8752002E-04   9.9924549E+04   -1.7516870E+00
   3.8930963E-04   9.9121450E+04   -1.7511110E+00
   3.9110750E-04   9.8325067E+04   -1.7505349E+00
   3.9291368E-04   9.7535341E+04   -1.7499588E+00
   3.9472820E-04   9.6752214E+04   -1.7493828E+00
   3.9655109E-04   9.5975630E+04   -1.7488067E+00
   3.9838241E-04   9.5205532E+04   -1.7482306E+00
   4.0022218E-04   9.4441864E+04   -1.7476546E+00
   4.0207045E-04   9.3684571E+04   -1.7470786E+00
   4.0392725E-04   9.2933596E+04   -1.7465026E+00
   4.0579263E-04   9.2188886E+04   -1.7459267E+00
   4.0766662E-04   9.1450386E+04   -1.7453508E+00
   4.0954927E-04   9.0718043E+04   -1.7447749E+00
   4.1144061E-04   8.9991803E+04   -1.7441991E+00
   4.1334068E-04   8.9271614E+04   -1.7436234E+00
   4.1524953E-04   8.8557423E+04   -1.7430477E+00
   4.1716720E-04   8.7849179E+04   -1.7424721E+00
   4.1909372E-04   8.7146830E+04   -1.7418966E+00
   4.2102914E-04   8.6450326E+04   -1.7413211E+00
   4.2297350E-04   8.5759615E+04   -1.7407458E+00
   4.2492683E-04   8.5074649E+04   -1.7401705E+00
   4.2688919E-04   8.4395378E+04   -1.7395954E+00
   4.2886061E-04   8.3721751E+04   -1.7390203E+00
   4.3084113E-04   8.3053722E+04   -1.7384454E+00
   4.3283080E-04   8.2391241E+04   -1.7378706E+00
   4.3482966E-04   8.1734261E+04   -1.7372960E+00
   4.3683775E-04   8.1082734E+04   -1.7367214E+00
   4.3885511E-04   8.0436614E+04   -1.7361470E+00
   4.4088179E-04   7.9795853E+04   -1.7355728E+00
   4.4291783E-04   7.9160406E+04   -1.7349987E+00
   4.4496327E-04   7.8530228E+04   -1.7344247E+00
   4.4701816E-04   7.7905271E+04   -1.7338509E+00
   4.4908253E-04   7.7285493E+04   -1.7332773E+00
   4.5115644E-04   7.6670848E+04   -1.7327039E+00
   4.5323993E-04   7.6061292E+04   -1.7321306E+00
   4.5533304E-04   7.5456782E+04   -1.7315576E+00
   4.5743582E-04   7.4857274E+04   -1.7309847E+00
   4.5954830E-04   7.4262724E+04   -1.7304120E+00
   4.6167054E-04   7.3673092E+04   -1.7298395E+00
   4.6380259E-04   7.3088333E+04   -1.7292673E+00
   4.6594448E-04   7.2508407E+04   -1.7286952E+00
   4.6809626E-04   7.1933272E+04   -1.7281234E+00
   4.7025797E-04   7.1362887E+04   -1.7275518E+00
   4.7242967E-04   7.0797212E+04   -1.7269805E+00
   4.7461140E-04   7.0236205E+04   -1.7264094E+00
   4.7680321E-04   6.9679826E+04   -1.7258385E+00
   4.7900514E-04   6.9128037E+04   -1.7252679E+00
   4.8121723E-04   6.8580798E+04   -1.7246976E+00
   4.8343954E-04   6.8038070E+04   -1.7241275E+00
   4.8567212E-04   6.7499814E+04   -1.7235576E+00
   4.8791500E-04   6.6965992E+04   -1.7229881E+00
   4.9016825E-04   6.6436566E+04   -1.7224188E+00
   4.9243189E-04   6.5911499E+04   -1.7218499E+00
   4.9470600E-04   6.5390752E+04   -1.7212812E+00
   4.9699060E-04   6.4874290E+04   -1.7207128E+00
   4.9928575E-04   6.4362075E+04   -1.7201448E+00
   5.0159151E-04   6.3854072E+04   -1.7195770E+00
   5.0390791E-04   6.3350243E+04   -1.7190096E+00
   5.0623501E-04   6.2850555E+04   -1.7184424E+00
   5.0857286E-04   6.2354971E+04   -1.7178756E+00
   5.1092150E-04   6.1863456E+04   -1.7173092E+00
   5.1328099E-04   6.1375975E+04   -1.7167431E+00
   5.1565137E-04   6.0892495E+04   -1.7161773E+00
   5.1803270E-04   6.0412981E+04   -1.7156119E+00
   5.2042503E-04   5.9937399E+04   -1.7150468E+00
   5.2282841E-04   5.9465715E+04   -1.7144821E+00
   5.2524289E-04   5.8997897E+04   -1.7139178E+00
   5.2766851E-04   5.8533911E+04   -1.7133538E+00
   5.3010534E-04   5.8073725E+04   -1.7127902E+00
   5.3255342E-04   5.7617307E+04   -1.7122270E+00
   5.3501281E-04   5.7164624E+04   -1.7116642E+00
   5.3748356E-04   5.6715645E+04   -1.7111018E+00
   5.3996571E-04   5.6270337E+04   -1.7105398E+00
   5.4245933E-04   5.5828671E+04   -1.7099782E+00
   5.4496446E-04   5.5390615E+04   -1.7094170E+00
   5.4748117E-04   5.4956138E+04   -1.7088563E+00
   5.5000949E-04   5.4525209E+04   -1.7082959E+00
   5.5254949E-04   5.4097800E+04   -1.7077360E+00
   5.5510123E-04   5.3673879E+04   -1.7071765E+00
   5.5766474E-04   5.3253417E+04   -1.7066175E+00
   5.6024010E-04   5.2836385E+04   -1.7060589E+00
   5.6282734E-04   5.2422754E+04   -1.7055007E+00
   5.6542654E-04   5.2012494E+04   -1.7049430E+00
   5.6803774E-04   5.1605578E+04   -1.7043858E+00
   5.7066099E-04   5.1201976E+04   -1.7038291E+00
   5.7329637E-04   5.0801662E+04   -1.7032728E+00
   5.7594391E-04   5.0404606E+04   -1.7027170E+00
   5.7860368E-04   5.0010782E+04   -1.7021616E+00
   5.8127573E-04   4.9620161E+04   -1.7016068E+00
   5.8396012E-04   4.9232718E+04   -1.7010524E+00
   5.8665691E-04   4.8848424E+04   -1.7004986E+00
   5.8936616E-04   4.8467254E+04   -1.6999452E+00
   5.9208791E-04   4.8089181E+04   -1.6993924E+00
   5.9482223E-04   4.7714178E+04   -1.6988401E+00
   5.9756919E-04   4.7342220E+04   -1.6982883E+00
   6.0032882E-04   4.6973281E+04   -1.6977370E+00
   6.0310120E-04   4.6607335E+04   -1.6971862E+00
   6.0588639E-04   4.6244358E+04   -1.6966360E+00
   6.0868443E-04   4.5884323E+04   -1.6960863E+00
   6.1149540E-04   4.5527207E+04   -1.6955372E+00
   6.1431935E-04   4.5172985E+04   -1.6949886E+00
   6.1715634E-04   4.4821632E+04   -1.6944406E+00
   6.2000644E-04   4.4473124E+04   -1.6938931E+00
   6.2286969E-04   4.4127437E+04   -1.6933462E+00
