#        a       HoverH0(a)       dlogHdloga_of_a(a)
   1.0000000E-04   1.0708290E+06   -1.8727425E+00
   1.0046181E-04   1.0616300E+06   -1.8723049E+00
   1.0092575E-04   1.0525122E+06   -1.8718663E+00
   1.0139184E-04   1.0434749E+06   -1.8714267E+00
   1.0186008E-04   1.0345172E+06   -1.8709861E+00
   1.0233048E-04   1.0256385E+06   -1.8705446E+00
   1.0280305E-04   1.0168380E+06   -1.8701021E+00
   1.0327781E-04   1.0081152E+06   -1.8696585E+00
   1.0375475E-04   9.9946920E+05   -1.8692140E+00
   1.0423390E-04   9.9089939E+05   -1.8687686E+00
   1.0471527E-04   9.8240508E+05   -1.8683221E+00
   1.0519885E-04   9.7398560E+05   -1.8678747E+00
   1.0568467E-04   9.6564026E+05   -1.8674263E+00
   1.0617274E-04   9.5736841E+05   -1.8669769E+00
   1.0666305E-04   9.4916938E+05   -1.8665266E+00
   1.0715563E-04   9.4104253E+05   -1.8660753E+00
   1.0765049E-04   9.3298720E+05   -1.8656230E+00
   1.0814763E-04   9.2500276E+05   -1.8651698E+00
   1.0864707E-04   9.1708856E+05   -1.8647156E+00
   1.0914881E-04   9.0924399E+05   -1.8642604E+00
   1.0965287E-04   9.0146840E+05   -1.8638043E+00
   1.1015926E-04   8.9376119E+05   -1.8633472E+00
   1.1066799E-04   8.8612174E+05   -1.8628891E+00
   1.1117906E-04   8.7854944E+05   -1.8624302E+00
   1.1169250E-04   8.7104370E+05   -1.8619702E+00
   1.1220831E-04   8.6360391E+05   -1.8615093E+00
   1.1272650E-04   8.5622949E+05   -1.8610475E+00
   1.1324708E-04   8.4891984E+05   -1.8605847E+00
   1.1377007E-04   8.4167440E+05   -1.8601209E+00
   1.1429547E-04   8.3449259E+05   -1.8596563E+00
   1.1482330E-04   8.2737382E+05   -1.8591907E+00
   1.1535356E-04   8.2031755E+05   -1.8587241E+00
   1.1588628E-04   8.1332320E+05   -1.8582566E+00
   1.1642145E-04   8.0639023E+05   -1.8577882E+00
   1.1695910E-04   7.9951808E+05   -1.8573188E+00
   1.1749923E-04   7.9270622E+05   -1.8568485E+00
   1.1804185E-04   7.8595410E+05   -1.8563773E+00
   1.1858698E-04   7.7926118E+05   -1.8559052E+00
   1.1913463E-04   7.7262694E+05   -1.8554321E+00
   1.1968481E-04   7.6605085E+05   -1.8549582E+00
   1.2023752E-04   7.5953240E+05   -1.8544833E+00
   1.2079279E-04   7.5307106E+05   -1.8540075E+00
   1.2135063E-04   7.4666633E+05   -1.8535307E+00
   1.2191104E-04   7.4031769E+05   -1.8530531E+00
   1.2247403E-04   7.3402465E+05   -1.8525745E+00
   1.2303963E-04   7.2778672E+05   -1.8520951E+00
   1.2360784E-04   7.2160338E+05   -1.8516147E+00
   1.2417868E-04   7.1547417E+05   -1.8511335E+00
   1.2475215E-04   7.0939859E+05   -1.8506513E+00
   1.2532826E-04   7.0337617E+05   -1.8501683E+00
   1.2590704E-04   6.9740643E+05   -1.8496843E+00
   1.2648850E-04   6.9148890E+05   -1.8491995E+00
   1.2707263E-04   6.8562311E+05   -1.8487138E+00
   1.2765947E-04   6.7980861E+05   -1.8482272E+00
   1.2824901E-04   6.7404493E+05   -1.8477397E+00
   1.2884128E-04   6.6833161E+05   -1.8472513E+00
   1.2943628E-04   6.6266822E+05   -1.8467621E+00
   1.3003403E-04   6.5705430E+05   -1.8462720E+00
   1.3063454E-04   6.5148941E+05   -1.8457810E+00
   1.3123783E-04   6.4597312E+05   -1.8452892E+00
   1.3184390E-04   6.4050499E+05   -1.8447964E+00
   1.3245277E-04   6.3508458E+05   -1.8443029E+00
   1.3306445E-04   6.2971148E+05   -1.8438084E+00
   1.3367895E-04   6.2438527E+05   -1.8433131E+00
   1.3429630E-04   6.1910551E+05   -1.8428170E+00
   1.3491649E-04   6.1387181E+05   -1.8423200E+00
   1.3553955E-04   6.0868375E+05   -1.8418222E+00
   1.3616548E-04   6.0354092E+05   -1.8413235E+00
   1.3679431E-04   5.9844291E+05   -1.8408240E+00
   1.3742604E-04   5.9338934E+05   -1.8403236E+00
   1.3806069E-04   5.8837980E+05   -1.8398224E+00
   1.3869827E-04   5.8341390E+05   -1.8393204E+00
   1.3933879E-04   5.7849125E+05   -1.8388175E+00
   1.3998227E-04   5.7361146E+05   -1.8383138E+00
   1.4062872E-04   5.6877416E+05   -1.8378093E+00
   1.4127816E-04   5.6397897E+05   -1.8373040E+00
   1.4193060E-04   5.5922550E+05   -1.8367979E+00
   1.4258605E-04   5.5451339E+05   -1.8362910E+00
   1.4324453E-04   5.4984227E+05   -1.8357832E+00
   1.4390605E-04   5.4521178E+05   -1.8352747E+00
   1.4457062E-04   5.4062155E+05   -1.8347653E+00
   1.4523826E-04   5.3607123E+05   -1.8342552E+00
   1.4590899E-04   5.3156046E+05   -1.8337442E+00
   1.4658281E-04   5.2708888E+05   -1.8332325E+00
   1.4725974E-04   5.2265616E+05   -1.8327200E+00
   1.4793981E-04   5.1826193E+05   -1.8322067E+00
   1.4862301E-04   5.1390587E+05   -1.8316926E+00
   1.4930936E-04   5.0958763E+05   -1.8311778E+00
   1.4999889E-04   5.0530687E+05   -1.8306621E+00
   1.5069160E-04   5.0106326E+05   -1.8301458E+00
   1.5138751E-04   4.9685648E+05   -1.8296286E+00
   1.5208663E-04   4.9268619E+05   -1.8291107E+00
   1.5278899E-04   4.8855207E+05   -1.8285920E+00
   1.5349458E-04   4.8445379E+05   -1.8280726E+00
   1.5420343E-04   4.8039105E+05   -1.8275524E+00
   1.5491556E-04   4.7636352E+05   -1.8270315E+00
   1.5563098E-04   4.7237089E+05   -1.8265099E+00
   1.5634970E-04   4.6841285E+05   -1.8259875E+00
   1.5707174E-04   4.6448910E+05   -1.8254644E+00
   1.5779711E-04   4.6059932E+05   -1.8249405E+00
   1.5852584E-04   4.5674322E+05   -1.8244159E+00
   1.5925792E-04   4.5292050E+05   -1.8238907E+00
   1.5999339E-04   4.4913086E+05   -1.8233646E+00
   1.6073226E-04   4.4537401E+05   -1.8228379E+00
   1.6147454E-04   4.4164966E+05   -1.8223105E+00
   1.6222024E-04   4.3795751E+05   -1.8217824E+00
   1.6296939E-04   4.3429730E+05   -1.8212535E+00
   1.6372200E-04   4.3066872E+05   -1.8207240E+00
   1.6447809E-04   4.2707150E+05   -1.8201938E+00
   1.6523767E-04   4.2350536E+05   -1.8196629E+00
   1.6600075E-04   4.1997003E+05   -1.8191313E+00
   1.6676736E-04   4.1646523E+05   -1.8185990E+00
   1.6753751E-04   4.1299069E+05   -1.8180661E+00
   1.6831122E-04   4.0954615E+05   -1.8175325E+00
   1.6908849E-04   4.0613133E+05   -1.8169982E+00
   1.6986936E-04   4.0274598E+05   -1.8164633E+00
   1.7065384E-04   3.9938983E+05   -1.8159277E+00
   1.7144193E-04   3.9606263E+05   -1.8153915E+00
   1.7223367E-04   3.9276412E+05   -1.8148546E+00
   1.7302906E-04   3.8949404E+05   -1.8143170E+00
   1.7382813E-04   3.8625215E+05   -1.8137789E+00
   1.7463089E-04   3.8303819E+05   -1.8132401E+00
   1.7543735E-04   3.7985192E+05   -1.8127006E+00
   1.7624754E-04   3.7669309E+05   -1.8121606E+00
   1.7706147E-04   3.7356145E+05   -1.8116199E+00
   1.7787916E-04   3.7045678E+05   -1.8110786E+00
   1.7870062E-04   3.6737882E+05   -1.8105367E+00
   1.7952588E-04   3.6432735E+05   -1.8099942E+00
   1.8035495E-04   3.6130213E+05   -1.8094511E+00
   1.8118785E-04   3.5830292E+05   -1.8089074E+00
   1.8202459E-04   3.5532950E+05   -1.8083631E+00
   1.8286520E-04   3.5238164E+05   -1.8078183E+00
   1.8370969E-04   3.4945912E+05   -1.8072728E+00
   1.8455808E-04   3.4656171E+05   -1.8067268E+00
   1.8541039E-04   3.4368918E+05   -1.8061802E+00
   1.8626663E-04   3.4084132E+05   -1.8056330E+00
   1.8712683E-04   3.3801791E+05   -1.8050853E+00
   1.8799100E-04   3.3521874E+05   -1.8045370E+00
   1.8885917E-04   3.3244358E+05   -1.8039881E+00
   1.8973134E-04   3.2969224E+05   -1.8034388E+00
   1.9060754E-04   3.2696449E+05   -1.8028888E+00
   1.9148778E-04   3.2426014E+05   -1.8023384E+00
   1.9237209E-04   3.2157896E+05   -1.8017874E+00
   1.9326049E-04   3.1892077E+05   -1.8012358E+00
   1.9415299E-04   3.1628536E+05   -1.8006838E+00
   1.9504960E-04   3.1367252E+05   -1.8001312E+00
   1.9595036E-04   3.1108205E+05   -1.7995782E+00
   1.9685528E-04   3.0851377E+05   -1.7990246E+00
   1.9776438E-04   3.0596747E+05   -1.7984705E+00
   1.9867768E-04   3.0344297E+05   -1.7979159E+00
   1.9959519E-04   3.0094006E+05   -1.7973609E+00
   2.0051694E-04   2.9845856E+05   -1.7968053E+00
   2.0144295E-04   2.9599828E+05   -1.7962493E+00
   2.0237324E-04   2.9355903E+05   -1.7956928E+00
   2.0330782E-04   2.9114063E+05   -1.7951358E+00
   2.0424671E-04   2.8874290E+05   -1.7945784E+00
   2.0518995E-04   2.8636565E+05   -1.7940205E+00
   2.0613754E-04   2.8400870E+05   -1.7934621E+00
   2.0708950E-04   2.8167187E+05   -1.7929033E+00
   2.0804586E-04   2.7935499E+05   -1.7923441E+00
   2.0900664E-04   2.7705789E+05   -1.7917844E+00
   2.0997185E-04   2.7478038E+05   -1.7912243E+00
   2.1094152E-04   2.7252229E+05   -1.7906638E+00
   2.1191567E-04   2.7028347E+05   -1.7901028E+00
   2.1289432E-04   2.6806372E+05   -1.7895415E+00
   2.1387749E-04   2.6586290E+05   -1.7889797E+00
   2.1486520E-04   2.6368082E+05   -1.7884175E+00
   2.1585747E-04   2.6151734E+05   -1.7878549E+00
   2.1685432E-04   2.5937227E+05   -1.7872920E+00
   2.1785578E-04   2.5724547E+05   -1.7867286E+00
   2.1886186E-04   2.5513677E+05   -1.7861649E+00
   2.1987259E-04   2.5304602E+05   -1.7856007E+00
   2.2088798E-04   2.5097305E+05   -1.7850363E+00
   2.2190807E-04   2.4891771E+05   -1.7844714E+00
   2.2293286E-04   2.4687984E+05   -1.7839062E+00
   2.2396239E-04   2.4485930E+05   -1.7833406E+00
   2.2499667E-04   2.4285592E+05   -1.7827747E+00
   2.2603573E-04   2.4086957E+05   -1.7822084E+00
   2.2707958E-04   2.3890008E+05   -1.7816419E+00
   2.2812826E-04   2.3694732E+05   -1.7810749E+00
   2.2918178E-04   2.3501113E+05   -1.7805077E+00
   2.3024017E-04   2.3309138E+05   -1.7799401E+00
   2.3130344E-04   2.3118791E+05   -1.7793722E+00
   2.3237162E-04   2.2930058E+05   -1.7788040E+00
   2.3344474E-04   2.2742926E+05   -1.7782355E+00
   2.3452281E-04   2.2557380E+05   -1.7776668E+00
   2.3560586E-04   2.2373406E+05   -1.7770977E+00
   2.3669392E-04   2.2190992E+05   -1.7765283E+00
   2.3778699E-04   2.2010122E+05   -1.7759587E+00
   2.3888512E-04   2.1830783E+05   -1.7753888E+00
   2.3998831E-04   2.1652963E+05   -1.7748186E+00
   2.4109661E-04   2.1476648E+05   -1.7742481E+00
   2.4221001E-04   2.1301824E+05   -1.7736774E+00
   2.4332857E-04   2.1128479E+05   -1.7731065E+00
   2.4445228E-04   2.0956600E+05   -1.7725353E+00
   2.4558119E-04   2.0786174E+05   -1.7719638E+00
   2.4671531E-04   2.0617187E+05   -1.7713922E+00
   2.4785467E-04   2.0449629E+05   -1.7708203E+00
   2.4899928E-04   2.0283486E+05   -1.7702482E+00
   2.5014919E-04   2.0118746E+05   -1.7696759E+00
   2.5130440E-04   1.9955396E+05   -1.7691033E+00
   2.5246495E-04   1.9793425E+05   -1.7685306E+00
   2.5363086E-04   1.9632820E+05   -1.7679577E+00
   2.5480216E-04   1.9473570E+05   -1.7673846E+00
   2.5597886E-04   1.9315663E+05   -1.7668113E+00
   2.5716100E-04   1.9159087E+05   -1.7662378E+00
   2.5834859E-04   1.9003830E+05   -1.7656641E+00
   2.5954168E-04   1.8849881E+05   -1.7650903E+00
   2.6074027E-04   1.8697229E+05   -1.7645163E+00
   2.6194439E-04   1.8545862E+05   -1.7639422E+00
   2.6315408E-04   1.8395769E+05   -1.7633679E+00
   2.6436935E-04   1.8246939E+05   -1.7627935E+00
   2.6559024E-04   1.8099361E+05   -1.7622189E+00
   2.6681676E-04   1.7953024E+05   -1.7616442E+00
   2.6804895E-04   1.7807918E+05   -1.7610694E+00
   2.6928683E-04   1.7664031E+05   -1.7604945E+00
   2.7053042E-04   1.7521353E+05   -1.7599195E+00
   2.7177976E-04   1.7379874E+05   -1.7593443E+00
   2.7303487E-04   1.7239582E+05   -1.7587691E+00
   2.7429577E-04   1.7100469E+05   -1.7581937E+00
   2.7556250E-04   1.6962523E+05   -1.7576183E+00
   2.7683507E-04   1.6825734E+05   -1.7570428E+00
   2.7811353E-04   1.6690093E+05   -1.7564672E+00
   2.7939788E-04   1.6555589E+05   -1.7558915E+00
   2.8068817E-04   1.6422213E+05   -1.7553158E+00
   2.8198442E-04   1.6289954E+05   -1.7547401E+00
   2.8328665E-04   1.6158804E+05   -1.7541642E+00
   2.8459490E-04   1.6028752E+05   -1.7535884E+00
   2.8590919E-04   1.5899789E+05   -1.7530125E+00
   2.8722955E-04   1.5771905E+05   -1.7524365E+00
   2.8855600E-04   1.5645091E+05   -1.7518605E+00
   2.8988859E-04   1.5519338E+05   -1.7512846E+00
   2.9122732E-04   1.5394637E+05   -1.7507086E+00
   2.9257224E-04   1.5270978E+05   -1.7501325E+00
   2.9392337E-04   1.5148353E+05   -1.7495565E+00
   2.9528074E-04   1.5026752E+05   -1.7489805E+00
   2.9664438E-04   1.4906168E+05   -1.7484045E+00
   2.9801431E-04   1.4786589E+05   -1.7478286E+00
   2.9939057E-04   1.4668010E+05   -1.7472526E+00
   3.0077319E-04   1.4550419E+05   -1.7466767E+00
   3.0216219E-04   1.4433810E+05   -1.7461008E+00
   3.0355761E-04   1.4318173E+05   -1.7455249E+00
   3.0495947E-04   1.4203501E+05   -1.7449491E+00
   3.0636780E-04   1.4089784E+05   -1.7443734E+00
   3.0778264E-04   1.3977014E+05   -1.7437977E+00
   3.0920401E-04   1.3865184E+05   -1.7432220E+00
   3.1063195E-04   1.3754285E+05   -1.7426465E+00
   3.1206648E-04   1.3644310E+05   -1.7420710E+00
   3.1350764E-04   1.3535249E+05   -1.7414956E+00
   3.1495545E-04   1.3427096E+05   -1.7409203E+00
   3.1640994E-04   1.3319843E+05   -1.7403451E+00
   3.1787116E-04   1.3213481E+05   -1.7397700E+00
   3.1933912E-04   1.3108003E+05   -1.7391950E+00
   3.2081386E-04   1.3003402E+05   -1.7386201E+00
   3.2229541E-04   1.2899669E+05   -1.7380453E+00
   3.2378381E-04   1.2796798E+05   -1.7374707E+00
   3.2527908E-04   1.2694781E+05   -1.7368962E+00
   3.2678125E-04   1.2593611E+05   -1.7363218E+00
   3.2829036E-04   1.2493280E+05   -1.7357476E+00
   3.2980644E-04   1.2393780E+05   -1.7351735E+00
   3.3132952E-04   1.2295106E+05   -1.7345996E+00
   3.3285963E-04   1.2197250E+05   -1.7340258E+00
   3.3439681E-04   1.2100205E+05   -1.7334522E+00
   3.3594109E-04   1.2003963E+05   -1.7328788E+00
   3.3749250E-04   1.1908518E+05   -1.7323056E+00
   3.3905108E-04   1.1813864E+05   -1.7317325E+00
   3.4061685E-04   1.1719993E+05   -1.7311597E+00
   3.4218986E-04   1.1626898E+05   -1.7305870E+00
   3.4377013E-04   1.1534573E+05   -1.7300145E+00
   3.4535769E-04   1.1443012E+05   -1.7294423E+00
   3.4695259E-04   1.1352207E+05   -1.7288703E+00
   3.4855485E-04   1.1262152E+05   -1.7282985E+00
   3.5016452E-04   1.1172842E+05   -1.7277269E+00
   3.5178161E-04   1.1084268E+05   -1.7271555E+00
   3.5340618E-04   1.0996426E+05   -1.7265844E+00
   3.5503824E-04   1.0909309E+05   -1.7260136E+00
   3.5667785E-04   1.0822910E+05   -1.7254430E+00
   3.5832502E-04   1.0737224E+05   -1.7248726E+00
   3.5997981E-04   1.0652244E+05   -1.7243025E+00
   3.6164223E-04   1.0567965E+05   -1.7237327E+00
   3.6331233E-04   1.0484380E+05   -1.7231632E+00
   3.6499015E-04   1.0401483E+05   -1.7225939E+00
   3.6667571E-04   1.0319269E+05   -1.7220249E+00
   3.6836906E-04   1.0237731E+05   -1.7214563E+00
   3.7007022E-04   1.0156864E+05   -1.7208879E+00
   3.7177925E-04   1.0076663E+05   -1.7203198E+00
   3.7349616E-04   9.9971204E+04   -1.7197520E+00
   3.7522101E-04   9.9182321E+04   -1.7191846E+00
   3.7695382E-04   9.8399920E+04   -1.7186174E+00
   3.7869463E-04   9.7623946E+04   -1.7180506E+00
   3.8044348E-04   9.6854344E+04   -1.7174842E+00
   3.8220041E-04   9.6091060E+04   -1.7169180E+00
   3.8396545E-04   9.5334040E+04   -1.7163522E+00
   3.8573864E-04   9.4583230E+04   -1.7157868E+00
   3.8752002E-04   9.3838578E+04   -1.7152217E+00
   3.8930963E-04   9.3100031E+04   -1.7146570E+00
   3.9110750E-04   9.2367536E+04   -1.7140926E+00
   3.9291368E-04   9.1641043E+04   -1.7135286E+00
   3.9472820E-04   9.0920500E+04   -1.7129650E+00
   3.9655109E-04   9.0205856E+04   -1.7124018E+00
   3.9838241E-04   8.9497062E+04   -1.7118390E+00
   4.0022218E-04   8.8794068E+04   -1.7112766E+00
   4.0207045E-04   8.8096824E+04   -1.7107145E+00
   4.0392725E-04   8.7405281E+04   -1.7101529E+00
   4.0579263E-04   8.6719391E+04   -1.7095917E+00
   4.0766662E-04   8.6039105E+04   -1.7090309E+00
   4.0954927E-04   8.5364377E+04   -1.7084705E+00
   4.1144061E-04   8.4695158E+04   -1.7079105E+00
   4.1334068E-04   8.4031403E+04   -1.7073510E+00
   4.1524953E-04   8.3373064E+04   -1.7067919E+00
   4.1716720E-04   8.2720096E+04   -1.7062333E+00
   4.1909372E-04   8.2072453E+04   -1.7056751E+00
   4.2102914E-04   8.1430090E+04   -1.7051174E+00
   4.2297350E-04   8.0792962E+04   -1.7045601E+00
   4.2492683E-04   8.0161025E+04   -1.7040033E+00
   4.2688919E-04   7.9534235E+04   -1.7034470E+00
   4.2886061E-04   7.8912548E+04   -1.7028911E+00
   4.3084113E-04   7.8295921E+04   -1.7023357E+00
   4.3283080E-04   7.7684311E+04   -1.7017809E+00
   4.3482966E-04   7.7077676E+04   -1.7012265E+00
   4.3683775E-04   7.6475973E+04   -1.7006726E+00
   4.3885511E-04   7.5879160E+04   -1.7001192E+00
   4.4088179E-04   7.5287197E+04   -1.6995663E+00
   4.4291783E-04   7.4700043E+04   -1.6990139E+00
   4.4496327E-04   7.4117656E+04   -1.6984620E+00
   4.4701816E-04   7.3539996E+04   -1.6979107E+00
   4.4908253E-04   7.2967024E+04   -1.6973599E+00
   4.5115644E-04   7.2398699E+04   -1.6968096E+00
   4.5323993E-04   7.1834984E+04   -1.6962599E+00
   4.5533304E-04   7.1275838E+04   -1.6957107E+00
   4.5743582E-04   7.0721223E+04   -1.6951620E+00
   4.5954830E-04   7.0171101E+04   -1.6946140E+00
   4.6167054E-04   6.9625434E+04   -1.6940664E+00
   4.6380259E-04   6.9084185E+04   -1.6935195E+00
   4.6594448E-04   6.8547315E+04   -1.6929730E+00
   4.6809626E-04   6.8014789E+04   -1.6924272E+00
   4.7025797E-04   6.7486570E+04   -1.6918820E+00
   4.7242967E-04   6.6962621E+04   -1.6913373E+00
   4.7461140E-04   6.6442906E+04   -1.6907932E+00
   4.7680321E-04   6.5927390E+04   -1.6902497E+00
   4.7900514E-04   6.5416038E+04   -1.6897068E+00
   4.8121723E-04   6.4908814E+04   -1.6891646E+00
   4.8343954E-04   6.4405684E+04   -1.6886229E+00
   4.8567212E-04   6.3906614E+04   -1.6880818E+00
   4.8791500E-04   6.3411568E+04   -1.6875413E+00
   4.9016825E-04   6.2920514E+04   -1.6870015E+00
   4.9243189E-04   6.2433418E+04   -1.6864623E+00
   4.9470600E-04   6.1950247E+04   -1.6859237E+00
   4.9699060E-04   6.1470967E+04   -1.6853858E+00
   4.9928575E-04   6.0995546E+04   -1.6848485E+00
   5.0159151E-04   6.0523952E+04   -1.6843118E+00
   5.0390791E-04   6.0056153E+04   -1.6837758E+00
   5.0623501E-04   5.9592116E+04   -1.6832404E+00
   5.0857286E-04   5.9131810E+04   -1.6827057E+00
   5.1092150E-04   5.8675205E+04   -1.6821717E+00
   5.1328099E-04   5.8222268E+04   -1.6816383E+00
   5.1565137E-04   5.7772970E+04   -1.6811056E+00
   5.1803270E-04   5.7327280E+04   -1.6805736E+00
   5.2042503E-04   5.6885167E+04   -1.6800422E+00
   5.2282841E-04   5.6446602E+04   -1.6795116E+00
   5.2524289E-04   5.6011555E+04   -1.6789816E+00
   5.2766851E-04   5.5579997E+04   -1.6784523E+00
   5.3010534E-04   5.5151898E+04   -1.6779237E+00
   5.3255342E-04   5.4727230E+04   -1.6773958E+00
   5.3501281E-04   5.4305964E+04   -1.6768686E+00
   5.3748356E-04   5.3888071E+04   -1.6763422E+00
   5.3996571E-04   5.3473523E+04   -1.6758164E+00
   5.4245933E-04   5.3062293E+04   -1.6752914E+00
   5.4496446E-04   5.2654353E+04   -1.6747670E+00
   5.4748117E-04   5.2249675E+04   -1.6742434E+00
   5.5000949E-04   5.1848233E+04   -1.6737206E+00
   5.5254949E-04   5.1449998E+04   -1.6731984E+00
   5.5510123E-04   5.1054945E+04   -1.6726770E+00
   5.5766474E-04   5.0663048E+04   -1.6721564E+00
   5.6024010E-04   5.0274278E+04   -1.6716365E+00
   5.6282734E-04   4.9888612E+04   -1.6711173E+00
   5.6542654E-04   4.9506022E+04   -1.6705989E+00
   5.6803774E-04   4.9126484E+04   -1.6700812E+00
   5.7066099E-04   4.8749971E+04   -1.6695643E+00
   5.7329637E-04   4.8376459E+04   -1.6690482E+00
   5.7594391E-04   4.8005924E+04   -1.6685328E+00
   5.7860368E-04   4.7638339E+04   -1.6680183E+00
   5.8127573E-04   4.7273681E+04   -1.6675044E+00
   5.8396012E-04   4.6911925E+04   -1.6669914E+00
   5.8665691E-04   4.6553048E+04   -1.6664792E+00
   5.8936616E-04   4.6197025E+04   -1.6659677E+00
   5.9208791E-04   4.5843832E+04   -1.6654570E+00
   5.9482223E-04   4.5493447E+04   -1.6649471E+00
   5.9756919E-04   4.5145846E+04   -1.6644381E+00
   6.0032882E-04   4.4801005E+04   -1.6639298E+00
   6.0310120E-04   4.4458903E+04   -1.6634223E+00
   6.0588639E-04   4.4119516E+04   -1.6629156E+00
   6.0868443E-04   4.3782822E+04   -1.6624098E+00
   6.1149540E-04   4.3448799E+04   -1.6619047E+00
   6.1431935E-04   4.3117424E+04   -1.6614005E+00
   6.1715634E-04   4.2788676E+04   -1.6608971E+00
   6.2000644E-04   4.2462533E+04   -1.6603945E+00
   6.2286969E-04   4.2138973E+04   -1.6598928E+00
