#        a       HoverH0(a)       dlogHdloga_of_a(a)
   1.0000000E-04   1.1073262E+06   -1.8849497E+00
   1.0046181E-04   1.0977519E+06   -1.8845411E+00
   1.0092575E-04   1.0882624E+06   -1.8841314E+00
   1.0139184E-04   1.0788570E+06   -1.8837207E+00
   1.0186008E-04   1.0695350E+06   -1.8833090E+00
   1.0233048E-04   1.0602954E+06   -1.8828964E+00
   1.0280305E-04   1.0511377E+06   -1.8824827E+00
   1.0327781E-04   1.0420611E+06   -1.8820679E+00
   1.0375475E-04   1.0330649E+06   -1.8816522E+00
   1.0423390E-04   1.0241482E+06   -1.8812355E+00
   1.0471527E-04   1.0153105E+06   -1.8808177E+00
   1.0519885E-04   1.0065510E+06   -1.8803990E+00
   1.0568467E-04   9.9786900E+05   -1.8799792E+00
   1.0617274E-04   9.8926379E+05   -1.8795584E+00
   1.0666305E-04   9.8073469E+05   -1.8791367E+00
   1.0715563E-04   9.7228102E+05   -1.8787139E+00
   1.0765049E-04   9.6390209E+05   -1.8782901E+00
   1.0814763E-04   9.5559725E+05   -1.8778653E+00
   1.0864707E-04   9.4736581E+05   -1.8774395E+00
   1.0914881E-04   9.3920712E+05   -1.8770127E+00
   1.0965287E-04   9.3112053E+05   -1.8765849E+00
   1.1015926E-04   9.2310538E+05   -1.8761561E+00
   1.1066799E-04   9.1516104E+05   -1.8757263E+00
   1.1117906E-04   9.0728687E+05   -1.8752956E+00
   1.1169250E-04   8.9948223E+05   -1.8748638E+00
   1.1220831E-04   8.9174651E+05   -1.8744310E+00
   1.1272650E-04   8.8407908E+05   -1.8739972E+00
   1.1324708E-04   8.7647933E+05   -1.8735625E+00
   1.1377007E-04   8.6894665E+05   -1.8731267E+00
   1.1429547E-04   8.6148045E+05   -1.8726900E+00
   1.1482330E-04   8.5408011E+05   -1.8722522E+00
   1.1535356E-04   8.4674506E+05   -1.8718135E+00
   1.1588628E-04   8.3947470E+05   -1.8713738E+00
   1.1642145E-04   8.3226845E+05   -1.8709331E+00
   1.1695910E-04   8.2512574E+05   -1.8704914E+00
   1.1749923E-04   8.1804600E+05   -1.8700488E+00
   1.1804185E-04   8.1102866E+05   -1.8696051E+00
   1.1858698E-04   8.0407316E+05   -1.8691605E+00
   1.1913463E-04   7.9717894E+05   -1.8687149E+00
   1.1968481E-04   7.9034546E+05   -1.8682683E+00
   1.2023752E-04   7.8357218E+05   -1.8678208E+00
   1.2079279E-04   7.7685854E+05   -1.8673723E+00
   1.2135063E-04   7.7020402E+05   -1.8669228E+00
   1.2191104E-04   7.6360809E+05   -1.8664723E+00
   1.2247403E-04   7.5707021E+05   -1.8660209E+00
   1.2303963E-04   7.5058988E+05   -1.8655685E+00
   1.2360784E-04   7.4416657E+05   -1.8651151E+00
   1.2417868E-04   7.3779976E+05   -1.8646608E+00
   1.2475215E-04   7.3148897E+05   -1.8642055E+00
   1.2532826E-04   7.2523367E+05   -1.8637493E+00
   1.2590704E-04   7.1903338E+05   -1.8632921E+00
   1.2648850E-04   7.1288760E+05   -1.8628339E+00
   1.2707263E-04   7.0679585E+05   -1.8623748E+00
   1.2765947E-04   7.0075763E+05   -1.8619147E+00
   1.2824901E-04   6.9477248E+05   -1.8614537E+00
   1.2884128E-04   6.8883991E+05   -1.8609918E+00
   1.2943628E-04   6.8295945E+05   -1.8605288E+00
   1.3003403E-04   6.7713064E+05   -1.8600650E+00
   1.3063454E-04   6.7135300E+05   -1.8596002E+00
   1.3123783E-04   6.6562610E+05   -1.8591345E+00
   1.3184390E-04   6.5994946E+05   -1.8586678E+00
   1.3245277E-04   6.5432265E+05   -1.8582002E+00
   1.3306445E-04   6.4874521E+05   -1.8577316E+00
   1.3367895E-04   6.4321670E+05   -1.8572622E+00
   1.3429630E-04   6.3773668E+05   -1.8567918E+00
   1.3491649E-04   6.3230472E+05   -1.8563204E+00
   1.3553955E-04   6.2692040E+05   -1.8558482E+00
   1.3616548E-04   6.2158327E+05   -1.8553750E+00
   1.3679431E-04   6.1629293E+05   -1.8549009E+00
   1.3742604E-04   6.1104896E+05   -1.8544259E+00
   1.3806069E-04   6.0585093E+05   -1.8539500E+00
   1.3869827E-04   6.0069843E+05   -1.8534731E+00
   1.3933879E-04   5.9559107E+05   -1.8529954E+00
   1.3998227E-04   5.9052843E+05   -1.8525167E+00
   1.4062872E-04   5.8551012E+05   -1.8520372E+00
   1.4127816E-04   5.8053573E+05   -1.8515567E+00
   1.4193060E-04   5.7560488E+05   -1.8510753E+00
   1.4258605E-04   5.7071719E+05   -1.8505931E+00
   1.4324453E-04   5.6587225E+05   -1.8501099E+00
   1.4390605E-04   5.6106969E+05   -1.8496258E+00
   1.4457062E-04   5.5630914E+05   -1.8491409E+00
   1.4523826E-04   5.5159021E+05   -1.8486551E+00
   1.4590899E-04   5.4691253E+05   -1.8481684E+00
   1.4658281E-04   5.4227574E+05   -1.8476808E+00
   1.4725974E-04   5.3767947E+05   -1.8471923E+00
   1.4793981E-04   5.3312336E+05   -1.8467029E+00
   1.4862301E-04   5.2860705E+05   -1.8462127E+00
   1.4930936E-04   5.2413018E+05   -1.8457216E+00
   1.4999889E-04   5.1969240E+05   -1.8452296E+00
   1.5069160E-04   5.1529337E+05   -1.8447368E+00
   1.5138751E-04   5.1093274E+05   -1.8442431E+00
   1.5208663E-04   5.0661016E+05   -1.8437486E+00
   1.5278899E-04   5.0232529E+05   -1.8432532E+00
   1.5349458E-04   4.9807781E+05   -1.8427569E+00
   1.5420343E-04   4.9386737E+05   -1.8422598E+00
   1.5491556E-04   4.8969365E+05   -1.8417619E+00
   1.5563098E-04   4.8555631E+05   -1.8412631E+00
   1.5634970E-04   4.8145504E+05   -1.8407635E+00
   1.5707174E-04   4.7738950E+05   -1.8402630E+00
   1.5779711E-04   4.7335939E+05   -1.8397617E+00
   1.5852584E-04   4.6936439E+05   -1.8392595E+00
   1.5925792E-04   4.6540418E+05   -1.8387566E+00
   1.5999339E-04   4.6147846E+05   -1.8382528E+00
   1.6073226E-04   4.5758691E+05   -1.8377482E+00
   1.6147454E-04   4.5372923E+05   -1.8372428E+00
   1.6222024E-04   4.4990513E+05   -1.8367365E+00
   1.6296939E-04   4.4611430E+05   -1.8362295E+00
   1.6372200E-04   4.4235644E+05   -1.8357216E+00
   1.6447809E-04   4.3863126E+05   -1.8352130E+00
   1.6523767E-04   4.3493848E+05   -1.8347035E+00
   1.6600075E-04   4.3127780E+05   -1.8341933E+00
   1.6676736E-04   4.2764893E+05   -1.8336822E+00
   1.6753751E-04   4.2405160E+05   -1.8331704E+00
   1.6831122E-04   4.2048552E+05   -1.8326578E+00
   1.6908849E-04   4.1695041E+05   -1.8321444E+00
   1.6986936E-04   4.1344600E+05   -1.8316302E+00
   1.7065384E-04   4.0997202E+05   -1.8311153E+00
   1.7144193E-04   4.0652819E+05   -1.8305995E+00
   1.7223367E-04   4.0311425E+05   -1.8300831E+00
   1.7302906E-04   3.9972994E+05   -1.8295658E+00
   1.7382813E-04   3.9637498E+05   -1.8290478E+00
   1.7463089E-04   3.9304912E+05   -1.8285290E+00
   1.7543735E-04   3.8975210E+05   -1.8280095E+00
   1.7624754E-04   3.8648366E+05   -1.8274892E+00
   1.7706147E-04   3.8324354E+05   -1.8269682E+00
   1.7787916E-04   3.8003151E+05   -1.8264465E+00
   1.7870062E-04   3.7684730E+05   -1.8259240E+00
   1.7952588E-04   3.7369067E+05   -1.8254008E+00
   1.8035495E-04   3.7056138E+05   -1.8248768E+00
   1.8118785E-04   3.6745918E+05   -1.8243522E+00
   1.8202459E-04   3.6438383E+05   -1.8238268E+00
   1.8286520E-04   3.6133509E+05   -1.8233007E+00
   1.8370969E-04   3.5831273E+05   -1.8227739E+00
   1.8455808E-04   3.5531652E+05   -1.8222463E+00
   1.8541039E-04   3.5234622E+05   -1.8217181E+00
   1.8626663E-04   3.4940159E+05   -1.8211892E+00
   1.8712683E-04   3.4648243E+05   -1.8206596E+00
   1.8799100E-04   3.4358849E+05   -1.8201292E+00
   1.8885917E-04   3.4071955E+05   -1.8195982E+00
   1.8973134E-04   3.3787540E+05   -1.8190666E+00
   1.9060754E-04   3.3505581E+05   -1.8185342E+00
   1.9148778E-04   3.3226056E+05   -1.8180012E+00
   1.9237209E-04   3.2948944E+05   -1.8174675E+00
   1.9326049E-04   3.2674224E+05   -1.8169331E+00
   1.9415299E-04   3.2401875E+05   -1.8163981E+00
   1.9504960E-04   3.2131874E+05   -1.8158624E+00
   1.9595036E-04   3.1864203E+05   -1.8153261E+00
   1.9685528E-04   3.1598839E+05   -1.8147891E+00
   1.9776438E-04   3.1335763E+05   -1.8142515E+00
   1.9867768E-04   3.1074954E+05   -1.8137132E+00
   1.9959519E-04   3.0816392E+05   -1.8131744E+00
   2.0051694E-04   3.0560057E+05   -1.8126348E+00
   2.0144295E-04   3.0305930E+05   -1.8120947E+00
   2.0237324E-04   3.0053991E+05   -1.8115539E+00
   2.0330782E-04   2.9804221E+05   -1.8110126E+00
   2.0424671E-04   2.9556601E+05   -1.8104706E+00
   2.0518995E-04   2.9311111E+05   -1.8099280E+00
   2.0613754E-04   2.9067732E+05   -1.8093848E+00
   2.0708950E-04   2.8826447E+05   -1.8088410E+00
   2.0804586E-04   2.8587236E+05   -1.8082967E+00
   2.0900664E-04   2.8350081E+05   -1.8077517E+00
   2.0997185E-04   2.8114965E+05   -1.8072062E+00
   2.1094152E-04   2.7881868E+05   -1.8066601E+00
   2.1191567E-04   2.7650774E+05   -1.8061134E+00
   2.1289432E-04   2.7421664E+05   -1.8055661E+00
   2.1387749E-04   2.7194521E+05   -1.8050183E+00
   2.1486520E-04   2.6969328E+05   -1.8044699E+00
   2.1585747E-04   2.6746067E+05   -1.8039210E+00
   2.1685432E-04   2.6524721E+05   -1.8033716E+00
   2.1785578E-04   2.6305274E+05   -1.8028215E+00
   2.1886186E-04   2.6087708E+05   -1.8022710E+00
   2.1987259E-04   2.5872008E+05   -1.8017199E+00
   2.2088798E-04   2.5658156E+05   -1.8011683E+00
   2.2190807E-04   2.5446137E+05   -1.8006162E+00
   2.2293286E-04   2.5235934E+05   -1.8000636E+00
   2.2396239E-04   2.5027531E+05   -1.7995104E+00
   2.2499667E-04   2.4820912E+05   -1.7989568E+00
   2.2603573E-04   2.4616062E+05   -1.7984026E+00
   2.2707958E-04   2.4412965E+05   -1.7978480E+00
   2.2812826E-04   2.4211606E+05   -1.7972928E+00
   2.2918178E-04   2.4011968E+05   -1.7967372E+00
   2.3024017E-04   2.3814038E+05   -1.7961811E+00
   2.3130344E-04   2.3617800E+05   -1.7956245E+00
   2.3237162E-04   2.3423239E+05   -1.7950675E+00
   2.3344474E-04   2.3230341E+05   -1.7945100E+00
   2.3452281E-04   2.3039090E+05   -1.7939520E+00
   2.3560586E-04   2.2849473E+05   -1.7933936E+00
   2.3669392E-04   2.2661474E+05   -1.7928348E+00
   2.3778699E-04   2.2475081E+05   -1.7922755E+00
   2.3888512E-04   2.2290278E+05   -1.7917157E+00
   2.3998831E-04   2.2107051E+05   -1.7911555E+00
   2.4109661E-04   2.1925387E+05   -1.7905949E+00
   2.4221001E-04   2.1745272E+05   -1.7900339E+00
   2.4332857E-04   2.1566693E+05   -1.7894725E+00
   2.4445228E-04   2.1389635E+05   -1.7889106E+00
   2.4558119E-04   2.1214086E+05   -1.7883484E+00
   2.4671531E-04   2.1040033E+05   -1.7877858E+00
   2.4785467E-04   2.0867461E+05   -1.7872227E+00
   2.4899928E-04   2.0696359E+05   -1.7866593E+00
   2.5014919E-04   2.0526712E+05   -1.7860955E+00
   2.5130440E-04   2.0358510E+05   -1.7855313E+00
   2.5246495E-04   2.0191738E+05   -1.7849668E+00
   2.5363086E-04   2.0026384E+05   -1.7844019E+00
   2.5480216E-04   1.9862437E+05   -1.7838366E+00
   2.5597886E-04   1.9699882E+05   -1.7832710E+00
   2.5716100E-04   1.9538709E+05   -1.7827050E+00
   2.5834859E-04   1.9378906E+05   -1.7821387E+00
   2.5954168E-04   1.9220459E+05   -1.7815720E+00
   2.6074027E-04   1.9063357E+05   -1.7810050E+00
   2.6194439E-04   1.8907590E+05   -1.7804377E+00
   2.6315408E-04   1.8753144E+05   -1.7798701E+00
   2.6436935E-04   1.8600008E+05   -1.7793022E+00
   2.6559024E-04   1.8448171E+05   -1.7787339E+00
   2.6681676E-04   1.8297621E+05   -1.7781654E+00
   2.6804895E-04   1.8148348E+05   -1.7775965E+00
   2.6928683E-04   1.8000339E+05   -1.7770274E+00
   2.7053042E-04   1.7853585E+05   -1.7764580E+00
   2.7177976E-04   1.7708073E+05   -1.7758883E+00
   2.7303487E-04   1.7563793E+05   -1.7753183E+00
   2.7429577E-04   1.7420735E+05   -1.7747481E+00
   2.7556250E-04   1.7278887E+05   -1.7741776E+00
   2.7683507E-04   1.7138240E+05   -1.7736068E+00
   2.7811353E-04   1.6998782E+05   -1.7730359E+00
   2.7939788E-04   1.6860503E+05   -1.7724646E+00
   2.8068817E-04   1.6723393E+05   -1.7718931E+00
   2.8198442E-04   1.6587442E+05   -1.7713214E+00
   2.8328665E-04   1.6452639E+05   -1.7707495E+00
   2.8459490E-04   1.6318975E+05   -1.7701773E+00
   2.8590919E-04   1.6186439E+05   -1.7696050E+00
   2.8722955E-04   1.6055022E+05   -1.7690324E+00
   2.8855600E-04   1.5924714E+05   -1.7684596E+00
   2.8988859E-04   1.5795506E+05   -1.7678866E+00
   2.9122732E-04   1.5667387E+05   -1.7673135E+00
   2.9257224E-04   1.5540348E+05   -1.7667401E+00
   2.9392337E-04   1.5414380E+05   -1.7661666E+00
   2.9528074E-04   1.5289474E+05   -1.7655929E+00
   2.9664438E-04   1.5165620E+05   -1.7650191E+00
   2.9801431E-04   1.5042809E+05   -1.7644451E+00
   2.9939057E-04   1.4921032E+05   -1.7638709E+00
   3.0077319E-04   1.4800280E+05   -1.7632966E+00
   3.0216219E-04   1.4680544E+05   -1.7627221E+00
   3.0355761E-04   1.4561815E+05   -1.7621475E+00
   3.0495947E-04   1.4444085E+05   -1.7615728E+00
   3.0636780E-04   1.4327344E+05   -1.7609979E+00
   3.0778264E-04   1.4211585E+05   -1.7604230E+00
   3.0920401E-04   1.4096798E+05   -1.7598479E+00
   3.1063195E-04   1.3982975E+05   -1.7592727E+00
   3.1206648E-04   1.3870109E+05   -1.7586974E+00
   3.1350764E-04   1.3758189E+05   -1.7581221E+00
   3.1495545E-04   1.3647209E+05   -1.7575466E+00
   3.1640994E-04   1.3537161E+05   -1.7569711E+00
   3.1787116E-04   1.3428035E+05   -1.7563954E+00
   3.1933912E-04   1.3319824E+05   -1.7558198E+00
   3.2081386E-04   1.3212520E+05   -1.7552440E+00
   3.2229541E-04   1.3106116E+05   -1.7546682E+00
   3.2378381E-04   1.3000603E+05   -1.7540924E+00
   3.2527908E-04   1.2895973E+05   -1.7535165E+00
   3.2678125E-04   1.2792220E+05   -1.7529405E+00
   3.2829036E-04   1.2689335E+05   -1.7523646E+00
   3.2980644E-04   1.2587310E+05   -1.7517886E+00
   3.3132952E-04   1.2486140E+05   -1.7512126E+00
   3.3285963E-04   1.2385815E+05   -1.7506365E+00
   3.3439681E-04   1.2286329E+05   -1.7500605E+00
   3.3594109E-04   1.2187674E+05   -1.7494845E+00
   3.3749250E-04   1.2089844E+05   -1.7489084E+00
   3.3905108E-04   1.1992831E+05   -1.7483324E+00
   3.4061685E-04   1.1896628E+05   -1.7477564E+00
   3.4218986E-04   1.1801228E+05   -1.7471804E+00
   3.4377013E-04   1.1706624E+05   -1.7466045E+00
   3.4535769E-04   1.1612809E+05   -1.7460286E+00
   3.4695259E-04   1.1519776E+05   -1.7454527E+00
   3.4855485E-04   1.1427520E+05   -1.7448769E+00
   3.5016452E-04   1.1336032E+05   -1.7443011E+00
   3.5178161E-04   1.1245306E+05   -1.7437254E+00
   3.5340618E-04   1.1155336E+05   -1.7431498E+00
   3.5503824E-04   1.1066115E+05   -1.7425742E+00
   3.5667785E-04   1.0977637E+05   -1.7419987E+00
   3.5832502E-04   1.0889895E+05   -1.7414233E+00
   3.5997981E-04   1.0802884E+05   -1.7408479E+00
   3.6164223E-04   1.0716595E+05   -1.7402727E+00
   3.6331233E-04   1.0631025E+05   -1.7396976E+00
   3.6499015E-04   1.0546165E+05   -1.7391226E+00
   3.6667571E-04   1.0462011E+05   -1.7385477E+00
   3.6836906E-04   1.0378555E+05   -1.7379729E+00
   3.7007022E-04   1.0295793E+05   -1.7373983E+00
   3.7177925E-04   1.0213717E+05   -1.7368237E+00
   3.7349616E-04   1.0132323E+05   -1.7362494E+00
   3.7522101E-04   1.0051604E+05   -1.7356751E+00
   3.7695382E-04   9.9715538E+04   -1.7351010E+00
   3.7869463E-04   9.8921678E+04   -1.7345271E+00
   3.8044348E-04   9.8134397E+04   -1.7339533E+00
   3.8220041E-04   9.7353640E+04   -1.7333797E+00
   3.8396545E-04   9.6579349E+04   -1.7328063E+00
   3.8573864E-04   9.5811470E+04   -1.7322331E+00
   3.8752002E-04   9.5049946E+04   -1.7316600E+00
   3.8930963E-04   9.4294725E+04   -1.7310872E+00
   3.9110750E-04   9.3545750E+04   -1.7305145E+00
   3.9291368E-04   9.2802970E+04   -1.7299420E+00
   3.9472820E-04   9.2066330E+04   -1.7293698E+00
   3.9655109E-04   9.1335778E+04   -1.7287978E+00
   3.9838241E-04   9.0611262E+04   -1.7282260E+00
   4.0022218E-04   8.9892730E+04   -1.7276544E+00
   4.0207045E-04   8.9180131E+04   -1.7270830E+00
   4.0392725E-04   8.8473414E+04   -1.7265119E+00
   4.0579263E-04   8.7772528E+04   -1.7259411E+00
   4.0766662E-04   8.7077423E+04   -1.7253705E+00
   4.0954927E-04   8.6388050E+04   -1.7248001E+00
   4.1144061E-04   8.5704360E+04   -1.7242300E+00
   4.1334068E-04   8.5026304E+04   -1.7236602E+00
   4.1524953E-04   8.4353834E+04   -1.7230907E+00
   4.1716720E-04   8.3686902E+04   -1.7225214E+00
   4.1909372E-04   8.3025460E+04   -1.7219524E+00
   4.2102914E-04   8.2369463E+04   -1.7213838E+00
   4.2297350E-04   8.1718862E+04   -1.7208154E+00
   4.2492683E-04   8.1073613E+04   -1.7202473E+00
   4.2688919E-04   8.0433669E+04   -1.7196796E+00
   4.2886061E-04   7.9798985E+04   -1.7191121E+00
   4.3084113E-04   7.9169517E+04   -1.7185450E+00
   4.3283080E-04   7.8545218E+04   -1.7179782E+00
   4.3482966E-04   7.7926046E+04   -1.7174117E+00
   4.3683775E-04   7.7311957E+04   -1.7168456E+00
   4.3885511E-04   7.6702907E+04   -1.7162798E+00
   4.4088179E-04   7.6098854E+04   -1.7157144E+00
   4.4291783E-04   7.5499754E+04   -1.7151493E+00
   4.4496327E-04   7.4905565E+04   -1.7145846E+00
   4.4701816E-04   7.4316246E+04   -1.7140203E+00
   4.4908253E-04   7.3731755E+04   -1.7134563E+00
   4.5115644E-04   7.3152051E+04   -1.7128927E+00
   4.5323993E-04   7.2577094E+04   -1.7123295E+00
   4.5533304E-04   7.2006842E+04   -1.7117667E+00
   4.5743582E-04   7.1441256E+04   -1.7112042E+00
   4.5954830E-04   7.0880296E+04   -1.7106422E+00
   4.6167054E-04   7.0323923E+04   -1.7100806E+00
   4.6380259E-04   6.9772098E+04   -1.7095194E+00
   4.6594448E-04   6.9224781E+04   -1.7089586E+00
   4.6809626E-04   6.8681936E+04   -1.7083983E+00
   4.7025797E-04   6.8143523E+04   -1.7078383E+00
   4.7242967E-04   6.7609505E+04   -1.7072788E+00
   4.7461140E-04   6.7079845E+04   -1.7067198E+00
   4.7680321E-04   6.6554505E+04   -1.7061612E+00
   4.7900514E-04   6.6033450E+04   -1.7056030E+00
   4.8121723E-04   6.5516643E+04   -1.7050453E+00
   4.8343954E-04   6.5004047E+04   -1.7044880E+00
   4.8567212E-04   6.4495628E+04   -1.7039312E+00
   4.8791500E-04   6.3991349E+04   -1.7033749E+00
   4.9016825E-04   6.3491175E+04   -1.7028191E+00
   4.9243189E-04   6.2995072E+04   -1.7022637E+00
   4.9470600E-04   6.2503006E+04   -1.7017089E+00
   4.9699060E-04   6.2014941E+04   -1.7011545E+00
   4.9928575E-04   6.1530845E+04   -1.7006006E+00
   5.0159151E-04   6.1050684E+04   -1.7000473E+00
   5.0390791E-04   6.0574423E+04   -1.6994944E+00
   5.0623501E-04   6.0102032E+04   -1.6989420E+00
   5.0857286E-04   5.9633475E+04   -1.6983902E+00
   5.1092150E-04   5.9168723E+04   -1.6978389E+00
   5.1328099E-04   5.8707741E+04   -1.6972881E+00
   5.1565137E-04   5.8250498E+04   -1.6967379E+00
   5.1803270E-04   5.7796963E+04   -1.6961882E+00
   5.2042503E-04   5.7347105E+04   -1.6956390E+00
   5.2282841E-04   5.6900892E+04   -1.6950904E+00
   5.2524289E-04   5.6458293E+04   -1.6945423E+00
   5.2766851E-04   5.6019279E+04   -1.6939948E+00
   5.3010534E-04   5.5583818E+04   -1.6934479E+00
   5.3255342E-04   5.5151881E+04   -1.6929015E+00
   5.3501281E-04   5.4723439E+04   -1.6923557E+00
   5.3748356E-04   5.4298461E+04   -1.6918105E+00
   5.3996571E-04   5.3876919E+04   -1.6912658E+00
   5.4245933E-04   5.3458784E+04   -1.6907218E+00
   5.4496446E-04   5.3044026E+04   -1.6901783E+00
   5.4748117E-04   5.2632619E+04   -1.6896355E+00
   5.5000949E-04   5.2224532E+04   -1.6890932E+00
   5.5254949E-04   5.1819740E+04   -1.6885516E+00
   5.5510123E-04   5.1418213E+04   -1.6880105E+00
   5.5766474E-04   5.1019924E+04   -1.6874701E+00
   5.6024010E-04   5.0624846E+04   -1.6869303E+00
   5.6282734E-04   5.0232953E+04   -1.6863911E+00
   5.6542654E-04   4.9844217E+04   -1.6858526E+00
   5.6803774E-04   4.9458612E+04   -1.6853147E+00
   5.7066099E-04   4.9076112E+04   -1.6847774E+00
   5.7329637E-04   4.8696690E+04   -1.6842408E+00
   5.7594391E-04   4.8320321E+04   -1.6837048E+00
   5.7860368E-04   4.7946980E+04   -1.6831695E+00
   5.8127573E-04   4.7576640E+04   -1.6826348E+00
   5.8396012E-04   4.7209277E+04   -1.6821008E+00
   5.8665691E-04   4.6844866E+04   -1.6815675E+00
   5.8936616E-04   4.6483382E+04   -1.6810348E+00
   5.9208791E-04   4.6124800E+04   -1.6805028E+00
   5.9482223E-04   4.5769097E+04   -1.6799715E+00
   5.9756919E-04   4.5416247E+04   -1.6794409E+00
   6.0032882E-04   4.5066229E+04   -1.6789109E+00
   6.0310120E-04   4.4719016E+04   -1.6783817E+00
   6.0588639E-04   4.4374587E+04   -1.6778531E+00
   6.0868443E-04   4.4032918E+04   -1.6773253E+00
   6.1149540E-04   4.3693986E+04   -1.6767981E+00
   6.1431935E-04   4.3357769E+04   -1.6762717E+00
   6.1715634E-04   4.3024242E+04   -1.6757460E+00
   6.2000644E-04   4.2693385E+04   -1.6752210E+00
   6.2286969E-04   4.2365174E+04   -1.6746967E+00
