#        a       HoverH0(a)       dlogHdloga_of_a(a)
   1.0000000E-04   1.0594243E+06   -1.8790538E+00
   1.0046181E-04   1.0502927E+06   -1.8786309E+00
   1.0092575E-04   1.0412419E+06   -1.8782069E+00
   1.0139184E-04   1.0322711E+06   -1.8777819E+00
   1.0186008E-04   1.0233796E+06   -1.8773559E+00
   1.0233048E-04   1.0145667E+06   -1.8769289E+00
   1.0280305E-04   1.0058316E+06   -1.8765009E+00
   1.0327781E-04   9.9717375E+05   -1.8760720E+00
   1.0375475E-04   9.8859236E+05   -1.8756420E+00
   1.0423390E-04   9.8008675E+05   -1.8752110E+00
   1.0471527E-04   9.7165626E+05   -1.8747790E+00
   1.0519885E-04   9.6330020E+05   -1.8743460E+00
   1.0568467E-04   9.5501791E+05   -1.8739121E+00
   1.0617274E-04   9.4680873E+05   -1.8734771E+00
   1.0666305E-04   9.3867199E+05   -1.8730412E+00
   1.0715563E-04   9.3060706E+05   -1.8726042E+00
   1.0765049E-04   9.2261327E+05   -1.8721663E+00
   1.0814763E-04   9.1469000E+05   -1.8717274E+00
   1.0864707E-04   9.0683661E+05   -1.8712875E+00
   1.0914881E-04   8.9905247E+05   -1.8708466E+00
   1.0965287E-04   8.9133696E+05   -1.8704047E+00
   1.1015926E-04   8.8368946E+05   -1.8699619E+00
   1.1066799E-04   8.7610937E+05   -1.8695181E+00
   1.1117906E-04   8.6859608E+05   -1.8690733E+00
   1.1169250E-04   8.6114898E+05   -1.8686275E+00
   1.1220831E-04   8.5376749E+05   -1.8681807E+00
   1.1272650E-04   8.4645102E+05   -1.8677330E+00
   1.1324708E-04   8.3919898E+05   -1.8672843E+00
   1.1377007E-04   8.3201079E+05   -1.8668346E+00
   1.1429547E-04   8.2488589E+05   -1.8663839E+00
   1.1482330E-04   8.1782370E+05   -1.8659323E+00
   1.1535356E-04   8.1082366E+05   -1.8654797E+00
   1.1588628E-04   8.0388521E+05   -1.8650262E+00
   1.1642145E-04   7.9700781E+05   -1.8645717E+00
   1.1695910E-04   7.9019090E+05   -1.8641162E+00
   1.1749923E-04   7.8343394E+05   -1.8636598E+00
   1.1804185E-04   7.7673640E+05   -1.8632024E+00
   1.1858698E-04   7.7009773E+05   -1.8627441E+00
   1.1913463E-04   7.6351742E+05   -1.8622848E+00
   1.1968481E-04   7.5699494E+05   -1.8618245E+00
   1.2023752E-04   7.5052978E+05   -1.8613633E+00
   1.2079279E-04   7.4412141E+05   -1.8609012E+00
   1.2135063E-04   7.3776934E+05   -1.8604381E+00
   1.2191104E-04   7.3147305E+05   -1.8599740E+00
   1.2247403E-04   7.2523205E+05   -1.8595091E+00
   1.2303963E-04   7.1904583E+05   -1.8590432E+00
   1.2360784E-04   7.1291392E+05   -1.8585763E+00
   1.2417868E-04   7.0683582E+05   -1.8581085E+00
   1.2475215E-04   7.0081105E+05   -1.8576398E+00
   1.2532826E-04   6.9483914E+05   -1.8571701E+00
   1.2590704E-04   6.8891961E+05   -1.8566996E+00
   1.2648850E-04   6.8305199E+05   -1.8562281E+00
   1.2707263E-04   6.7723582E+05   -1.8557556E+00
   1.2765947E-04   6.7147063E+05   -1.8552823E+00
   1.2824901E-04   6.6575598E+05   -1.8548080E+00
   1.2884128E-04   6.6009141E+05   -1.8543328E+00
   1.2943628E-04   6.5447647E+05   -1.8538567E+00
   1.3003403E-04   6.4891072E+05   -1.8533797E+00
   1.3063454E-04   6.4339371E+05   -1.8529018E+00
   1.3123783E-04   6.3792502E+05   -1.8524229E+00
   1.3184390E-04   6.3250420E+05   -1.8519432E+00
   1.3245277E-04   6.2713084E+05   -1.8514625E+00
   1.3306445E-04   6.2180450E+05   -1.8509810E+00
   1.3367895E-04   6.1652477E+05   -1.8504986E+00
   1.3429630E-04   6.1129123E+05   -1.8500152E+00
   1.3491649E-04   6.0610346E+05   -1.8495310E+00
   1.3553955E-04   6.0096107E+05   -1.8490459E+00
   1.3616548E-04   5.9586364E+05   -1.8485599E+00
   1.3679431E-04   5.9081077E+05   -1.8480730E+00
   1.3742604E-04   5.8580206E+05   -1.8475852E+00
   1.3806069E-04   5.8083712E+05   -1.8470966E+00
   1.3869827E-04   5.7591556E+05   -1.8466071E+00
   1.3933879E-04   5.7103699E+05   -1.8461167E+00
   1.3998227E-04   5.6620103E+05   -1.8456254E+00
   1.4062872E-04   5.6140729E+05   -1.8451333E+00
   1.4127816E-04   5.5665540E+05   -1.8446403E+00
   1.4193060E-04   5.5194499E+05   -1.8441464E+00
   1.4258605E-04   5.4727568E+05   -1.8436517E+00
   1.4324453E-04   5.4264712E+05   -1.8431562E+00
   1.4390605E-04   5.3805892E+05   -1.8426598E+00
   1.4457062E-04   5.3351075E+05   -1.8421625E+00
   1.4523826E-04   5.2900223E+05   -1.8416644E+00
   1.4590899E-04   5.2453302E+05   -1.8411654E+00
   1.4658281E-04   5.2010276E+05   -1.8406656E+00
   1.4725974E-04   5.1571111E+05   -1.8401650E+00
   1.4793981E-04   5.1135772E+05   -1.8396635E+00
   1.4862301E-04   5.0704226E+05   -1.8391613E+00
   1.4930936E-04   5.0276437E+05   -1.8386581E+00
   1.4999889E-04   4.9852374E+05   -1.8381542E+00
   1.5069160E-04   4.9432002E+05   -1.8376494E+00
   1.5138751E-04   4.9015289E+05   -1.8371439E+00
   1.5208663E-04   4.8602202E+05   -1.8366375E+00
   1.5278899E-04   4.8192709E+05   -1.8361303E+00
   1.5349458E-04   4.7786778E+05   -1.8356223E+00
   1.5420343E-04   4.7384378E+05   -1.8351135E+00
   1.5491556E-04   4.6985476E+05   -1.8346039E+00
   1.5563098E-04   4.6590042E+05   -1.8340934E+00
   1.5634970E-04   4.6198044E+05   -1.8335823E+00
   1.5707174E-04   4.5809452E+05   -1.8330703E+00
   1.5779711E-04   4.5424237E+05   -1.8325575E+00
   1.5852584E-04   4.5042367E+05   -1.8320440E+00
   1.5925792E-04   4.4663813E+05   -1.8315296E+00
   1.5999339E-04   4.4288546E+05   -1.8310145E+00
   1.6073226E-04   4.3916536E+05   -1.8304987E+00
   1.6147454E-04   4.3547754E+05   -1.8299820E+00
   1.6222024E-04   4.3182172E+05   -1.8294646E+00
   1.6296939E-04   4.2819761E+05   -1.8289465E+00
   1.6372200E-04   4.2460494E+05   -1.8284276E+00
   1.6447809E-04   4.2104341E+05   -1.8279079E+00
   1.6523767E-04   4.1751276E+05   -1.8273875E+00
   1.6600075E-04   4.1401271E+05   -1.8268664E+00
   1.6676736E-04   4.1054298E+05   -1.8263445E+00
   1.6753751E-04   4.0710332E+05   -1.8258218E+00
   1.6831122E-04   4.0369344E+05   -1.8252985E+00
   1.6908849E-04   4.0031309E+05   -1.8247744E+00
   1.6986936E-04   3.9696201E+05   -1.8242496E+00
   1.7065384E-04   3.9363993E+05   -1.8237241E+00
   1.7144193E-04   3.9034660E+05   -1.8231978E+00
   1.7223367E-04   3.8708176E+05   -1.8226709E+00
   1.7302906E-04   3.8384516E+05   -1.8221432E+00
   1.7382813E-04   3.8063655E+05   -1.8216149E+00
   1.7463089E-04   3.7745568E+05   -1.8210858E+00
   1.7543735E-04   3.7430230E+05   -1.8205561E+00
   1.7624754E-04   3.7117618E+05   -1.8200256E+00
   1.7706147E-04   3.6807707E+05   -1.8194945E+00
   1.7787916E-04   3.6500472E+05   -1.8189627E+00
   1.7870062E-04   3.6195891E+05   -1.8184302E+00
   1.7952588E-04   3.5893939E+05   -1.8178970E+00
   1.8035495E-04   3.5594594E+05   -1.8173632E+00
   1.8118785E-04   3.5297832E+05   -1.8168287E+00
   1.8202459E-04   3.5003631E+05   -1.8162936E+00
   1.8286520E-04   3.4711967E+05   -1.8157578E+00
   1.8370969E-04   3.4422819E+05   -1.8152213E+00
   1.8455808E-04   3.4136163E+05   -1.8146842E+00
   1.8541039E-04   3.3851979E+05   -1.8141465E+00
   1.8626663E-04   3.3570244E+05   -1.8136081E+00
   1.8712683E-04   3.3290936E+05   -1.8130691E+00
   1.8799100E-04   3.3014034E+05   -1.8125295E+00
   1.8885917E-04   3.2739516E+05   -1.8119892E+00
   1.8973134E-04   3.2467362E+05   -1.8114484E+00
   1.9060754E-04   3.2197551E+05   -1.8109069E+00
   1.9148778E-04   3.1930061E+05   -1.8103648E+00
   1.9237209E-04   3.1664873E+05   -1.8098221E+00
   1.9326049E-04   3.1401966E+05   -1.8092788E+00
   1.9415299E-04   3.1141320E+05   -1.8087349E+00
   1.9504960E-04   3.0882915E+05   -1.8081904E+00
   1.9595036E-04   3.0626731E+05   -1.8076454E+00
   1.9685528E-04   3.0372748E+05   -1.8070997E+00
   1.9776438E-04   3.0120947E+05   -1.8065535E+00
   1.9867768E-04   2.9871309E+05   -1.8060067E+00
   1.9959519E-04   2.9623815E+05   -1.8054594E+00
   2.0051694E-04   2.9378445E+05   -1.8049114E+00
   2.0144295E-04   2.9135182E+05   -1.8043630E+00
   2.0237324E-04   2.8894005E+05   -1.8038140E+00
   2.0330782E-04   2.8654898E+05   -1.8032644E+00
   2.0424671E-04   2.8417841E+05   -1.8027143E+00
   2.0518995E-04   2.8182817E+05   -1.8021636E+00
   2.0613754E-04   2.7949808E+05   -1.8016125E+00
   2.0708950E-04   2.7718795E+05   -1.8010608E+00
   2.0804586E-04   2.7489762E+05   -1.8005086E+00
   2.0900664E-04   2.7262690E+05   -1.7999558E+00
   2.0997185E-04   2.7037564E+05   -1.7994026E+00
   2.1094152E-04   2.6814364E+05   -1.7988489E+00
   2.1191567E-04   2.6593075E+05   -1.7982946E+00
   2.1289432E-04   2.6373680E+05   -1.7977399E+00
   2.1387749E-04   2.6156161E+05   -1.7971846E+00
   2.1486520E-04   2.5940503E+05   -1.7966289E+00
   2.1585747E-04   2.5726689E+05   -1.7960728E+00
   2.1685432E-04   2.5514702E+05   -1.7955161E+00
   2.1785578E-04   2.5304528E+05   -1.7949590E+00
   2.1886186E-04   2.5096149E+05   -1.7944014E+00
   2.1987259E-04   2.4889550E+05   -1.7938433E+00
   2.2088798E-04   2.4684715E+05   -1.7932848E+00
   2.2190807E-04   2.4481629E+05   -1.7927259E+00
   2.2293286E-04   2.4280276E+05   -1.7921665E+00
   2.2396239E-04   2.4080642E+05   -1.7916067E+00
   2.2499667E-04   2.3882711E+05   -1.7910464E+00
   2.2603573E-04   2.3686467E+05   -1.7904858E+00
   2.2707958E-04   2.3491897E+05   -1.7899247E+00
   2.2812826E-04   2.3298985E+05   -1.7893632E+00
   2.2918178E-04   2.3107718E+05   -1.7888013E+00
   2.3024017E-04   2.2918080E+05   -1.7882389E+00
   2.3130344E-04   2.2730057E+05   -1.7876762E+00
   2.3237162E-04   2.2543635E+05   -1.7871131E+00
   2.3344474E-04   2.2358800E+05   -1.7865496E+00
   2.3452281E-04   2.2175538E+05   -1.7859858E+00
   2.3560586E-04   2.1993836E+05   -1.7854215E+00
   2.3669392E-04   2.1813679E+05   -1.7848569E+00
   2.3778699E-04   2.1635054E+05   -1.7842919E+00
   2.3888512E-04   2.1457947E+05   -1.7837266E+00
   2.3998831E-04   2.1282346E+05   -1.7831609E+00
   2.4109661E-04   2.1108237E+05   -1.7825949E+00
   2.4221001E-04   2.0935607E+05   -1.7820285E+00
   2.4332857E-04   2.0764443E+05   -1.7814618E+00
   2.4445228E-04   2.0594732E+05   -1.7808948E+00
   2.4558119E-04   2.0426462E+05   -1.7803274E+00
   2.4671531E-04   2.0259619E+05   -1.7797597E+00
   2.4785467E-04   2.0094192E+05   -1.7791917E+00
   2.4899928E-04   1.9930167E+05   -1.7786235E+00
   2.5014919E-04   1.9767534E+05   -1.7780549E+00
   2.5130440E-04   1.9606279E+05   -1.7774860E+00
   2.5246495E-04   1.9446390E+05   -1.7769168E+00
   2.5363086E-04   1.9287856E+05   -1.7763473E+00
   2.5480216E-04   1.9130664E+05   -1.7757776E+00
   2.5597886E-04   1.8974803E+05   -1.7752076E+00
   2.5716100E-04   1.8820262E+05   -1.7746373E+00
   2.5834859E-04   1.8667028E+05   -1.7740668E+00
   2.5954168E-04   1.8515091E+05   -1.7734960E+00
   2.6074027E-04   1.8364438E+05   -1.7729249E+00
   2.6194439E-04   1.8215060E+05   -1.7723537E+00
   2.6315408E-04   1.8066944E+05   -1.7717821E+00
   2.6436935E-04   1.7920079E+05   -1.7712104E+00
   2.6559024E-04   1.7774456E+05   -1.7706384E+00
   2.6681676E-04   1.7630062E+05   -1.7700663E+00
   2.6804895E-04   1.7486887E+05   -1.7694939E+00
   2.6928683E-04   1.7344921E+05   -1.7689212E+00
   2.7053042E-04   1.7204152E+05   -1.7683484E+00
   2.7177976E-04   1.7064571E+05   -1.7677754E+00
   2.7303487E-04   1.6926168E+05   -1.7672023E+00
   2.7429577E-04   1.6788931E+05   -1.7666289E+00
   2.7556250E-04   1.6652851E+05   -1.7660553E+00
   2.7683507E-04   1.6517917E+05   -1.7654816E+00
   2.7811353E-04   1.6384120E+05   -1.7649078E+00
   2.7939788E-04   1.6251450E+05   -1.7643337E+00
   2.8068817E-04   1.6119897E+05   -1.7637595E+00
   2.8198442E-04   1.5989451E+05   -1.7631852E+00
   2.8328665E-04   1.5860103E+05   -1.7626107E+00
   2.8459490E-04   1.5731842E+05   -1.7620361E+00
   2.8590919E-04   1.5604660E+05   -1.7614614E+00
   2.8722955E-04   1.5478548E+05   -1.7608865E+00
   2.8855600E-04   1.5353495E+05   -1.7603115E+00
   2.8988859E-04   1.5229493E+05   -1.7597364E+00
   2.9122732E-04   1.5106532E+05   -1.7591612E+00
   2.9257224E-04   1.4984604E+05   -1.7585860E+00
   2.9392337E-04   1.4863700E+05   -1.7580106E+00
   2.9528074E-04   1.4743810E+05   -1.7574351E+00
   2.9664438E-04   1.4624926E+05   -1.7568596E+00
   2.9801431E-04   1.4507039E+05   -1.7562840E+00
   2.9939057E-04   1.4390140E+05   -1.7557083E+00
   3.0077319E-04   1.4274221E+05   -1.7551325E+00
   3.0216219E-04   1.4159274E+05   -1.7545567E+00
   3.0355761E-04   1.4045289E+05   -1.7539809E+00
   3.0495947E-04   1.3932259E+05   -1.7534050E+00
   3.0636780E-04   1.3820175E+05   -1.7528291E+00
   3.0778264E-04   1.3709030E+05   -1.7522531E+00
   3.0920401E-04   1.3598814E+05   -1.7516771E+00
   3.1063195E-04   1.3489520E+05   -1.7511011E+00
   3.1206648E-04   1.3381140E+05   -1.7505251E+00
   3.1350764E-04   1.3273666E+05   -1.7499491E+00
   3.1495545E-04   1.3167091E+05   -1.7493730E+00
   3.1640994E-04   1.3061405E+05   -1.7487970E+00
   3.1787116E-04   1.2956603E+05   -1.7482210E+00
   3.1933912E-04   1.2852675E+05   -1.7476450E+00
   3.2081386E-04   1.2749615E+05   -1.7470691E+00
   3.2229541E-04   1.2647415E+05   -1.7464932E+00
   3.2378381E-04   1.2546067E+05   -1.7459173E+00
   3.2527908E-04   1.2445564E+05   -1.7453414E+00
   3.2678125E-04   1.2345900E+05   -1.7447656E+00
   3.2829036E-04   1.2247065E+05   -1.7441899E+00
   3.2980644E-04   1.2149055E+05   -1.7436142E+00
   3.3132952E-04   1.2051860E+05   -1.7430386E+00
   3.3285963E-04   1.1955475E+05   -1.7424630E+00
   3.3439681E-04   1.1859893E+05   -1.7418875E+00
   3.3594109E-04   1.1765105E+05   -1.7413122E+00
   3.3749250E-04   1.1671106E+05   -1.7407369E+00
   3.3905108E-04   1.1577889E+05   -1.7401617E+00
   3.4061685E-04   1.1485447E+05   -1.7395866E+00
   3.4218986E-04   1.1393773E+05   -1.7390116E+00
   3.4377013E-04   1.1302861E+05   -1.7384368E+00
   3.4535769E-04   1.1212703E+05   -1.7378620E+00
   3.4695259E-04   1.1123295E+05   -1.7372874E+00
   3.4855485E-04   1.1034628E+05   -1.7367129E+00
   3.5016452E-04   1.0946697E+05   -1.7361386E+00
   3.5178161E-04   1.0859496E+05   -1.7355644E+00
   3.5340618E-04   1.0773018E+05   -1.7349903E+00
   3.5503824E-04   1.0687257E+05   -1.7344165E+00
   3.5667785E-04   1.0602206E+05   -1.7338427E+00
   3.5832502E-04   1.0517860E+05   -1.7332692E+00
   3.5997981E-04   1.0434213E+05   -1.7326958E+00
   3.6164223E-04   1.0351258E+05   -1.7321226E+00
   3.6331233E-04   1.0268990E+05   -1.7315496E+00
   3.6499015E-04   1.0187403E+05   -1.7309768E+00
   3.6667571E-04   1.0106491E+05   -1.7304042E+00
   3.6836906E-04   1.0026247E+05   -1.7298318E+00
   3.7007022E-04   9.9466672E+04   -1.7292596E+00
   3.7177925E-04   9.8677448E+04   -1.7286876E+00
   3.7349616E-04   9.7894744E+04   -1.7281159E+00
   3.7522101E-04   9.7118505E+04   -1.7275444E+00
   3.7695382E-04   9.6348674E+04   -1.7269731E+00
   3.7869463E-04   9.5585197E+04   -1.7264020E+00
   3.8044348E-04   9.4828019E+04   -1.7258313E+00
   3.8220041E-04   9.4077087E+04   -1.7252607E+00
   3.8396545E-04   9.3332347E+04   -1.7246904E+00
   3.8573864E-04   9.2593745E+04   -1.7241204E+00
   3.8752002E-04   9.1861230E+04   -1.7235507E+00
   3.8930963E-04   9.1134748E+04   -1.7229812E+00
   3.9110750E-04   9.0414249E+04   -1.7224120E+00
   3.9291368E-04   8.9699682E+04   -1.7218431E+00
   3.9472820E-04   8.8990995E+04   -1.7212745E+00
   3.9655109E-04   8.8288138E+04   -1.7207062E+00
   3.9838241E-04   8.7591062E+04   -1.7201382E+00
   4.0022218E-04   8.6899717E+04   -1.7195705E+00
   4.0207045E-04   8.6214055E+04   -1.7190032E+00
   4.0392725E-04   8.5534026E+04   -1.7184361E+00
   4.0579263E-04   8.4859582E+04   -1.7178694E+00
   4.0766662E-04   8.4190676E+04   -1.7173030E+00
   4.0954927E-04   8.3527261E+04   -1.7167370E+00
   4.1144061E-04   8.2869289E+04   -1.7161713E+00
   4.1334068E-04   8.2216715E+04   -1.7156059E+00
   4.1524953E-04   8.1569492E+04   -1.7150410E+00
   4.1716720E-04   8.0927575E+04   -1.7144763E+00
   4.1909372E-04   8.0290918E+04   -1.7139121E+00
   4.2102914E-04   7.9659476E+04   -1.7133482E+00
   4.2297350E-04   7.9033206E+04   -1.7127847E+00
   4.2492683E-04   7.8412063E+04   -1.7122216E+00
   4.2688919E-04   7.7796003E+04   -1.7116589E+00
   4.2886061E-04   7.7184984E+04   -1.7110965E+00
   4.3084113E-04   7.6578962E+04   -1.7105346E+00
   4.3283080E-04   7.5977895E+04   -1.7099731E+00
   4.3482966E-04   7.5381741E+04   -1.7094120E+00
   4.3683775E-04   7.4790458E+04   -1.7088513E+00
   4.3885511E-04   7.4204004E+04   -1.7082910E+00
   4.4088179E-04   7.3622338E+04   -1.7077312E+00
   4.4291783E-04   7.3045421E+04   -1.7071718E+00
   4.4496327E-04   7.2473211E+04   -1.7066129E+00
   4.4701816E-04   7.1905669E+04   -1.7060544E+00
   4.4908253E-04   7.1342754E+04   -1.7054963E+00
   4.5115644E-04   7.0784428E+04   -1.7049387E+00
   4.5323993E-04   7.0230653E+04   -1.7043816E+00
   4.5533304E-04   6.9681388E+04   -1.7038249E+00
   4.5743582E-04   6.9136597E+04   -1.7032687E+00
   4.5954830E-04   6.8596240E+04   -1.7027130E+00
   4.6167054E-04   6.8060281E+04   -1.7021577E+00
   4.6380259E-04   6.7528682E+04   -1.7016030E+00
   4.6594448E-04   6.7001407E+04   -1.7010487E+00
   4.6809626E-04   6.6478418E+04   -1.7004950E+00
   4.7025797E-04   6.5959680E+04   -1.6999417E+00
   4.7242967E-04   6.5445156E+04   -1.6993890E+00
   4.7461140E-04   6.4934811E+04   -1.6988367E+00
   4.7680321E-04   6.4428610E+04   -1.6982850E+00
   4.7900514E-04   6.3926517E+04   -1.6977338E+00
   4.8121723E-04   6.3428498E+04   -1.6971832E+00
   4.8343954E-04   6.2934518E+04   -1.6966330E+00
   4.8567212E-04   6.2444544E+04   -1.6960835E+00
   4.8791500E-04   6.1958542E+04   -1.6955344E+00
   4.9016825E-04   6.1476477E+04   -1.6949859E+00
   4.9243189E-04   6.0998317E+04   -1.6944380E+00
   4.9470600E-04   6.0524029E+04   -1.6938906E+00
   4.9699060E-04   6.0053580E+04   -1.6933438E+00
   4.9928575E-04   5.9586937E+04   -1.6927976E+00
   5.0159151E-04   5.9124070E+04   -1.6922519E+00
   5.0390791E-04   5.8664945E+04   -1.6917068E+00
   5.0623501E-04   5.8209532E+04   -1.6911623E+00
   5.0857286E-04   5.7757799E+04   -1.6906184E+00
   5.1092150E-04   5.7309715E+04   -1.6900751E+00
   5.1328099E-04   5.6865250E+04   -1.6895324E+00
   5.1565137E-04   5.6424373E+04   -1.6889903E+00
   5.1803270E-04   5.5987054E+04   -1.6884487E+00
   5.2042503E-04   5.5553262E+04   -1.6879078E+00
   5.2282841E-04   5.5122969E+04   -1.6873676E+00
   5.2524289E-04   5.4696145E+04   -1.6868279E+00
   5.2766851E-04   5.4272761E+04   -1.6862889E+00
   5.3010534E-04   5.3852788E+04   -1.6857505E+00
   5.3255342E-04   5.3436197E+04   -1.6852127E+00
   5.3501281E-04   5.3022960E+04   -1.6846756E+00
   5.3748356E-04   5.2613048E+04   -1.6841391E+00
   5.3996571E-04   5.2206435E+04   -1.6836033E+00
   5.4245933E-04   5.1803092E+04   -1.6830681E+00
   5.4496446E-04   5.1402992E+04   -1.6825336E+00
   5.4748117E-04   5.1006108E+04   -1.6819998E+00
   5.5000949E-04   5.0612412E+04   -1.6814666E+00
   5.5254949E-04   5.0221878E+04   -1.6809341E+00
   5.5510123E-04   4.9834480E+04   -1.6804022E+00
   5.5766474E-04   4.9450192E+04   -1.6798711E+00
   5.6024010E-04   4.9068987E+04   -1.6793406E+00
   5.6282734E-04   4.8690839E+04   -1.6788108E+00
   5.6542654E-04   4.8315723E+04   -1.6782817E+00
   5.6803774E-04   4.7943614E+04   -1.6777533E+00
   5.7066099E-04   4.7574487E+04   -1.6772257E+00
   5.7329637E-04   4.7208316E+04   -1.6766987E+00
   5.7594391E-04   4.6845078E+04   -1.6761724E+00
   5.7860368E-04   4.6484746E+04   -1.6756468E+00
   5.8127573E-04   4.6127299E+04   -1.6751220E+00
   5.8396012E-04   4.5772710E+04   -1.6745979E+00
   5.8665691E-04   4.5420957E+04   -1.6740745E+00
   5.8936616E-04   4.5072016E+04   -1.6735518E+00
   5.9208791E-04   4.4725862E+04   -1.6730299E+00
   5.9482223E-04   4.4382474E+04   -1.6725087E+00
   5.9756919E-04   4.4041829E+04   -1.6719883E+00
   6.0032882E-04   4.3703902E+04   -1.6714686E+00
   6.0310120E-04   4.3368672E+04   -1.6709496E+00
   6.0588639E-04   4.3036116E+04   -1.6704314E+00
   6.0868443E-04   4.2706212E+04   -1.6699140E+00
   6.1149540E-04   4.2378938E+04   -1.6693973E+00
   6.1431935E-04   4.2054272E+04   -1.6688814E+00
   6.1715634E-04   4.1732193E+04   -1.6683663E+00
   6.2000644E-04   4.1412678E+04   -1.6678519E+00
   6.2286969E-04   4.1095707E+04   -1.6673383E+00
