#        a       HoverH0(a)       dlogHdloga_of_a(a)
   1.0000000E-04   1.0624187E+06   -1.8467881E+00
   1.0046181E-04   1.0534180E+06   -1.8462980E+00
   1.0092575E-04   1.0444960E+06   -1.8458071E+00
   1.0139184E-04   1.0356520E+06   -1.8453153E+00
   1.0186008E-04   1.0268851E+06   -1.8448226E+00
   1.0233048E-04   1.0181947E+06   -1.8443291E+00
   1.0280305E-04   1.0095802E+06   -1.8438347E+00
   1.0327781E-04   1.0010409E+06   -1.8433395E+00
   1.0375475E-04   9.9257606E+05   -1.8428434E+00
   1.0423390E-04   9.8418505E+05   -1.8423464E+00
   1.0471527E-04   9.7586721E+05   -1.8418487E+00
   1.0519885E-04   9.6762189E+05   -1.8413500E+00
   1.0568467E-04   9.5944844E+05   -1.8408506E+00
   1.0617274E-04   9.5134622E+05   -1.8403503E+00
   1.0666305E-04   9.4331460E+05   -1.8398491E+00
   1.0715563E-04   9.3535295E+05   -1.8393471E+00
   1.0765049E-04   9.2746064E+05   -1.8388443E+00
   1.0814763E-04   9.1963706E+05   -1.8383407E+00
   1.0864707E-04   9.1188159E+05   -1.8378363E+00
   1.0914881E-04   9.0419363E+05   -1.8373310E+00
   1.0965287E-04   8.9657257E+05   -1.8368249E+00
   1.1015926E-04   8.8901783E+05   -1.8363181E+00
   1.1066799E-04   8.8152880E+05   -1.8358104E+00
   1.1117906E-04   8.7410490E+05   -1.8353019E+00
   1.1169250E-04   8.6674556E+05   -1.8347926E+00
   1.1220831E-04   8.5945019E+05   -1.8342825E+00
   1.1272650E-04   8.5221824E+05   -1.8337716E+00
   1.1324708E-04   8.4504913E+05   -1.8332599E+00
   1.1377007E-04   8.3794230E+05   -1.8327474E+00
   1.1429547E-04   8.3089721E+05   -1.8322342E+00
   1.1482330E-04   8.2391330E+05   -1.8317202E+00
   1.1535356E-04   8.1699003E+05   -1.8312054E+00
   1.1588628E-04   8.1012686E+05   -1.8306898E+00
   1.1642145E-04   8.0332325E+05   -1.8301735E+00
   1.1695910E-04   7.9657867E+05   -1.8296564E+00
   1.1749923E-04   7.8989261E+05   -1.8291385E+00
   1.1804185E-04   7.8326453E+05   -1.8286199E+00
   1.1858698E-04   7.7669393E+05   -1.8281005E+00
   1.1913463E-04   7.7018029E+05   -1.8275804E+00
   1.1968481E-04   7.6372311E+05   -1.8270596E+00
   1.2023752E-04   7.5732188E+05   -1.8265380E+00
   1.2079279E-04   7.5097612E+05   -1.8260156E+00
   1.2135063E-04   7.4468532E+05   -1.8254925E+00
   1.2191104E-04   7.3844900E+05   -1.8249688E+00
   1.2247403E-04   7.3226667E+05   -1.8244442E+00
   1.2303963E-04   7.2613786E+05   -1.8239190E+00
   1.2360784E-04   7.2006208E+05   -1.8233930E+00
   1.2417868E-04   7.1403888E+05   -1.8228664E+00
   1.2475215E-04   7.0806777E+05   -1.8223390E+00
   1.2532826E-04   7.0214831E+05   -1.8218109E+00
   1.2590704E-04   6.9628003E+05   -1.8212821E+00
   1.2648850E-04   6.9046248E+05   -1.8207526E+00
   1.2707263E-04   6.8469520E+05   -1.8202225E+00
   1.2765947E-04   6.7897776E+05   -1.8196916E+00
   1.2824901E-04   6.7330971E+05   -1.8191601E+00
   1.2884128E-04   6.6769061E+05   -1.8186279E+00
   1.2943628E-04   6.6212004E+05   -1.8180950E+00
   1.3003403E-04   6.5659755E+05   -1.8175614E+00
   1.3063454E-04   6.5112272E+05   -1.8170272E+00
   1.3123783E-04   6.4569513E+05   -1.8164923E+00
   1.3184390E-04   6.4031436E+05   -1.8159568E+00
   1.3245277E-04   6.3498001E+05   -1.8154206E+00
   1.3306445E-04   6.2969164E+05   -1.8148837E+00
   1.3367895E-04   6.2444887E+05   -1.8143463E+00
   1.3429630E-04   6.1925128E+05   -1.8138081E+00
   1.3491649E-04   6.1409848E+05   -1.8132694E+00
   1.3553955E-04   6.0899006E+05   -1.8127300E+00
   1.3616548E-04   6.0392565E+05   -1.8121900E+00
   1.3679431E-04   5.9890484E+05   -1.8116494E+00
   1.3742604E-04   5.9392725E+05   -1.8111081E+00
   1.3806069E-04   5.8899250E+05   -1.8105663E+00
   1.3869827E-04   5.8410022E+05   -1.8100238E+00
   1.3933879E-04   5.7925001E+05   -1.8094808E+00
   1.3998227E-04   5.7444152E+05   -1.8089371E+00
   1.4062872E-04   5.6967437E+05   -1.8083929E+00
   1.4127816E-04   5.6494821E+05   -1.8078481E+00
   1.4193060E-04   5.6026265E+05   -1.8073026E+00
   1.4258605E-04   5.5561736E+05   -1.8067567E+00
   1.4324453E-04   5.5101197E+05   -1.8062101E+00
   1.4390605E-04   5.4644613E+05   -1.8056630E+00
   1.4457062E-04   5.4191949E+05   -1.8051153E+00
   1.4523826E-04   5.3743170E+05   -1.8045671E+00
   1.4590899E-04   5.3298243E+05   -1.8040183E+00
   1.4658281E-04   5.2857132E+05   -1.8034689E+00
   1.4725974E-04   5.2419806E+05   -1.8029190E+00
   1.4793981E-04   5.1986229E+05   -1.8023686E+00
   1.4862301E-04   5.1556369E+05   -1.8018177E+00
   1.4930936E-04   5.1130194E+05   -1.8012662E+00
   1.4999889E-04   5.0707670E+05   -1.8007142E+00
   1.5069160E-04   5.0288766E+05   -1.8001617E+00
   1.5138751E-04   4.9873450E+05   -1.7996086E+00
   1.5208663E-04   4.9461689E+05   -1.7990551E+00
   1.5278899E-04   4.9053453E+05   -1.7985011E+00
   1.5349458E-04   4.8648711E+05   -1.7979465E+00
   1.5420343E-04   4.8247432E+05   -1.7973915E+00
   1.5491556E-04   4.7849585E+05   -1.7968360E+00
   1.5563098E-04   4.7455141E+05   -1.7962800E+00
   1.5634970E-04   4.7064068E+05   -1.7957236E+00
   1.5707174E-04   4.6676338E+05   -1.7951666E+00
   1.5779711E-04   4.6291921E+05   -1.7946093E+00
   1.5852584E-04   4.5910789E+05   -1.7940514E+00
   1.5925792E-04   4.5532911E+05   -1.7934931E+00
   1.5999339E-04   4.5158259E+05   -1.7929343E+00
   1.6073226E-04   4.4786806E+05   -1.7923752E+00
   1.6147454E-04   4.4418522E+05   -1.7918155E+00
   1.6222024E-04   4.4053380E+05   -1.7912555E+00
   1.6296939E-04   4.3691353E+05   -1.7906950E+00
   1.6372200E-04   4.3332413E+05   -1.7901341E+00
   1.6447809E-04   4.2976533E+05   -1.7895727E+00
   1.6523767E-04   4.2623686E+05   -1.7890110E+00
   1.6600075E-04   4.2273846E+05   -1.7884489E+00
   1.6676736E-04   4.1926985E+05   -1.7878863E+00
   1.6753751E-04   4.1583078E+05   -1.7873234E+00
   1.6831122E-04   4.1242099E+05   -1.7867601E+00
   1.6908849E-04   4.0904023E+05   -1.7861964E+00
   1.6986936E-04   4.0568823E+05   -1.7856323E+00
   1.7065384E-04   4.0236474E+05   -1.7850678E+00
   1.7144193E-04   3.9906952E+05   -1.7845030E+00
   1.7223367E-04   3.9580232E+05   -1.7839378E+00
   1.7302906E-04   3.9256289E+05   -1.7833723E+00
   1.7382813E-04   3.8935098E+05   -1.7828064E+00
   1.7463089E-04   3.8616637E+05   -1.7822402E+00
   1.7543735E-04   3.8300880E+05   -1.7816737E+00
   1.7624754E-04   3.7987804E+05   -1.7811068E+00
   1.7706147E-04   3.7677386E+05   -1.7805396E+00
   1.7787916E-04   3.7369602E+05   -1.7799720E+00
   1.7870062E-04   3.7064429E+05   -1.7794042E+00
   1.7952588E-04   3.6761844E+05   -1.7788361E+00
   1.8035495E-04   3.6461825E+05   -1.7782676E+00
   1.8118785E-04   3.6164350E+05   -1.7776988E+00
   1.8202459E-04   3.5869395E+05   -1.7771298E+00
   1.8286520E-04   3.5576939E+05   -1.7765605E+00
   1.8370969E-04   3.5286961E+05   -1.7759909E+00
   1.8455808E-04   3.4999438E+05   -1.7754210E+00
   1.8541039E-04   3.4714349E+05   -1.7748508E+00
   1.8626663E-04   3.4431672E+05   -1.7742804E+00
   1.8712683E-04   3.4151387E+05   -1.7737098E+00
   1.8799100E-04   3.3873473E+05   -1.7731389E+00
   1.8885917E-04   3.3597909E+05   -1.7725677E+00
   1.8973134E-04   3.3324674E+05   -1.7719963E+00
   1.9060754E-04   3.3053748E+05   -1.7714247E+00
   1.9148778E-04   3.2785112E+05   -1.7708528E+00
   1.9237209E-04   3.2518744E+05   -1.7702808E+00
   1.9326049E-04   3.2254625E+05   -1.7697085E+00
   1.9415299E-04   3.1992736E+05   -1.7691360E+00
   1.9504960E-04   3.1733057E+05   -1.7685633E+00
   1.9595036E-04   3.1475569E+05   -1.7679904E+00
   1.9685528E-04   3.1220253E+05   -1.7674173E+00
   1.9776438E-04   3.0967090E+05   -1.7668440E+00
   1.9867768E-04   3.0716060E+05   -1.7662706E+00
   1.9959519E-04   3.0467146E+05   -1.7656970E+00
   2.0051694E-04   3.0220329E+05   -1.7651232E+00
   2.0144295E-04   2.9975591E+05   -1.7645493E+00
   2.0237324E-04   2.9732913E+05   -1.7639752E+00
   2.0330782E-04   2.9492278E+05   -1.7634009E+00
   2.0424671E-04   2.9253668E+05   -1.7628265E+00
   2.0518995E-04   2.9017065E+05   -1.7622520E+00
   2.0613754E-04   2.8782452E+05   -1.7616773E+00
   2.0708950E-04   2.8549812E+05   -1.7611026E+00
   2.0804586E-04   2.8319127E+05   -1.7605277E+00
   2.0900664E-04   2.8090380E+05   -1.7599527E+00
   2.0997185E-04   2.7863555E+05   -1.7593775E+00
   2.1094152E-04   2.7638635E+05   -1.7588023E+00
   2.1191567E-04   2.7415603E+05   -1.7582270E+00
   2.1289432E-04   2.7194443E+05   -1.7576516E+00
   2.1387749E-04   2.6975138E+05   -1.7570762E+00
   2.1486520E-04   2.6757673E+05   -1.7565006E+00
   2.1585747E-04   2.6542031E+05   -1.7559250E+00
   2.1685432E-04   2.6328197E+05   -1.7553493E+00
   2.1785578E-04   2.6116156E+05   -1.7547736E+00
   2.1886186E-04   2.5905890E+05   -1.7541978E+00
   2.1987259E-04   2.5697386E+05   -1.7536219E+00
   2.2088798E-04   2.5490627E+05   -1.7530461E+00
   2.2190807E-04   2.5285599E+05   -1.7524701E+00
   2.2293286E-04   2.5082287E+05   -1.7518942E+00
   2.2396239E-04   2.4880676E+05   -1.7513183E+00
   2.2499667E-04   2.4680750E+05   -1.7507423E+00
   2.2603573E-04   2.4482497E+05   -1.7501663E+00
   2.2707958E-04   2.4285900E+05   -1.7495903E+00
   2.2812826E-04   2.4090945E+05   -1.7490143E+00
   2.2918178E-04   2.3897619E+05   -1.7484384E+00
   2.3024017E-04   2.3705908E+05   -1.7478624E+00
   2.3130344E-04   2.3515796E+05   -1.7472865E+00
   2.3237162E-04   2.3327271E+05   -1.7467106E+00
   2.3344474E-04   2.3140319E+05   -1.7461347E+00
   2.3452281E-04   2.2954927E+05   -1.7455589E+00
   2.3560586E-04   2.2771080E+05   -1.7449831E+00
   2.3669392E-04   2.2588765E+05   -1.7444074E+00
   2.3778699E-04   2.2407969E+05   -1.7438318E+00
   2.3888512E-04   2.2228680E+05   -1.7432562E+00
   2.3998831E-04   2.2050883E+05   -1.7426806E+00
   2.4109661E-04   2.1874567E+05   -1.7421052E+00
   2.4221001E-04   2.1699718E+05   -1.7415298E+00
   2.4332857E-04   2.1526323E+05   -1.7409545E+00
   2.4445228E-04   2.1354371E+05   -1.7403793E+00
   2.4558119E-04   2.1183848E+05   -1.7398043E+00
   2.4671531E-04   2.1014743E+05   -1.7392293E+00
   2.4785467E-04   2.0847043E+05   -1.7386544E+00
   2.4899928E-04   2.0680736E+05   -1.7380797E+00
   2.5014919E-04   2.0515810E+05   -1.7375051E+00
   2.5130440E-04   2.0352253E+05   -1.7369306E+00
   2.5246495E-04   2.0190053E+05   -1.7363563E+00
   2.5363086E-04   2.0029199E+05   -1.7357821E+00
   2.5480216E-04   1.9869680E+05   -1.7352080E+00
   2.5597886E-04   1.9711482E+05   -1.7346341E+00
   2.5716100E-04   1.9554596E+05   -1.7340604E+00
   2.5834859E-04   1.9399010E+05   -1.7334868E+00
   2.5954168E-04   1.9244713E+05   -1.7329134E+00
   2.6074027E-04   1.9091693E+05   -1.7323402E+00
   2.6194439E-04   1.8939941E+05   -1.7317672E+00
   2.6315408E-04   1.8789444E+05   -1.7311944E+00
   2.6436935E-04   1.8640192E+05   -1.7306217E+00
   2.6559024E-04   1.8492174E+05   -1.7300493E+00
   2.6681676E-04   1.8345380E+05   -1.7294771E+00
   2.6804895E-04   1.8199799E+05   -1.7289051E+00
   2.6928683E-04   1.8055422E+05   -1.7283333E+00
   2.7053042E-04   1.7912236E+05   -1.7277617E+00
   2.7177976E-04   1.7770233E+05   -1.7271904E+00
   2.7303487E-04   1.7629402E+05   -1.7266193E+00
   2.7429577E-04   1.7489734E+05   -1.7260485E+00
   2.7556250E-04   1.7351217E+05   -1.7254779E+00
   2.7683507E-04   1.7213843E+05   -1.7249076E+00
   2.7811353E-04   1.7077601E+05   -1.7243375E+00
   2.7939788E-04   1.6942482E+05   -1.7237678E+00
   2.8068817E-04   1.6808476E+05   -1.7231982E+00
   2.8198442E-04   1.6675574E+05   -1.7226290E+00
   2.8328665E-04   1.6543766E+05   -1.7220601E+00
   2.8459490E-04   1.6413043E+05   -1.7214914E+00
   2.8590919E-04   1.6283395E+05   -1.7209230E+00
   2.8722955E-04   1.6154814E+05   -1.7203550E+00
   2.8855600E-04   1.6027290E+05   -1.7197872E+00
   2.8988859E-04   1.5900815E+05   -1.7192198E+00
   2.9122732E-04   1.5775378E+05   -1.7186527E+00
   2.9257224E-04   1.5650972E+05   -1.7180859E+00
   2.9392337E-04   1.5527588E+05   -1.7175195E+00
   2.9528074E-04   1.5405217E+05   -1.7169534E+00
   2.9664438E-04   1.5283850E+05   -1.7163876E+00
   2.9801431E-04   1.5163478E+05   -1.7158222E+00
   2.9939057E-04   1.5044094E+05   -1.7152571E+00
   3.0077319E-04   1.4925688E+05   -1.7146924E+00
   3.0216219E-04   1.4808253E+05   -1.7141281E+00
   3.0355761E-04   1.4691780E+05   -1.7135641E+00
   3.0495947E-04   1.4576261E+05   -1.7130005E+00
   3.0636780E-04   1.4461688E+05   -1.7124373E+00
   3.0778264E-04   1.4348053E+05   -1.7118745E+00
   3.0920401E-04   1.4235347E+05   -1.7113121E+00
   3.1063195E-04   1.4123564E+05   -1.7107501E+00
   3.1206648E-04   1.4012694E+05   -1.7101885E+00
   3.1350764E-04   1.3902731E+05   -1.7096273E+00
   3.1495545E-04   1.3793666E+05   -1.7090665E+00
   3.1640994E-04   1.3685493E+05   -1.7085062E+00
   3.1787116E-04   1.3578202E+05   -1.7079462E+00
   3.1933912E-04   1.3471788E+05   -1.7073867E+00
   3.2081386E-04   1.3366242E+05   -1.7068277E+00
   3.2229541E-04   1.3261557E+05   -1.7062691E+00
   3.2378381E-04   1.3157725E+05   -1.7057109E+00
   3.2527908E-04   1.3054741E+05   -1.7051532E+00
   3.2678125E-04   1.2952595E+05   -1.7045960E+00
   3.2829036E-04   1.2851282E+05   -1.7040392E+00
   3.2980644E-04   1.2750794E+05   -1.7034829E+00
   3.3132952E-04   1.2651124E+05   -1.7029270E+00
   3.3285963E-04   1.2552265E+05   -1.7023717E+00
   3.3439681E-04   1.2454211E+05   -1.7018168E+00
   3.3594109E-04   1.2356954E+05   -1.7012624E+00
   3.3749250E-04   1.2260488E+05   -1.7007086E+00
   3.3905108E-04   1.2164806E+05   -1.7001552E+00
   3.4061685E-04   1.2069902E+05   -1.6996023E+00
   3.4218986E-04   1.1975768E+05   -1.6990500E+00
   3.4377013E-04   1.1882399E+05   -1.6984981E+00
   3.4535769E-04   1.1789788E+05   -1.6979468E+00
   3.4695259E-04   1.1697928E+05   -1.6973960E+00
   3.4855485E-04   1.1606814E+05   -1.6968458E+00
   3.5016452E-04   1.1516438E+05   -1.6962961E+00
   3.5178161E-04   1.1426795E+05   -1.6957469E+00
   3.5340618E-04   1.1337878E+05   -1.6951983E+00
   3.5503824E-04   1.1249682E+05   -1.6946502E+00
   3.5667785E-04   1.1162200E+05   -1.6941027E+00
   3.5832502E-04   1.1075426E+05   -1.6935557E+00
   3.5997981E-04   1.0989355E+05   -1.6930094E+00
   3.6164223E-04   1.0903980E+05   -1.6924636E+00
   3.6331233E-04   1.0819295E+05   -1.6919183E+00
   3.6499015E-04   1.0735295E+05   -1.6913737E+00
   3.6667571E-04   1.0651973E+05   -1.6908296E+00
   3.6836906E-04   1.0569325E+05   -1.6902862E+00
   3.7007022E-04   1.0487345E+05   -1.6897433E+00
   3.7177925E-04   1.0406026E+05   -1.6892010E+00
   3.7349616E-04   1.0325364E+05   -1.6886594E+00
   3.7522101E-04   1.0245352E+05   -1.6881183E+00
   3.7695382E-04   1.0165986E+05   -1.6875779E+00
   3.7869463E-04   1.0087260E+05   -1.6870381E+00
   3.8044348E-04   1.0009168E+05   -1.6864989E+00
   3.8220041E-04   9.9317056E+04   -1.6859603E+00
   3.8396545E-04   9.8548670E+04   -1.6854224E+00
   3.8573864E-04   9.7786471E+04   -1.6848851E+00
   3.8752002E-04   9.7030408E+04   -1.6843485E+00
   3.8930963E-04   9.6280427E+04   -1.6838125E+00
   3.9110750E-04   9.5536480E+04   -1.6832771E+00
   3.9291368E-04   9.4798515E+04   -1.6827425E+00
   3.9472820E-04   9.4066481E+04   -1.6822084E+00
   3.9655109E-04   9.3340330E+04   -1.6816751E+00
   3.9838241E-04   9.2620012E+04   -1.6811424E+00
   4.0022218E-04   9.1905478E+04   -1.6806104E+00
   4.0207045E-04   9.1196679E+04   -1.6800791E+00
   4.0392725E-04   9.0493569E+04   -1.6795484E+00
   4.0579263E-04   8.9796099E+04   -1.6790185E+00
   4.0766662E-04   8.9104223E+04   -1.6784892E+00
   4.0954927E-04   8.8417892E+04   -1.6779606E+00
   4.1144061E-04   8.7737062E+04   -1.6774328E+00
   4.1334068E-04   8.7061685E+04   -1.6769056E+00
   4.1524953E-04   8.6391717E+04   -1.6763792E+00
   4.1716720E-04   8.5727113E+04   -1.6758534E+00
   4.1909372E-04   8.5067827E+04   -1.6753284E+00
   4.2102914E-04   8.4413815E+04   -1.6748041E+00
   4.2297350E-04   8.3765034E+04   -1.6742805E+00
   4.2492683E-04   8.3121440E+04   -1.6737577E+00
   4.2688919E-04   8.2482989E+04   -1.6732356E+00
   4.2886061E-04   8.1849639E+04   -1.6727142E+00
   4.3084113E-04   8.1221347E+04   -1.6721935E+00
   4.3283080E-04   8.0598071E+04   -1.6716737E+00
   4.3482966E-04   7.9979769E+04   -1.6711545E+00
   4.3683775E-04   7.9366401E+04   -1.6706361E+00
   4.3885511E-04   7.8757924E+04   -1.6701185E+00
   4.4088179E-04   7.8154298E+04   -1.6696016E+00
   4.4291783E-04   7.7555484E+04   -1.6690855E+00
   4.4496327E-04   7.6961440E+04   -1.6685702E+00
   4.4701816E-04   7.6372128E+04   -1.6680556E+00
   4.4908253E-04   7.5787508E+04   -1.6675418E+00
   4.5115644E-04   7.5207540E+04   -1.6670288E+00
   4.5323993E-04   7.4632188E+04   -1.6665166E+00
   4.5533304E-04   7.4061411E+04   -1.6660052E+00
   4.5743582E-04   7.3495173E+04   -1.6654945E+00
   4.5954830E-04   7.2933436E+04   -1.6649847E+00
   4.6167054E-04   7.2376162E+04   -1.6644756E+00
   4.6380259E-04   7.1823314E+04   -1.6639673E+00
   4.6594448E-04   7.1274856E+04   -1.6634599E+00
   4.6809626E-04   7.0730752E+04   -1.6629532E+00
   4.7025797E-04   7.0190964E+04   -1.6624474E+00
   4.7242967E-04   6.9655459E+04   -1.6619424E+00
   4.7461140E-04   6.9124199E+04   -1.6614382E+00
   4.7680321E-04   6.8597151E+04   -1.6609348E+00
   4.7900514E-04   6.8074279E+04   -1.6604323E+00
   4.8121723E-04   6.7555548E+04   -1.6599305E+00
   4.8343954E-04   6.7040926E+04   -1.6594296E+00
   4.8567212E-04   6.6530377E+04   -1.6589296E+00
   4.8791500E-04   6.6023868E+04   -1.6584304E+00
   4.9016825E-04   6.5521366E+04   -1.6579320E+00
   4.9243189E-04   6.5022838E+04   -1.6574345E+00
   4.9470600E-04   6.4528251E+04   -1.6569378E+00
   4.9699060E-04   6.4037572E+04   -1.6564419E+00
   4.9928575E-04   6.3550769E+04   -1.6559469E+00
   5.0159151E-04   6.3067810E+04   -1.6554528E+00
   5.0390791E-04   6.2588664E+04   -1.6549595E+00
   5.0623501E-04   6.2113300E+04   -1.6544671E+00
   5.0857286E-04   6.1641685E+04   -1.6539756E+00
   5.1092150E-04   6.1173790E+04   -1.6534849E+00
   5.1328099E-04   6.0709584E+04   -1.6529951E+00
   5.1565137E-04   6.0249036E+04   -1.6525062E+00
   5.1803270E-04   5.9792116E+04   -1.6520181E+00
   5.2042503E-04   5.9338795E+04   -1.6515310E+00
   5.2282841E-04   5.8889043E+04   -1.6510447E+00
   5.2524289E-04   5.8442830E+04   -1.6505593E+00
   5.2766851E-04   5.8000128E+04   -1.6500748E+00
   5.3010534E-04   5.7560908E+04   -1.6495911E+00
   5.3255342E-04   5.7125141E+04   -1.6491084E+00
   5.3501281E-04   5.6692800E+04   -1.6486266E+00
   5.3748356E-04   5.6263855E+04   -1.6481456E+00
   5.3996571E-04   5.5838279E+04   -1.6476656E+00
   5.4245933E-04   5.5416044E+04   -1.6471864E+00
   5.4496446E-04   5.4997124E+04   -1.6467082E+00
   5.4748117E-04   5.4581491E+04   -1.6462309E+00
   5.5000949E-04   5.4169118E+04   -1.6457545E+00
   5.5254949E-04   5.3759978E+04   -1.6452790E+00
   5.5510123E-04   5.3354045E+04   -1.6448044E+00
   5.5766474E-04   5.2951294E+04   -1.6443308E+00
   5.6024010E-04   5.2551696E+04   -1.6438580E+00
   5.6282734E-04   5.2155228E+04   -1.6433862E+00
   5.6542654E-04   5.1761864E+04   -1.6429153E+00
   5.6803774E-04   5.1371578E+04   -1.6424454E+00
   5.7066099E-04   5.0984344E+04   -1.6419763E+00
   5.7329637E-04   5.0600139E+04   -1.6415082E+00
   5.7594391E-04   5.0218937E+04   -1.6410410E+00
   5.7860368E-04   4.9840715E+04   -1.6405748E+00
   5.8127573E-04   4.9465447E+04   -1.6401095E+00
   5.8396012E-04   4.9093110E+04   -1.6396452E+00
   5.8665691E-04   4.8723679E+04   -1.6391818E+00
   5.8936616E-04   4.8357132E+04   -1.6387193E+00
   5.9208791E-04   4.7993444E+04   -1.6382578E+00
   5.9482223E-04   4.7632593E+04   -1.6377972E+00
   5.9756919E-04   4.7274555E+04   -1.6373376E+00
   6.0032882E-04   4.6919308E+04   -1.6368789E+00
   6.0310120E-04   4.6566828E+04   -1.6364212E+00
   6.0588639E-04   4.6217094E+04   -1.6359644E+00
   6.0868443E-04   4.5870083E+04   -1.6355086E+00
   6.1149540E-04   4.5525773E+04   -1.6350538E+00
   6.1431935E-04   4.5184142E+04   -1.6345999E+00
   6.1715634E-04   4.4845168E+04   -1.6341470E+00
   6.2000644E-04   4.4508830E+04   -1.6336951E+00
   6.2286969E-04   4.4175107E+04   -1.6332441E+00
