#        a       HoverH0(a)       dlogHdloga_of_a(a)
   1.0000000E-04   1.1716433E+06   -1.8745837E+00
   1.0046181E-04   1.1615685E+06   -1.8741503E+00
   1.0092575E-04   1.1515825E+06   -1.8737159E+00
   1.0139184E-04   1.1416847E+06   -1.8732805E+00
   1.0186008E-04   1.1318743E+06   -1.8728441E+00
   1.0233048E-04   1.1221504E+06   -1.8724067E+00
   1.0280305E-04   1.1125123E+06   -1.8719684E+00
   1.0327781E-04   1.1029592E+06   -1.8715290E+00
   1.0375475E-04   1.0934904E+06   -1.8710887E+00
   1.0423390E-04   1.0841050E+06   -1.8706473E+00
   1.0471527E-04   1.0748024E+06   -1.8702050E+00
   1.0519885E-04   1.0655818E+06   -1.8697617E+00
   1.0568467E-04   1.0564425E+06   -1.8693175E+00
   1.0617274E-04   1.0473836E+06   -1.8688722E+00
   1.0666305E-04   1.0384046E+06   -1.8684260E+00
   1.0715563E-04   1.0295047E+06   -1.8679788E+00
   1.0765049E-04   1.0206832E+06   -1.8675306E+00
   1.0814763E-04   1.0119394E+06   -1.8670815E+00
   1.0864707E-04   1.0032725E+06   -1.8666313E+00
   1.0914881E-04   9.9468193E+05   -1.8661803E+00
   1.0965287E-04   9.8616697E+05   -1.8657282E+00
   1.1015926E-04   9.7772694E+05   -1.8652752E+00
   1.1066799E-04   9.6936117E+05   -1.8648212E+00
   1.1117906E-04   9.6106899E+05   -1.8643663E+00
   1.1169250E-04   9.5284975E+05   -1.8639104E+00
   1.1220831E-04   9.4470278E+05   -1.8634535E+00
   1.1272650E-04   9.3662745E+05   -1.8629957E+00
   1.1324708E-04   9.2862310E+05   -1.8625369E+00
   1.1377007E-04   9.2068911E+05   -1.8620772E+00
   1.1429547E-04   9.1282484E+05   -1.8616165E+00
   1.1482330E-04   9.0502967E+05   -1.8611549E+00
   1.1535356E-04   8.9730298E+05   -1.8606923E+00
   1.1588628E-04   8.8964415E+05   -1.8602288E+00
   1.1642145E-04   8.8205258E+05   -1.8597644E+00
   1.1695910E-04   8.7452766E+05   -1.8592990E+00
   1.1749923E-04   8.6706880E+05   -1.8588326E+00
   1.1804185E-04   8.5967540E+05   -1.8583654E+00
   1.1858698E-04   8.5234688E+05   -1.8578971E+00
   1.1913463E-04   8.4508266E+05   -1.8574280E+00
   1.1968481E-04   8.3788217E+05   -1.8569579E+00
   1.2023752E-04   8.3074483E+05   -1.8564869E+00
   1.2079279E-04   8.2367007E+05   -1.8560150E+00
   1.2135063E-04   8.1665735E+05   -1.8555422E+00
   1.2191104E-04   8.0970609E+05   -1.8550684E+00
   1.2247403E-04   8.0281576E+05   -1.8545937E+00
   1.2303963E-04   7.9598580E+05   -1.8541181E+00
   1.2360784E-04   7.8921569E+05   -1.8536416E+00
   1.2417868E-04   7.8250487E+05   -1.8531642E+00
   1.2475215E-04   7.7585282E+05   -1.8526858E+00
   1.2532826E-04   7.6925902E+05   -1.8522066E+00
   1.2590704E-04   7.6272294E+05   -1.8517265E+00
   1.2648850E-04   7.5624408E+05   -1.8512454E+00
   1.2707263E-04   7.4982191E+05   -1.8507635E+00
   1.2765947E-04   7.4345593E+05   -1.8502806E+00
   1.2824901E-04   7.3714564E+05   -1.8497969E+00
   1.2884128E-04   7.3089054E+05   -1.8493123E+00
   1.2943628E-04   7.2469014E+05   -1.8488268E+00
   1.3003403E-04   7.1854395E+05   -1.8483404E+00
   1.3063454E-04   7.1245148E+05   -1.8478531E+00
   1.3123783E-04   7.0641226E+05   -1.8473649E+00
   1.3184390E-04   7.0042581E+05   -1.8468759E+00
   1.3245277E-04   6.9449165E+05   -1.8463860E+00
   1.3306445E-04   6.8860933E+05   -1.8458952E+00
   1.3367895E-04   6.8277837E+05   -1.8454035E+00
   1.3429630E-04   6.7699832E+05   -1.8449110E+00
   1.3491649E-04   6.7126873E+05   -1.8444176E+00
   1.3553955E-04   6.6558915E+05   -1.8439234E+00
   1.3616548E-04   6.5995912E+05   -1.8434283E+00
   1.3679431E-04   6.5437821E+05   -1.8429324E+00
   1.3742604E-04   6.4884598E+05   -1.8424356E+00
   1.3806069E-04   6.4336200E+05   -1.8419379E+00
   1.3869827E-04   6.3792583E+05   -1.8414394E+00
   1.3933879E-04   6.3253704E+05   -1.8409401E+00
   1.3998227E-04   6.2719522E+05   -1.8404399E+00
   1.4062872E-04   6.2189995E+05   -1.8399389E+00
   1.4127816E-04   6.1665081E+05   -1.8394371E+00
   1.4193060E-04   6.1144739E+05   -1.8389344E+00
   1.4258605E-04   6.0628928E+05   -1.8384310E+00
   1.4324453E-04   6.0117608E+05   -1.8379266E+00
   1.4390605E-04   5.9610738E+05   -1.8374215E+00
   1.4457062E-04   5.9108281E+05   -1.8369156E+00
   1.4523826E-04   5.8610195E+05   -1.8364088E+00
   1.4590899E-04   5.8116442E+05   -1.8359013E+00
   1.4658281E-04   5.7626984E+05   -1.8353929E+00
   1.4725974E-04   5.7141781E+05   -1.8348837E+00
   1.4793981E-04   5.6660798E+05   -1.8343738E+00
   1.4862301E-04   5.6183994E+05   -1.8338630E+00
   1.4930936E-04   5.5711335E+05   -1.8333515E+00
   1.4999889E-04   5.5242781E+05   -1.8328391E+00
   1.5069160E-04   5.4778298E+05   -1.8323260E+00
   1.5138751E-04   5.4317849E+05   -1.8318121E+00
   1.5208663E-04   5.3861398E+05   -1.8312975E+00
   1.5278899E-04   5.3408910E+05   -1.8307820E+00
   1.5349458E-04   5.2960348E+05   -1.8302658E+00
   1.5420343E-04   5.2515679E+05   -1.8297488E+00
   1.5491556E-04   5.2074868E+05   -1.8292311E+00
   1.5563098E-04   5.1637880E+05   -1.8287126E+00
   1.5634970E-04   5.1204682E+05   -1.8281933E+00
   1.5707174E-04   5.0775239E+05   -1.8276734E+00
   1.5779711E-04   5.0349518E+05   -1.8271526E+00
   1.5852584E-04   4.9927487E+05   -1.8266311E+00
   1.5925792E-04   4.9509112E+05   -1.8261089E+00
   1.5999339E-04   4.9094362E+05   -1.8255860E+00
   1.6073226E-04   4.8683203E+05   -1.8250623E+00
   1.6147454E-04   4.8275604E+05   -1.8245379E+00
   1.6222024E-04   4.7871534E+05   -1.8240127E+00
   1.6296939E-04   4.7470960E+05   -1.8234869E+00
   1.6372200E-04   4.7073853E+05   -1.8229603E+00
   1.6447809E-04   4.6680181E+05   -1.8224331E+00
   1.6523767E-04   4.6289913E+05   -1.8219051E+00
   1.6600075E-04   4.5903021E+05   -1.8213764E+00
   1.6676736E-04   4.5519472E+05   -1.8208471E+00
   1.6753751E-04   4.5139239E+05   -1.8203170E+00
   1.6831122E-04   4.4762291E+05   -1.8197863E+00
   1.6908849E-04   4.4388600E+05   -1.8192548E+00
   1.6986936E-04   4.4018136E+05   -1.8187227E+00
   1.7065384E-04   4.3650871E+05   -1.8181899E+00
   1.7144193E-04   4.3286777E+05   -1.8176565E+00
   1.7223367E-04   4.2925825E+05   -1.8171224E+00
   1.7302906E-04   4.2567988E+05   -1.8165876E+00
   1.7382813E-04   4.2213238E+05   -1.8160522E+00
   1.7463089E-04   4.1861548E+05   -1.8155161E+00
   1.7543735E-04   4.1512890E+05   -1.8149793E+00
   1.7624754E-04   4.1167239E+05   -1.8144419E+00
   1.7706147E-04   4.0824566E+05   -1.8139039E+00
   1.7787916E-04   4.0484846E+05   -1.8133653E+00
   1.7870062E-04   4.0148053E+05   -1.8128260E+00
   1.7952588E-04   3.9814160E+05   -1.8122861E+00
   1.8035495E-04   3.9483143E+05   -1.8117455E+00
   1.8118785E-04   3.9154975E+05   -1.8112044E+00
   1.8202459E-04   3.8829632E+05   -1.8106626E+00
   1.8286520E-04   3.8507088E+05   -1.8101203E+00
   1.8370969E-04   3.8187319E+05   -1.8095773E+00
   1.8455808E-04   3.7870300E+05   -1.8090337E+00
   1.8541039E-04   3.7556008E+05   -1.8084896E+00
   1.8626663E-04   3.7244416E+05   -1.8079449E+00
   1.8712683E-04   3.6935503E+05   -1.8073995E+00
   1.8799100E-04   3.6629244E+05   -1.8068536E+00
   1.8885917E-04   3.6325616E+05   -1.8063072E+00
   1.8973134E-04   3.6024596E+05   -1.8057601E+00
   1.9060754E-04   3.5726160E+05   -1.8052125E+00
   1.9148778E-04   3.5430286E+05   -1.8046644E+00
   1.9237209E-04   3.5136951E+05   -1.8041156E+00
   1.9326049E-04   3.4846132E+05   -1.8035664E+00
   1.9415299E-04   3.4557809E+05   -1.8030166E+00
   1.9504960E-04   3.4271957E+05   -1.8024662E+00
   1.9595036E-04   3.3988557E+05   -1.8019154E+00
   1.9685528E-04   3.3707585E+05   -1.8013640E+00
   1.9776438E-04   3.3429022E+05   -1.8008120E+00
   1.9867768E-04   3.3152844E+05   -1.8002596E+00
   1.9959519E-04   3.2879032E+05   -1.7997066E+00
   2.0051694E-04   3.2607565E+05   -1.7991532E+00
   2.0144295E-04   3.2338421E+05   -1.7985992E+00
   2.0237324E-04   3.2071581E+05   -1.7980447E+00
   2.0330782E-04   3.1807024E+05   -1.7974898E+00
   2.0424671E-04   3.1544730E+05   -1.7969344E+00
   2.0518995E-04   3.1284679E+05   -1.7963784E+00
   2.0613754E-04   3.1026851E+05   -1.7958220E+00
   2.0708950E-04   3.0771228E+05   -1.7952652E+00
   2.0804586E-04   3.0517788E+05   -1.7947078E+00
   2.0900664E-04   3.0266514E+05   -1.7941501E+00
   2.0997185E-04   3.0017386E+05   -1.7935918E+00
   2.1094152E-04   2.9770385E+05   -1.7930331E+00
   2.1191567E-04   2.9525492E+05   -1.7924740E+00
   2.1289432E-04   2.9282690E+05   -1.7919144E+00
   2.1387749E-04   2.9041959E+05   -1.7913544E+00
   2.1486520E-04   2.8803281E+05   -1.7907940E+00
   2.1585747E-04   2.8566639E+05   -1.7902331E+00
   2.1685432E-04   2.8332014E+05   -1.7896718E+00
   2.1785578E-04   2.8099389E+05   -1.7891101E+00
   2.1886186E-04   2.7868746E+05   -1.7885481E+00
   2.1987259E-04   2.7640068E+05   -1.7879856E+00
   2.2088798E-04   2.7413337E+05   -1.7874227E+00
   2.2190807E-04   2.7188537E+05   -1.7868594E+00
   2.2293286E-04   2.6965650E+05   -1.7862957E+00
   2.2396239E-04   2.6744660E+05   -1.7857317E+00
   2.2499667E-04   2.6525550E+05   -1.7851673E+00
   2.2603573E-04   2.6308303E+05   -1.7846025E+00
   2.2707958E-04   2.6092904E+05   -1.7840374E+00
   2.2812826E-04   2.5879335E+05   -1.7834719E+00
   2.2918178E-04   2.5667582E+05   -1.7829061E+00
   2.3024017E-04   2.5457628E+05   -1.7823399E+00
   2.3130344E-04   2.5249456E+05   -1.7817734E+00
   2.3237162E-04   2.5043053E+05   -1.7812065E+00
   2.3344474E-04   2.4838401E+05   -1.7806394E+00
   2.3452281E-04   2.4635487E+05   -1.7800719E+00
   2.3560586E-04   2.4434294E+05   -1.7795040E+00
   2.3669392E-04   2.4234807E+05   -1.7789359E+00
   2.3778699E-04   2.4037013E+05   -1.7783675E+00
   2.3888512E-04   2.3840894E+05   -1.7777988E+00
   2.3998831E-04   2.3646438E+05   -1.7772298E+00
   2.4109661E-04   2.3453630E+05   -1.7766605E+00
   2.4221001E-04   2.3262455E+05   -1.7760909E+00
   2.4332857E-04   2.3072898E+05   -1.7755210E+00
   2.4445228E-04   2.2884947E+05   -1.7749509E+00
   2.4558119E-04   2.2698586E+05   -1.7743805E+00
   2.4671531E-04   2.2513801E+05   -1.7738099E+00
   2.4785467E-04   2.2330580E+05   -1.7732390E+00
   2.4899928E-04   2.2148908E+05   -1.7726678E+00
   2.5014919E-04   2.1968772E+05   -1.7720964E+00
   2.5130440E-04   2.1790159E+05   -1.7715248E+00
   2.5246495E-04   2.1613054E+05   -1.7709530E+00
   2.5363086E-04   2.1437446E+05   -1.7703809E+00
   2.5480216E-04   2.1263320E+05   -1.7698087E+00
   2.5597886E-04   2.1090665E+05   -1.7692362E+00
   2.5716100E-04   2.0919466E+05   -1.7686635E+00
   2.5834859E-04   2.0749712E+05   -1.7680906E+00
   2.5954168E-04   2.0581390E+05   -1.7675175E+00
   2.6074027E-04   2.0414487E+05   -1.7669443E+00
   2.6194439E-04   2.0248991E+05   -1.7663708E+00
   2.6315408E-04   2.0084890E+05   -1.7657972E+00
   2.6436935E-04   1.9922171E+05   -1.7652234E+00
   2.6559024E-04   1.9760823E+05   -1.7646495E+00
   2.6681676E-04   1.9600833E+05   -1.7640754E+00
   2.6804895E-04   1.9442190E+05   -1.7635011E+00
   2.6928683E-04   1.9284883E+05   -1.7629267E+00
   2.7053042E-04   1.9128898E+05   -1.7623522E+00
   2.7177976E-04   1.8974226E+05   -1.7617775E+00
   2.7303487E-04   1.8820854E+05   -1.7612028E+00
   2.7429577E-04   1.8668771E+05   -1.7606278E+00
   2.7556250E-04   1.8517966E+05   -1.7600528E+00
   2.7683507E-04   1.8368428E+05   -1.7594777E+00
   2.7811353E-04   1.8220146E+05   -1.7589025E+00
   2.7939788E-04   1.8073109E+05   -1.7583272E+00
   2.8068817E-04   1.7927306E+05   -1.7577517E+00
   2.8198442E-04   1.7782726E+05   -1.7571762E+00
   2.8328665E-04   1.7639359E+05   -1.7566007E+00
   2.8459490E-04   1.7497195E+05   -1.7560250E+00
   2.8590919E-04   1.7356222E+05   -1.7554493E+00
   2.8722955E-04   1.7216431E+05   -1.7548736E+00
   2.8855600E-04   1.7077811E+05   -1.7542978E+00
   2.8988859E-04   1.6940351E+05   -1.7537219E+00
   2.9122732E-04   1.6804043E+05   -1.7531460E+00
   2.9257224E-04   1.6668876E+05   -1.7525701E+00
   2.9392337E-04   1.6534840E+05   -1.7519941E+00
   2.9528074E-04   1.6401926E+05   -1.7514181E+00
   2.9664438E-04   1.6270123E+05   -1.7508421E+00
   2.9801431E-04   1.6139422E+05   -1.7502661E+00
   2.9939057E-04   1.6009813E+05   -1.7496901E+00
   3.0077319E-04   1.5881288E+05   -1.7491141E+00
   3.0216219E-04   1.5753836E+05   -1.7485381E+00
   3.0355761E-04   1.5627448E+05   -1.7479621E+00
   3.0495947E-04   1.5502115E+05   -1.7473861E+00
   3.0636780E-04   1.5377829E+05   -1.7468102E+00
   3.0778264E-04   1.5254579E+05   -1.7462343E+00
   3.0920401E-04   1.5132357E+05   -1.7456584E+00
   3.1063195E-04   1.5011155E+05   -1.7450826E+00
   3.1206648E-04   1.4890962E+05   -1.7445068E+00
   3.1350764E-04   1.4771771E+05   -1.7439311E+00
   3.1495545E-04   1.4653574E+05   -1.7433554E+00
   3.1640994E-04   1.4536360E+05   -1.7427799E+00
   3.1787116E-04   1.4420122E+05   -1.7422044E+00
   3.1933912E-04   1.4304852E+05   -1.7416289E+00
   3.2081386E-04   1.4190541E+05   -1.7410536E+00
   3.2229541E-04   1.4077180E+05   -1.7404784E+00
   3.2378381E-04   1.3964762E+05   -1.7399032E+00
   3.2527908E-04   1.3853279E+05   -1.7393282E+00
   3.2678125E-04   1.3742722E+05   -1.7387533E+00
   3.2829036E-04   1.3633083E+05   -1.7381785E+00
   3.2980644E-04   1.3524355E+05   -1.7376038E+00
   3.3132952E-04   1.3416529E+05   -1.7370293E+00
   3.3285963E-04   1.3309599E+05   -1.7364549E+00
   3.3439681E-04   1.3203555E+05   -1.7358806E+00
   3.3594109E-04   1.3098392E+05   -1.7353065E+00
   3.3749250E-04   1.2994100E+05   -1.7347325E+00
   3.3905108E-04   1.2890672E+05   -1.7341587E+00
   3.4061685E-04   1.2788102E+05   -1.7335851E+00
   3.4218986E-04   1.2686381E+05   -1.7330116E+00
   3.4377013E-04   1.2585503E+05   -1.7324383E+00
   3.4535769E-04   1.2485460E+05   -1.7318652E+00
   3.4695259E-04   1.2386245E+05   -1.7312923E+00
   3.4855485E-04   1.2287850E+05   -1.7307196E+00
   3.5016452E-04   1.2190270E+05   -1.7301471E+00
   3.5178161E-04   1.2093496E+05   -1.7295748E+00
   3.5340618E-04   1.1997522E+05   -1.7290027E+00
   3.5503824E-04   1.1902341E+05   -1.7284309E+00
   3.5667785E-04   1.1807946E+05   -1.7278592E+00
   3.5832502E-04   1.1714331E+05   -1.7272878E+00
   3.5997981E-04   1.1621489E+05   -1.7267167E+00
   3.6164223E-04   1.1529412E+05   -1.7261458E+00
   3.6331233E-04   1.1438096E+05   -1.7255751E+00
   3.6499015E-04   1.1347532E+05   -1.7250047E+00
   3.6667571E-04   1.1257715E+05   -1.7244345E+00
   3.6836906E-04   1.1168638E+05   -1.7238646E+00
   3.7007022E-04   1.1080296E+05   -1.7232950E+00
   3.7177925E-04   1.0992680E+05   -1.7227257E+00
   3.7349616E-04   1.0905787E+05   -1.7221566E+00
   3.7522101E-04   1.0819608E+05   -1.7215879E+00
   3.7695382E-04   1.0734139E+05   -1.7210194E+00
   3.7869463E-04   1.0649372E+05   -1.7204513E+00
   3.8044348E-04   1.0565303E+05   -1.7198834E+00
   3.8220041E-04   1.0481925E+05   -1.7193159E+00
   3.8396545E-04   1.0399232E+05   -1.7187487E+00
   3.8573864E-04   1.0317218E+05   -1.7181818E+00
   3.8752002E-04   1.0235878E+05   -1.7176152E+00
   3.8930963E-04   1.0155205E+05   -1.7170490E+00
   3.9110750E-04   1.0075195E+05   -1.7164832E+00
   3.9291368E-04   9.9958408E+04   -1.7159176E+00
   3.9472820E-04   9.9171377E+04   -1.7153525E+00
   3.9655109E-04   9.8390799E+04   -1.7147876E+00
   3.9838241E-04   9.7616619E+04   -1.7142232E+00
   4.0022218E-04   9.6848782E+04   -1.7136591E+00
   4.0207045E-04   9.6087235E+04   -1.7130954E+00
   4.0392725E-04   9.5331923E+04   -1.7125321E+00
   4.0579263E-04   9.4582794E+04   -1.7119692E+00
   4.0766662E-04   9.3839796E+04   -1.7114067E+00
   4.0954927E-04   9.3102875E+04   -1.7108445E+00
   4.1144061E-04   9.2371980E+04   -1.7102828E+00
   4.1334068E-04   9.1647060E+04   -1.7097215E+00
   4.1524953E-04   9.0928064E+04   -1.7091606E+00
   4.1716720E-04   9.0214942E+04   -1.7086001E+00
   4.1909372E-04   8.9507644E+04   -1.7080400E+00
   4.2102914E-04   8.8806120E+04   -1.7074804E+00
   4.2297350E-04   8.8110321E+04   -1.7069212E+00
   4.2492683E-04   8.7420200E+04   -1.7063625E+00
   4.2688919E-04   8.6735707E+04   -1.7058042E+00
   4.2886061E-04   8.6056794E+04   -1.7052463E+00
   4.3084113E-04   8.5383416E+04   -1.7046890E+00
   4.3283080E-04   8.4715523E+04   -1.7041320E+00
   4.3482966E-04   8.4053071E+04   -1.7035756E+00
   4.3683775E-04   8.3396013E+04   -1.7030196E+00
   4.3885511E-04   8.2744303E+04   -1.7024641E+00
   4.4088179E-04   8.2097895E+04   -1.7019091E+00
   4.4291783E-04   8.1456746E+04   -1.7013546E+00
   4.4496327E-04   8.0820810E+04   -1.7008006E+00
   4.4701816E-04   8.0190044E+04   -1.7002471E+00
   4.4908253E-04   7.9564403E+04   -1.6996940E+00
   4.5115644E-04   7.8943844E+04   -1.6991415E+00
   4.5323993E-04   7.8328325E+04   -1.6985896E+00
   4.5533304E-04   7.7717803E+04   -1.6980381E+00
   4.5743582E-04   7.7112235E+04   -1.6974872E+00
   4.5954830E-04   7.6511580E+04   -1.6969368E+00
   4.6167054E-04   7.5915796E+04   -1.6963869E+00
   4.6380259E-04   7.5324842E+04   -1.6958376E+00
   4.6594448E-04   7.4738677E+04   -1.6952888E+00
   4.6809626E-04   7.4157261E+04   -1.6947406E+00
   4.7025797E-04   7.3580554E+04   -1.6941929E+00
   4.7242967E-04   7.3008516E+04   -1.6936458E+00
   4.7461140E-04   7.2441107E+04   -1.6930993E+00
   4.7680321E-04   7.1878289E+04   -1.6925533E+00
   4.7900514E-04   7.1320024E+04   -1.6920079E+00
   4.8121723E-04   7.0766272E+04   -1.6914631E+00
   4.8343954E-04   7.0216995E+04   -1.6909189E+00
   4.8567212E-04   6.9672157E+04   -1.6903752E+00
   4.8791500E-04   6.9131719E+04   -1.6898322E+00
   4.9016825E-04   6.8595645E+04   -1.6892898E+00
   4.9243189E-04   6.8063898E+04   -1.6887479E+00
   4.9470600E-04   6.7536442E+04   -1.6882067E+00
   4.9699060E-04   6.7013240E+04   -1.6876661E+00
   4.9928575E-04   6.6494256E+04   -1.6871261E+00
   5.0159151E-04   6.5979456E+04   -1.6865868E+00
   5.0390791E-04   6.5468805E+04   -1.6860480E+00
   5.0623501E-04   6.4962266E+04   -1.6855099E+00
   5.0857286E-04   6.4459806E+04   -1.6849725E+00
   5.1092150E-04   6.3961392E+04   -1.6844357E+00
   5.1328099E-04   6.3466987E+04   -1.6838995E+00
   5.1565137E-04   6.2976560E+04   -1.6833640E+00
   5.1803270E-04   6.2490077E+04   -1.6828291E+00
   5.2042503E-04   6.2007505E+04   -1.6822949E+00
   5.2282841E-04   6.1528810E+04   -1.6817614E+00
   5.2524289E-04   6.1053961E+04   -1.6812285E+00
   5.2766851E-04   6.0582925E+04   -1.6806963E+00
   5.3010534E-04   6.0115670E+04   -1.6801648E+00
   5.3255342E-04   5.9652166E+04   -1.6796340E+00
   5.3501281E-04   5.9192379E+04   -1.6791038E+00
   5.3748356E-04   5.8736280E+04   -1.6785744E+00
   5.3996571E-04   5.8283837E+04   -1.6780456E+00
   5.4245933E-04   5.7835021E+04   -1.6775176E+00
   5.4496446E-04   5.7389800E+04   -1.6769902E+00
   5.4748117E-04   5.6948145E+04   -1.6764636E+00
   5.5000949E-04   5.6510026E+04   -1.6759376E+00
   5.5254949E-04   5.6075413E+04   -1.6754124E+00
   5.5510123E-04   5.5644277E+04   -1.6748879E+00
   5.5766474E-04   5.5216589E+04   -1.6743641E+00
   5.6024010E-04   5.4792321E+04   -1.6738411E+00
   5.6282734E-04   5.4371443E+04   -1.6733188E+00
   5.6542654E-04   5.3953928E+04   -1.6727972E+00
   5.6803774E-04   5.3539748E+04   -1.6722764E+00
   5.7066099E-04   5.3128875E+04   -1.6717563E+00
   5.7329637E-04   5.2721281E+04   -1.6712369E+00
   5.7594391E-04   5.2316939E+04   -1.6707183E+00
   5.7860368E-04   5.1915822E+04   -1.6702005E+00
   5.8127573E-04   5.1517903E+04   -1.6696834E+00
   5.8396012E-04   5.1123157E+04   -1.6691671E+00
   5.8665691E-04   5.0731555E+04   -1.6686516E+00
   5.8936616E-04   5.0343072E+04   -1.6681368E+00
   5.9208791E-04   4.9957683E+04   -1.6676228E+00
   5.9482223E-04   4.9575361E+04   -1.6671096E+00
   5.9756919E-04   4.9196082E+04   -1.6665971E+00
   6.0032882E-04   4.8819819E+04   -1.6660855E+00
   6.0310120E-04   4.8446548E+04   -1.6655746E+00
   6.0588639E-04   4.8076244E+04   -1.6650645E+00
   6.0868443E-04   4.7708883E+04   -1.6645553E+00
   6.1149540E-04   4.7344439E+04   -1.6640468E+00
   6.1431935E-04   4.6982890E+04   -1.6635391E+00
   6.1715634E-04   4.6624211E+04   -1.6630323E+00
   6.2000644E-04   4.6268378E+04   -1.6625262E+00
   6.2286969E-04   4.5915367E+04   -1.6620210E+00
