#        a       HoverH0(a)       dlogHdloga_of_a(a)
   1.0000000E-04   1.0577156E+06   -1.8809768E+00
   1.0046181E-04   1.0485895E+06   -1.8805585E+00
   1.0092575E-04   1.0395441E+06   -1.8801391E+00
   1.0139184E-04   1.0305788E+06   -1.8797187E+00
   1.0186008E-04   1.0216927E+06   -1.8792973E+00
   1.0233048E-04   1.0128852E+06   -1.8788749E+00
   1.0280305E-04   1.0041557E+06   -1.8784515E+00
   1.0327781E-04   9.9550325E+05   -1.8780271E+00
   1.0375475E-04   9.8692733E+05   -1.8776017E+00
   1.0423390E-04   9.7842720E+05   -1.8771753E+00
   1.0471527E-04   9.7000219E+05   -1.8767479E+00
   1.0519885E-04   9.6165163E+05   -1.8763195E+00
   1.0568467E-04   9.5337484E+05   -1.8758900E+00
   1.0617274E-04   9.4517115E+05   -1.8754596E+00
   1.0666305E-04   9.3703992E+05   -1.8750282E+00
   1.0715563E-04   9.2898049E+05   -1.8745958E+00
   1.0765049E-04   9.2099222E+05   -1.8741624E+00
   1.0814763E-04   9.1307446E+05   -1.8737281E+00
   1.0864707E-04   9.0522659E+05   -1.8732927E+00
   1.0914881E-04   8.9744797E+05   -1.8728563E+00
   1.0965287E-04   8.8973798E+05   -1.8724190E+00
   1.1015926E-04   8.8209601E+05   -1.8719806E+00
   1.1066799E-04   8.7452144E+05   -1.8715413E+00
   1.1117906E-04   8.6701367E+05   -1.8711010E+00
   1.1169250E-04   8.5957211E+05   -1.8706597E+00
   1.1220831E-04   8.5219614E+05   -1.8702174E+00
   1.1272650E-04   8.4488520E+05   -1.8697741E+00
   1.1324708E-04   8.3763868E+05   -1.8693299E+00
   1.1377007E-04   8.3045603E+05   -1.8688846E+00
   1.1429547E-04   8.2333665E+05   -1.8684384E+00
   1.1482330E-04   8.1627999E+05   -1.8679913E+00
   1.1535356E-04   8.0928548E+05   -1.8675431E+00
   1.1588628E-04   8.0235256E+05   -1.8670940E+00
   1.1642145E-04   7.9548068E+05   -1.8666439E+00
   1.1695910E-04   7.8866930E+05   -1.8661928E+00
   1.1749923E-04   7.8191786E+05   -1.8657408E+00
   1.1804185E-04   7.7522584E+05   -1.8652878E+00
   1.1858698E-04   7.6859269E+05   -1.8648339E+00
   1.1913463E-04   7.6201789E+05   -1.8643790E+00
   1.1968481E-04   7.5550093E+05   -1.8639231E+00
   1.2023752E-04   7.4904127E+05   -1.8634662E+00
   1.2079279E-04   7.4263841E+05   -1.8630084E+00
   1.2135063E-04   7.3629184E+05   -1.8625497E+00
   1.2191104E-04   7.3000105E+05   -1.8620900E+00
   1.2247403E-04   7.2376554E+05   -1.8616293E+00
   1.2303963E-04   7.1758482E+05   -1.8611678E+00
   1.2360784E-04   7.1145840E+05   -1.8607052E+00
   1.2417868E-04   7.0538578E+05   -1.8602417E+00
   1.2475215E-04   6.9936649E+05   -1.8597773E+00
   1.2532826E-04   6.9340005E+05   -1.8593119E+00
   1.2590704E-04   6.8748599E+05   -1.8588456E+00
   1.2648850E-04   6.8162384E+05   -1.8583783E+00
   1.2707263E-04   6.7581312E+05   -1.8579102E+00
   1.2765947E-04   6.7005339E+05   -1.8574410E+00
   1.2824901E-04   6.6434419E+05   -1.8569710E+00
   1.2884128E-04   6.5868506E+05   -1.8565000E+00
   1.2943628E-04   6.5307555E+05   -1.8560281E+00
   1.3003403E-04   6.4751523E+05   -1.8555553E+00
   1.3063454E-04   6.4200365E+05   -1.8550816E+00
   1.3123783E-04   6.3654037E+05   -1.8546069E+00
   1.3184390E-04   6.3112496E+05   -1.8541313E+00
   1.3245277E-04   6.2575700E+05   -1.8536548E+00
   1.3306445E-04   6.2043606E+05   -1.8531774E+00
   1.3367895E-04   6.1516171E+05   -1.8526991E+00
   1.3429630E-04   6.0993355E+05   -1.8522199E+00
   1.3491649E-04   6.0475116E+05   -1.8517398E+00
   1.3553955E-04   5.9961413E+05   -1.8512587E+00
   1.3616548E-04   5.9452206E+05   -1.8507768E+00
   1.3679431E-04   5.8947454E+05   -1.8502940E+00
   1.3742604E-04   5.8447117E+05   -1.8498103E+00
   1.3806069E-04   5.7951157E+05   -1.8493257E+00
   1.3869827E-04   5.7459533E+05   -1.8488402E+00
   1.3933879E-04   5.6972208E+05   -1.8483538E+00
   1.3998227E-04   5.6489143E+05   -1.8478666E+00
   1.4062872E-04   5.6010299E+05   -1.8473784E+00
   1.4127816E-04   5.5535639E+05   -1.8468894E+00
   1.4193060E-04   5.5065126E+05   -1.8463995E+00
   1.4258605E-04   5.4598722E+05   -1.8459088E+00
   1.4324453E-04   5.4136392E+05   -1.8454171E+00
   1.4390605E-04   5.3678098E+05   -1.8449246E+00
   1.4457062E-04   5.3223805E+05   -1.8444313E+00
   1.4523826E-04   5.2773476E+05   -1.8439371E+00
   1.4590899E-04   5.2327078E+05   -1.8434420E+00
   1.4658281E-04   5.1884573E+05   -1.8429460E+00
   1.4725974E-04   5.1445929E+05   -1.8424493E+00
   1.4793981E-04   5.1011109E+05   -1.8419516E+00
   1.4862301E-04   5.0580081E+05   -1.8414532E+00
   1.4930936E-04   5.0152810E+05   -1.8409539E+00
   1.4999889E-04   4.9729263E+05   -1.8404537E+00
   1.5069160E-04   4.9309406E+05   -1.8399527E+00
   1.5138751E-04   4.8893207E+05   -1.8394509E+00
   1.5208663E-04   4.8480634E+05   -1.8389483E+00
   1.5278899E-04   4.8071653E+05   -1.8384448E+00
   1.5349458E-04   4.7666233E+05   -1.8379405E+00
   1.5420343E-04   4.7264342E+05   -1.8374354E+00
   1.5491556E-04   4.6865949E+05   -1.8369295E+00
   1.5563098E-04   4.6471022E+05   -1.8364228E+00
   1.5634970E-04   4.6079531E+05   -1.8359152E+00
   1.5707174E-04   4.5691445E+05   -1.8354069E+00
   1.5779711E-04   4.5306733E+05   -1.8348977E+00
   1.5852584E-04   4.4925366E+05   -1.8343878E+00
   1.5925792E-04   4.4547314E+05   -1.8338770E+00
   1.5999339E-04   4.4172548E+05   -1.8333655E+00
   1.6073226E-04   4.3801037E+05   -1.8328532E+00
   1.6147454E-04   4.3432754E+05   -1.8323401E+00
   1.6222024E-04   4.3067669E+05   -1.8318262E+00
   1.6296939E-04   4.2705755E+05   -1.8313116E+00
   1.6372200E-04   4.2346982E+05   -1.8307961E+00
   1.6447809E-04   4.1991323E+05   -1.8302799E+00
   1.6523767E-04   4.1638750E+05   -1.8297630E+00
   1.6600075E-04   4.1289236E+05   -1.8292453E+00
   1.6676736E-04   4.0942753E+05   -1.8287268E+00
   1.6753751E-04   4.0599275E+05   -1.8282076E+00
   1.6831122E-04   4.0258775E+05   -1.8276876E+00
   1.6908849E-04   3.9921226E+05   -1.8271669E+00
   1.6986936E-04   3.9586602E+05   -1.8266454E+00
   1.7065384E-04   3.9254878E+05   -1.8261232E+00
   1.7144193E-04   3.8926027E+05   -1.8256003E+00
   1.7223367E-04   3.8600024E+05   -1.8250766E+00
   1.7302906E-04   3.8276844E+05   -1.8245522E+00
   1.7382813E-04   3.7956462E+05   -1.8240271E+00
   1.7463089E-04   3.7638852E+05   -1.8235013E+00
   1.7543735E-04   3.7323990E+05   -1.8229747E+00
   1.7624754E-04   3.7011852E+05   -1.8224475E+00
   1.7706147E-04   3.6702414E+05   -1.8219195E+00
   1.7787916E-04   3.6395652E+05   -1.8213908E+00
   1.7870062E-04   3.6091541E+05   -1.8208615E+00
   1.7952588E-04   3.5790059E+05   -1.8203314E+00
   1.8035495E-04   3.5491181E+05   -1.8198007E+00
   1.8118785E-04   3.5194886E+05   -1.8192693E+00
   1.8202459E-04   3.4901150E+05   -1.8187372E+00
   1.8286520E-04   3.4609950E+05   -1.8182044E+00
   1.8370969E-04   3.4321265E+05   -1.8176710E+00
   1.8455808E-04   3.4035071E+05   -1.8171369E+00
   1.8541039E-04   3.3751346E+05   -1.8166021E+00
   1.8626663E-04   3.3470070E+05   -1.8160667E+00
   1.8712683E-04   3.3191219E+05   -1.8155306E+00
   1.8799100E-04   3.2914773E+05   -1.8149939E+00
   1.8885917E-04   3.2640710E+05   -1.8144565E+00
   1.8973134E-04   3.2369009E+05   -1.8139185E+00
   1.9060754E-04   3.2099650E+05   -1.8133799E+00
   1.9148778E-04   3.1832611E+05   -1.8128406E+00
   1.9237209E-04   3.1567872E+05   -1.8123007E+00
   1.9326049E-04   3.1305412E+05   -1.8117602E+00
   1.9415299E-04   3.1045212E+05   -1.8112190E+00
   1.9504960E-04   3.0787252E+05   -1.8106773E+00
   1.9595036E-04   3.0531511E+05   -1.8101349E+00
   1.9685528E-04   3.0277971E+05   -1.8095920E+00
   1.9776438E-04   3.0026611E+05   -1.8090484E+00
   1.9867768E-04   2.9777412E+05   -1.8085043E+00
   1.9959519E-04   2.9530356E+05   -1.8079596E+00
   2.0051694E-04   2.9285423E+05   -1.8074143E+00
   2.0144295E-04   2.9042594E+05   -1.8068684E+00
   2.0237324E-04   2.8801852E+05   -1.8063219E+00
   2.0330782E-04   2.8563177E+05   -1.8057749E+00
   2.0424671E-04   2.8326551E+05   -1.8052273E+00
   2.0518995E-04   2.8091956E+05   -1.8046791E+00
   2.0613754E-04   2.7859375E+05   -1.8041304E+00
   2.0708950E-04   2.7628789E+05   -1.8035812E+00
   2.0804586E-04   2.7400181E+05   -1.8030314E+00
   2.0900664E-04   2.7173534E+05   -1.8024810E+00
   2.0997185E-04   2.6948829E+05   -1.8019302E+00
   2.1094152E-04   2.6726051E+05   -1.8013788E+00
   2.1191567E-04   2.6505182E+05   -1.8008269E+00
   2.1289432E-04   2.6286205E+05   -1.8002744E+00
   2.1387749E-04   2.6069103E+05   -1.7997215E+00
   2.1486520E-04   2.5853860E+05   -1.7991680E+00
   2.1585747E-04   2.5640460E+05   -1.7986141E+00
   2.1685432E-04   2.5428886E+05   -1.7980596E+00
   2.1785578E-04   2.5219123E+05   -1.7975047E+00
   2.1886186E-04   2.5011154E+05   -1.7969492E+00
   2.1987259E-04   2.4804963E+05   -1.7963933E+00
   2.2088798E-04   2.4600535E+05   -1.7958369E+00
   2.2190807E-04   2.4397855E+05   -1.7952801E+00
   2.2293286E-04   2.4196907E+05   -1.7947227E+00
   2.2396239E-04   2.3997675E+05   -1.7941650E+00
   2.2499667E-04   2.3800145E+05   -1.7936067E+00
   2.2603573E-04   2.3604301E+05   -1.7930480E+00
   2.2707958E-04   2.3410130E+05   -1.7924889E+00
   2.2812826E-04   2.3217615E+05   -1.7919293E+00
   2.2918178E-04   2.3026743E+05   -1.7913693E+00
   2.3024017E-04   2.2837499E+05   -1.7908089E+00
   2.3130344E-04   2.2649869E+05   -1.7902480E+00
   2.3237162E-04   2.2463839E+05   -1.7896868E+00
   2.3344474E-04   2.2279394E+05   -1.7891251E+00
   2.3452281E-04   2.2096520E+05   -1.7885630E+00
   2.3560586E-04   2.1915205E+05   -1.7880005E+00
   2.3669392E-04   2.1735434E+05   -1.7874376E+00
   2.3778699E-04   2.1557193E+05   -1.7868744E+00
   2.3888512E-04   2.1380470E+05   -1.7863107E+00
   2.3998831E-04   2.1205250E+05   -1.7857467E+00
   2.4109661E-04   2.1031521E+05   -1.7851823E+00
   2.4221001E-04   2.0859269E+05   -1.7846175E+00
   2.4332857E-04   2.0688483E+05   -1.7840524E+00
   2.4445228E-04   2.0519148E+05   -1.7834869E+00
   2.4558119E-04   2.0351252E+05   -1.7829211E+00
   2.4671531E-04   2.0184782E+05   -1.7823549E+00
   2.4785467E-04   2.0019726E+05   -1.7817884E+00
   2.4899928E-04   1.9856072E+05   -1.7812215E+00
   2.5014919E-04   1.9693807E+05   -1.7806543E+00
   2.5130440E-04   1.9532920E+05   -1.7800868E+00
   2.5246495E-04   1.9373397E+05   -1.7795190E+00
   2.5363086E-04   1.9215227E+05   -1.7789509E+00
   2.5480216E-04   1.9058399E+05   -1.7783825E+00
   2.5597886E-04   1.8902900E+05   -1.7778137E+00
   2.5716100E-04   1.8748719E+05   -1.7772447E+00
   2.5834859E-04   1.8595845E+05   -1.7766754E+00
   2.5954168E-04   1.8444265E+05   -1.7761058E+00
   2.6074027E-04   1.8293969E+05   -1.7755360E+00
   2.6194439E-04   1.8144945E+05   -1.7749659E+00
   2.6315408E-04   1.7997182E+05   -1.7743955E+00
   2.6436935E-04   1.7850670E+05   -1.7738248E+00
   2.6559024E-04   1.7705397E+05   -1.7732539E+00
   2.6681676E-04   1.7561352E+05   -1.7726828E+00
   2.6804895E-04   1.7418525E+05   -1.7721114E+00
   2.6928683E-04   1.7276906E+05   -1.7715398E+00
   2.7053042E-04   1.7136483E+05   -1.7709679E+00
   2.7177976E-04   1.6997246E+05   -1.7703959E+00
   2.7303487E-04   1.6859184E+05   -1.7698236E+00
   2.7429577E-04   1.6722289E+05   -1.7692511E+00
   2.7556250E-04   1.6586548E+05   -1.7686784E+00
   2.7683507E-04   1.6451953E+05   -1.7681055E+00
   2.7811353E-04   1.6318493E+05   -1.7675325E+00
   2.7939788E-04   1.6186159E+05   -1.7669592E+00
   2.8068817E-04   1.6054940E+05   -1.7663857E+00
   2.8198442E-04   1.5924827E+05   -1.7658121E+00
   2.8328665E-04   1.5795810E+05   -1.7652383E+00
   2.8459490E-04   1.5667880E+05   -1.7646644E+00
   2.8590919E-04   1.5541027E+05   -1.7640903E+00
   2.8722955E-04   1.5415242E+05   -1.7635160E+00
   2.8855600E-04   1.5290515E+05   -1.7629416E+00
   2.8988859E-04   1.5166838E+05   -1.7623671E+00
   2.9122732E-04   1.5044201E+05   -1.7617924E+00
   2.9257224E-04   1.4922595E+05   -1.7612176E+00
   2.9392337E-04   1.4802011E+05   -1.7606427E+00
   2.9528074E-04   1.4682441E+05   -1.7600677E+00
   2.9664438E-04   1.4563875E+05   -1.7594925E+00
   2.9801431E-04   1.4446305E+05   -1.7589173E+00
   2.9939057E-04   1.4329721E+05   -1.7583420E+00
   3.0077319E-04   1.4214117E+05   -1.7577666E+00
   3.0216219E-04   1.4099482E+05   -1.7571910E+00
   3.0355761E-04   1.3985809E+05   -1.7566155E+00
   3.0495947E-04   1.3873090E+05   -1.7560398E+00
   3.0636780E-04   1.3761315E+05   -1.7554641E+00
   3.0778264E-04   1.3650477E+05   -1.7548883E+00
   3.0920401E-04   1.3540567E+05   -1.7543125E+00
   3.1063195E-04   1.3431579E+05   -1.7537366E+00
   3.1206648E-04   1.3323502E+05   -1.7531607E+00
   3.1350764E-04   1.3216331E+05   -1.7525848E+00
   3.1495545E-04   1.3110056E+05   -1.7520088E+00
   3.1640994E-04   1.3004671E+05   -1.7514328E+00
   3.1787116E-04   1.2900167E+05   -1.7508568E+00
   3.1933912E-04   1.2796536E+05   -1.7502808E+00
   3.2081386E-04   1.2693772E+05   -1.7497047E+00
   3.2229541E-04   1.2591867E+05   -1.7491287E+00
   3.2378381E-04   1.2490812E+05   -1.7485527E+00
   3.2527908E-04   1.2390602E+05   -1.7479767E+00
   3.2678125E-04   1.2291228E+05   -1.7474007E+00
   3.2829036E-04   1.2192684E+05   -1.7468248E+00
   3.2980644E-04   1.2094961E+05   -1.7462489E+00
   3.3132952E-04   1.1998054E+05   -1.7456730E+00
   3.3285963E-04   1.1901955E+05   -1.7450971E+00
   3.3439681E-04   1.1806657E+05   -1.7445214E+00
   3.3594109E-04   1.1712153E+05   -1.7439456E+00
   3.3749250E-04   1.1618436E+05   -1.7433700E+00
   3.3905108E-04   1.1525500E+05   -1.7427944E+00
   3.4061685E-04   1.1433337E+05   -1.7422189E+00
   3.4218986E-04   1.1341941E+05   -1.7416434E+00
   3.4377013E-04   1.1251306E+05   -1.7410681E+00
   3.4535769E-04   1.1161425E+05   -1.7404928E+00
   3.4695259E-04   1.1072291E+05   -1.7399177E+00
   3.4855485E-04   1.0983898E+05   -1.7393426E+00
   3.5016452E-04   1.0896239E+05   -1.7387677E+00
   3.5178161E-04   1.0809309E+05   -1.7381929E+00
   3.5340618E-04   1.0723101E+05   -1.7376182E+00
   3.5503824E-04   1.0637608E+05   -1.7370436E+00
   3.5667785E-04   1.0552825E+05   -1.7364692E+00
   3.5832502E-04   1.0468745E+05   -1.7358949E+00
   3.5997981E-04   1.0385363E+05   -1.7353208E+00
   3.6164223E-04   1.0302672E+05   -1.7347468E+00
   3.6331233E-04   1.0220667E+05   -1.7341730E+00
   3.6499015E-04   1.0139341E+05   -1.7335993E+00
   3.6667571E-04   1.0058689E+05   -1.7330258E+00
   3.6836906E-04   9.9787042E+04   -1.7324525E+00
   3.7007022E-04   9.8993820E+04   -1.7318794E+00
   3.7177925E-04   9.8207163E+04   -1.7313065E+00
   3.7349616E-04   9.7427014E+04   -1.7307338E+00
   3.7522101E-04   9.6653318E+04   -1.7301612E+00
   3.7695382E-04   9.5886018E+04   -1.7295889E+00
   3.7869463E-04   9.5125061E+04   -1.7290168E+00
   3.8044348E-04   9.4370392E+04   -1.7284449E+00
   3.8220041E-04   9.3621956E+04   -1.7278733E+00
   3.8396545E-04   9.2879701E+04   -1.7273019E+00
   3.8573864E-04   9.2143573E+04   -1.7267307E+00
   3.8752002E-04   9.1413520E+04   -1.7261597E+00
   3.8930963E-04   9.0689489E+04   -1.7255890E+00
   3.9110750E-04   8.9971430E+04   -1.7250186E+00
   3.9291368E-04   8.9259290E+04   -1.7244484E+00
   3.9472820E-04   8.8553020E+04   -1.7238785E+00
   3.9655109E-04   8.7852569E+04   -1.7233089E+00
   3.9838241E-04   8.7157887E+04   -1.7227395E+00
   4.0022218E-04   8.6468925E+04   -1.7221705E+00
   4.0207045E-04   8.5785634E+04   -1.7216017E+00
   4.0392725E-04   8.5107965E+04   -1.7210332E+00
   4.0579263E-04   8.4435871E+04   -1.7204650E+00
   4.0766662E-04   8.3769304E+04   -1.7198972E+00
   4.0954927E-04   8.3108216E+04   -1.7193296E+00
   4.1144061E-04   8.2452561E+04   -1.7187624E+00
   4.1334068E-04   8.1802292E+04   -1.7181954E+00
   4.1524953E-04   8.1157363E+04   -1.7176289E+00
   4.1716720E-04   8.0517729E+04   -1.7170626E+00
   4.1909372E-04   7.9883345E+04   -1.7164967E+00
   4.2102914E-04   7.9254165E+04   -1.7159312E+00
   4.2297350E-04   7.8630146E+04   -1.7153660E+00
   4.2492683E-04   7.8011243E+04   -1.7148011E+00
   4.2688919E-04   7.7397413E+04   -1.7142367E+00
   4.2886061E-04   7.6788613E+04   -1.7136726E+00
   4.3084113E-04   7.6184799E+04   -1.7131088E+00
   4.3283080E-04   7.5585930E+04   -1.7125455E+00
   4.3482966E-04   7.4991962E+04   -1.7119825E+00
   4.3683775E-04   7.4402855E+04   -1.7114200E+00
   4.3885511E-04   7.3818568E+04   -1.7108578E+00
   4.4088179E-04   7.3239058E+04   -1.7102961E+00
   4.4291783E-04   7.2664285E+04   -1.7097347E+00
   4.4496327E-04   7.2094210E+04   -1.7091738E+00
   4.4701816E-04   7.1528792E+04   -1.7086133E+00
   4.4908253E-04   7.0967991E+04   -1.7080532E+00
   4.5115644E-04   7.0411769E+04   -1.7074935E+00
   4.5323993E-04   6.9860087E+04   -1.7069343E+00
   4.5533304E-04   6.9312906E+04   -1.7063755E+00
   4.5743582E-04   6.8770187E+04   -1.7058172E+00
   4.5954830E-04   6.8231894E+04   -1.7052593E+00
   4.6167054E-04   6.7697987E+04   -1.7047019E+00
   4.6380259E-04   6.7168431E+04   -1.7041450E+00
   4.6594448E-04   6.6643189E+04   -1.7035885E+00
   4.6809626E-04   6.6122223E+04   -1.7030325E+00
   4.7025797E-04   6.5605497E+04   -1.7024770E+00
   4.7242967E-04   6.5092976E+04   -1.7019219E+00
   4.7461140E-04   6.4584624E+04   -1.7013674E+00
   4.7680321E-04   6.4080406E+04   -1.7008133E+00
   4.7900514E-04   6.3580286E+04   -1.7002598E+00
   4.8121723E-04   6.3084231E+04   -1.6997067E+00
   4.8343954E-04   6.2592205E+04   -1.6991542E+00
   4.8567212E-04   6.2104175E+04   -1.6986022E+00
   4.8791500E-04   6.1620106E+04   -1.6980507E+00
   4.9016825E-04   6.1139966E+04   -1.6974997E+00
   4.9243189E-04   6.0663721E+04   -1.6969493E+00
   4.9470600E-04   6.0191339E+04   -1.6963994E+00
   4.9699060E-04   5.9722786E+04   -1.6958500E+00
   4.9928575E-04   5.9258030E+04   -1.6953012E+00
   5.0159151E-04   5.8797039E+04   -1.6947529E+00
   5.0390791E-04   5.8339782E+04   -1.6942052E+00
   5.0623501E-04   5.7886227E+04   -1.6936581E+00
   5.0857286E-04   5.7436343E+04   -1.6931115E+00
   5.1092150E-04   5.6990099E+04   -1.6925655E+00
   5.1328099E-04   5.6547464E+04   -1.6920201E+00
   5.1565137E-04   5.6108408E+04   -1.6914753E+00
   5.1803270E-04   5.5672900E+04   -1.6909310E+00
   5.2042503E-04   5.5240912E+04   -1.6903873E+00
   5.2282841E-04   5.4812412E+04   -1.6898443E+00
   5.2524289E-04   5.4387373E+04   -1.6893018E+00
   5.2766851E-04   5.3965764E+04   -1.6887599E+00
   5.3010534E-04   5.3547557E+04   -1.6882187E+00
   5.3255342E-04   5.3132723E+04   -1.6876780E+00
   5.3501281E-04   5.2721234E+04   -1.6871380E+00
   5.3748356E-04   5.2313063E+04   -1.6865986E+00
   5.3996571E-04   5.1908180E+04   -1.6860598E+00
   5.4245933E-04   5.1506558E+04   -1.6855217E+00
   5.4496446E-04   5.1108171E+04   -1.6849842E+00
   5.4748117E-04   5.0712991E+04   -1.6844473E+00
   5.5000949E-04   5.0320991E+04   -1.6839111E+00
   5.5254949E-04   4.9932144E+04   -1.6833756E+00
   5.5510123E-04   4.9546424E+04   -1.6828407E+00
   5.5766474E-04   4.9163804E+04   -1.6823064E+00
   5.6024010E-04   4.8784260E+04   -1.6817729E+00
   5.6282734E-04   4.8407764E+04   -1.6812399E+00
   5.6542654E-04   4.8034292E+04   -1.6807077E+00
   5.6803774E-04   4.7663818E+04   -1.6801762E+00
   5.7066099E-04   4.7296317E+04   -1.6796453E+00
   5.7329637E-04   4.6931765E+04   -1.6791151E+00
   5.7594391E-04   4.6570136E+04   -1.6785856E+00
   5.7860368E-04   4.6211406E+04   -1.6780568E+00
   5.8127573E-04   4.5855551E+04   -1.6775287E+00
   5.8396012E-04   4.5502548E+04   -1.6770013E+00
   5.8665691E-04   4.5152371E+04   -1.6764746E+00
   5.8936616E-04   4.4804998E+04   -1.6759486E+00
   5.9208791E-04   4.4460405E+04   -1.6754234E+00
   5.9482223E-04   4.4118569E+04   -1.6748988E+00
   5.9756919E-04   4.3779466E+04   -1.6743750E+00
   6.0032882E-04   4.3443075E+04   -1.6738519E+00
   6.0310120E-04   4.3109373E+04   -1.6733296E+00
   6.0588639E-04   4.2778337E+04   -1.6728079E+00
   6.0868443E-04   4.2449944E+04   -1.6722871E+00
   6.1149540E-04   4.2124174E+04   -1.6717669E+00
   6.1431935E-04   4.1801004E+04   -1.6712475E+00
   6.1715634E-04   4.1480412E+04   -1.6707289E+00
   6.2000644E-04   4.1162378E+04   -1.6702110E+00
   6.2286969E-04   4.0846879E+04   -1.6696939E+00
