#        a       HoverH0(a)       dlogHdloga_of_a(a)
   1.0000000E-04   1.0612575E+06   -1.8609828E+00
   1.0046181E-04   1.0521979E+06   -1.8605199E+00
   1.0092575E-04   1.0432178E+06   -1.8600561E+00
   1.0139184E-04   1.0343166E+06   -1.8595913E+00
   1.0186008E-04   1.0254935E+06   -1.8591255E+00
   1.0233048E-04   1.0167479E+06   -1.8586588E+00
   1.0280305E-04   1.0080790E+06   -1.8581912E+00
   1.0327781E-04   9.9948615E+05   -1.8577227E+00
   1.0375475E-04   9.9096872E+05   -1.8572532E+00
   1.0423390E-04   9.8252600E+05   -1.8567828E+00
   1.0471527E-04   9.7415733E+05   -1.8563114E+00
   1.0519885E-04   9.6586203E+05   -1.8558392E+00
   1.0568467E-04   9.5763945E+05   -1.8553660E+00
   1.0617274E-04   9.4948895E+05   -1.8548919E+00
   1.0666305E-04   9.4140988E+05   -1.8544169E+00
   1.0715563E-04   9.3340159E+05   -1.8539409E+00
   1.0765049E-04   9.2546347E+05   -1.8534641E+00
   1.0814763E-04   9.1759487E+05   -1.8529863E+00
   1.0864707E-04   9.0979517E+05   -1.8525077E+00
   1.0914881E-04   9.0206377E+05   -1.8520281E+00
   1.0965287E-04   8.9440004E+05   -1.8515476E+00
   1.1015926E-04   8.8680339E+05   -1.8510662E+00
   1.1066799E-04   8.7927321E+05   -1.8505840E+00
   1.1117906E-04   8.7180891E+05   -1.8501008E+00
   1.1169250E-04   8.6440991E+05   -1.8496167E+00
   1.1220831E-04   8.5707561E+05   -1.8491318E+00
   1.1272650E-04   8.4980544E+05   -1.8486459E+00
   1.1324708E-04   8.4259883E+05   -1.8481592E+00
   1.1377007E-04   8.3545522E+05   -1.8476716E+00
   1.1429547E-04   8.2837402E+05   -1.8471831E+00
   1.1482330E-04   8.2135470E+05   -1.8466938E+00
   1.1535356E-04   8.1439670E+05   -1.8462036E+00
   1.1588628E-04   8.0749946E+05   -1.8457125E+00
   1.1642145E-04   8.0066245E+05   -1.8452205E+00
   1.1695910E-04   7.9388513E+05   -1.8447277E+00
   1.1749923E-04   7.8716697E+05   -1.8442340E+00
   1.1804185E-04   7.8050743E+05   -1.8437394E+00
   1.1858698E-04   7.7390600E+05   -1.8432440E+00
   1.1913463E-04   7.6736216E+05   -1.8427477E+00
   1.1968481E-04   7.6087538E+05   -1.8422506E+00
   1.2023752E-04   7.5444518E+05   -1.8417527E+00
   1.2079279E-04   7.4807103E+05   -1.8412539E+00
   1.2135063E-04   7.4175245E+05   -1.8407543E+00
   1.2191104E-04   7.3548893E+05   -1.8402538E+00
   1.2247403E-04   7.2927998E+05   -1.8397525E+00
   1.2303963E-04   7.2312512E+05   -1.8392503E+00
   1.2360784E-04   7.1702387E+05   -1.8387474E+00
   1.2417868E-04   7.1097574E+05   -1.8382436E+00
   1.2475215E-04   7.0498027E+05   -1.8377390E+00
   1.2532826E-04   6.9903698E+05   -1.8372336E+00
   1.2590704E-04   6.9314541E+05   -1.8367273E+00
   1.2648850E-04   6.8730510E+05   -1.8362203E+00
   1.2707263E-04   6.8151559E+05   -1.8357124E+00
   1.2765947E-04   6.7577643E+05   -1.8352038E+00
   1.2824901E-04   6.7008718E+05   -1.8346943E+00
   1.2884128E-04   6.6444738E+05   -1.8341841E+00
   1.2943628E-04   6.5885660E+05   -1.8336730E+00
   1.3003403E-04   6.5331441E+05   -1.8331612E+00
   1.3063454E-04   6.4782036E+05   -1.8326486E+00
   1.3123783E-04   6.4237403E+05   -1.8321352E+00
   1.3184390E-04   6.3697500E+05   -1.8316210E+00
   1.3245277E-04   6.3162284E+05   -1.8311060E+00
   1.3306445E-04   6.2631714E+05   -1.8305903E+00
   1.3367895E-04   6.2105749E+05   -1.8300738E+00
   1.3429630E-04   6.1584347E+05   -1.8295566E+00
   1.3491649E-04   6.1067468E+05   -1.8290386E+00
   1.3553955E-04   6.0555072E+05   -1.8285198E+00
   1.3616548E-04   6.0047119E+05   -1.8280003E+00
   1.3679431E-04   5.9543570E+05   -1.8274800E+00
   1.3742604E-04   5.9044385E+05   -1.8269590E+00
   1.3806069E-04   5.8549525E+05   -1.8264373E+00
   1.3869827E-04   5.8058953E+05   -1.8259148E+00
   1.3933879E-04   5.7572630E+05   -1.8253916E+00
   1.3998227E-04   5.7090518E+05   -1.8248676E+00
   1.4062872E-04   5.6612580E+05   -1.8243429E+00
   1.4127816E-04   5.6138779E+05   -1.8238176E+00
   1.4193060E-04   5.5669078E+05   -1.8232915E+00
   1.4258605E-04   5.5203440E+05   -1.8227646E+00
   1.4324453E-04   5.4741831E+05   -1.8222371E+00
   1.4390605E-04   5.4284213E+05   -1.8217089E+00
   1.4457062E-04   5.3830553E+05   -1.8211800E+00
   1.4523826E-04   5.3380813E+05   -1.8206504E+00
   1.4590899E-04   5.2934961E+05   -1.8201201E+00
   1.4658281E-04   5.2492960E+05   -1.8195891E+00
   1.4725974E-04   5.2054778E+05   -1.8190574E+00
   1.4793981E-04   5.1620380E+05   -1.8185250E+00
   1.4862301E-04   5.1189733E+05   -1.8179920E+00
   1.4930936E-04   5.0762803E+05   -1.8174583E+00
   1.4999889E-04   5.0339557E+05   -1.8169240E+00
   1.5069160E-04   4.9919964E+05   -1.8163889E+00
   1.5138751E-04   4.9503990E+05   -1.8158533E+00
   1.5208663E-04   4.9091603E+05   -1.8153170E+00
   1.5278899E-04   4.8682772E+05   -1.8147800E+00
   1.5349458E-04   4.8277466E+05   -1.8142424E+00
   1.5420343E-04   4.7875652E+05   -1.8137041E+00
   1.5491556E-04   4.7477301E+05   -1.8131652E+00
   1.5563098E-04   4.7082381E+05   -1.8126257E+00
   1.5634970E-04   4.6690862E+05   -1.8120856E+00
   1.5707174E-04   4.6302714E+05   -1.8115449E+00
   1.5779711E-04   4.5917907E+05   -1.8110035E+00
   1.5852584E-04   4.5536412E+05   -1.8104615E+00
   1.5925792E-04   4.5158199E+05   -1.8099189E+00
   1.5999339E-04   4.4783240E+05   -1.8093758E+00
   1.6073226E-04   4.4411505E+05   -1.8088320E+00
   1.6147454E-04   4.4042967E+05   -1.8082876E+00
   1.6222024E-04   4.3677596E+05   -1.8077427E+00
   1.6296939E-04   4.3315365E+05   -1.8071972E+00
   1.6372200E-04   4.2956246E+05   -1.8066510E+00
   1.6447809E-04   4.2600212E+05   -1.8061044E+00
   1.6523767E-04   4.2247235E+05   -1.8055571E+00
   1.6600075E-04   4.1897289E+05   -1.8050093E+00
   1.6676736E-04   4.1550346E+05   -1.8044610E+00
   1.6753751E-04   4.1206380E+05   -1.8039121E+00
   1.6831122E-04   4.0865365E+05   -1.8033626E+00
   1.6908849E-04   4.0527275E+05   -1.8028126E+00
   1.6986936E-04   4.0192084E+05   -1.8022621E+00
   1.7065384E-04   3.9859767E+05   -1.8017110E+00
   1.7144193E-04   3.9530297E+05   -1.8011594E+00
   1.7223367E-04   3.9203650E+05   -1.8006073E+00
   1.7302906E-04   3.8879802E+05   -1.8000547E+00
   1.7382813E-04   3.8558727E+05   -1.7995016E+00
   1.7463089E-04   3.8240401E+05   -1.7989479E+00
   1.7543735E-04   3.7924800E+05   -1.7983938E+00
   1.7624754E-04   3.7611899E+05   -1.7978392E+00
   1.7706147E-04   3.7301676E+05   -1.7972840E+00
   1.7787916E-04   3.6994106E+05   -1.7967284E+00
   1.7870062E-04   3.6689166E+05   -1.7961724E+00
   1.7952588E-04   3.6386832E+05   -1.7956158E+00
   1.8035495E-04   3.6087083E+05   -1.7950588E+00
   1.8118785E-04   3.5789895E+05   -1.7945013E+00
   1.8202459E-04   3.5495245E+05   -1.7939433E+00
   1.8286520E-04   3.5203112E+05   -1.7933849E+00
   1.8370969E-04   3.4913473E+05   -1.7928261E+00
   1.8455808E-04   3.4626307E+05   -1.7922668E+00
   1.8541039E-04   3.4341590E+05   -1.7917071E+00
   1.8626663E-04   3.4059303E+05   -1.7911469E+00
   1.8712683E-04   3.3779423E+05   -1.7905863E+00
   1.8799100E-04   3.3501930E+05   -1.7900253E+00
   1.8885917E-04   3.3226803E+05   -1.7894639E+00
   1.8973134E-04   3.2954020E+05   -1.7889021E+00
   1.9060754E-04   3.2683561E+05   -1.7883399E+00
   1.9148778E-04   3.2415405E+05   -1.7877772E+00
   1.9237209E-04   3.2149534E+05   -1.7872142E+00
   1.9326049E-04   3.1885925E+05   -1.7866508E+00
   1.9415299E-04   3.1624560E+05   -1.7860870E+00
   1.9504960E-04   3.1365419E+05   -1.7855229E+00
   1.9595036E-04   3.1108483E+05   -1.7849583E+00
   1.9685528E-04   3.0853732E+05   -1.7843935E+00
   1.9776438E-04   3.0601146E+05   -1.7838282E+00
   1.9867768E-04   3.0350707E+05   -1.7832626E+00
   1.9959519E-04   3.0102397E+05   -1.7826966E+00
   2.0051694E-04   2.9856195E+05   -1.7821304E+00
   2.0144295E-04   2.9612085E+05   -1.7815637E+00
   2.0237324E-04   2.9370047E+05   -1.7809968E+00
   2.0330782E-04   2.9130064E+05   -1.7804295E+00
   2.0424671E-04   2.8892117E+05   -1.7798619E+00
   2.0518995E-04   2.8656188E+05   -1.7792940E+00
   2.0613754E-04   2.8422261E+05   -1.7787257E+00
   2.0708950E-04   2.8190317E+05   -1.7781572E+00
   2.0804586E-04   2.7960339E+05   -1.7775884E+00
   2.0900664E-04   2.7732310E+05   -1.7770193E+00
   2.0997185E-04   2.7506213E+05   -1.7764499E+00
   2.1094152E-04   2.7282031E+05   -1.7758802E+00
   2.1191567E-04   2.7059747E+05   -1.7753103E+00
   2.1289432E-04   2.6839345E+05   -1.7747401E+00
   2.1387749E-04   2.6620807E+05   -1.7741696E+00
   2.1486520E-04   2.6404119E+05   -1.7735989E+00
   2.1585747E-04   2.6189263E+05   -1.7730279E+00
   2.1685432E-04   2.5976224E+05   -1.7724567E+00
   2.1785578E-04   2.5764986E+05   -1.7718853E+00
   2.1886186E-04   2.5555532E+05   -1.7713136E+00
   2.1987259E-04   2.5347849E+05   -1.7707417E+00
   2.2088798E-04   2.5141919E+05   -1.7701696E+00
   2.2190807E-04   2.4937728E+05   -1.7695972E+00
   2.2293286E-04   2.4735261E+05   -1.7690247E+00
   2.2396239E-04   2.4534502E+05   -1.7684519E+00
   2.2499667E-04   2.4335437E+05   -1.7678790E+00
   2.2603573E-04   2.4138051E+05   -1.7673058E+00
   2.2707958E-04   2.3942329E+05   -1.7667325E+00
   2.2812826E-04   2.3748256E+05   -1.7661590E+00
   2.2918178E-04   2.3555819E+05   -1.7655854E+00
   2.3024017E-04   2.3365004E+05   -1.7650116E+00
   2.3130344E-04   2.3175795E+05   -1.7644376E+00
   2.3237162E-04   2.2988179E+05   -1.7638634E+00
   2.3344474E-04   2.2802142E+05   -1.7632891E+00
   2.3452281E-04   2.2617671E+05   -1.7627147E+00
   2.3560586E-04   2.2434752E+05   -1.7621401E+00
   2.3669392E-04   2.2253371E+05   -1.7615655E+00
   2.3778699E-04   2.2073514E+05   -1.7609906E+00
   2.3888512E-04   2.1895170E+05   -1.7604157E+00
   2.3998831E-04   2.1718324E+05   -1.7598407E+00
   2.4109661E-04   2.1542963E+05   -1.7592655E+00
   2.4221001E-04   2.1369075E+05   -1.7586903E+00
   2.4332857E-04   2.1196646E+05   -1.7581149E+00
   2.4445228E-04   2.1025665E+05   -1.7575395E+00
   2.4558119E-04   2.0856118E+05   -1.7569640E+00
   2.4671531E-04   2.0687993E+05   -1.7563884E+00
   2.4785467E-04   2.0521278E+05   -1.7558128E+00
   2.4899928E-04   2.0355961E+05   -1.7552371E+00
   2.5014919E-04   2.0192028E+05   -1.7546613E+00
   2.5130440E-04   2.0029470E+05   -1.7540855E+00
   2.5246495E-04   1.9868272E+05   -1.7535096E+00
   2.5363086E-04   1.9708424E+05   -1.7529337E+00
   2.5480216E-04   1.9549914E+05   -1.7523578E+00
   2.5597886E-04   1.9392731E+05   -1.7517819E+00
   2.5716100E-04   1.9236862E+05   -1.7512059E+00
   2.5834859E-04   1.9082296E+05   -1.7506299E+00
   2.5954168E-04   1.8929023E+05   -1.7500539E+00
   2.6074027E-04   1.8777031E+05   -1.7494779E+00
   2.6194439E-04   1.8626308E+05   -1.7489019E+00
   2.6315408E-04   1.8476845E+05   -1.7483259E+00
   2.6436935E-04   1.8328629E+05   -1.7477500E+00
   2.6559024E-04   1.8181651E+05   -1.7471740E+00
   2.6681676E-04   1.8035899E+05   -1.7465981E+00
   2.6804895E-04   1.7891363E+05   -1.7460223E+00
   2.6928683E-04   1.7748032E+05   -1.7454464E+00
   2.7053042E-04   1.7605897E+05   -1.7448707E+00
   2.7177976E-04   1.7464946E+05   -1.7442949E+00
   2.7303487E-04   1.7325169E+05   -1.7437193E+00
   2.7429577E-04   1.7186557E+05   -1.7431437E+00
   2.7556250E-04   1.7049098E+05   -1.7425681E+00
   2.7683507E-04   1.6912784E+05   -1.7419927E+00
   2.7811353E-04   1.6777605E+05   -1.7414173E+00
   2.7939788E-04   1.6643550E+05   -1.7408420E+00
   2.8068817E-04   1.6510610E+05   -1.7402669E+00
   2.8198442E-04   1.6378775E+05   -1.7396918E+00
   2.8328665E-04   1.6248036E+05   -1.7391168E+00
   2.8459490E-04   1.6118383E+05   -1.7385420E+00
   2.8590919E-04   1.5989807E+05   -1.7379672E+00
   2.8722955E-04   1.5862298E+05   -1.7373926E+00
   2.8855600E-04   1.5735849E+05   -1.7368181E+00
   2.8988859E-04   1.5610448E+05   -1.7362438E+00
   2.9122732E-04   1.5486088E+05   -1.7356696E+00
   2.9257224E-04   1.5362759E+05   -1.7350956E+00
   2.9392337E-04   1.5240453E+05   -1.7345217E+00
   2.9528074E-04   1.5119160E+05   -1.7339480E+00
   2.9664438E-04   1.4998872E+05   -1.7333744E+00
   2.9801431E-04   1.4879581E+05   -1.7328011E+00
   2.9939057E-04   1.4761277E+05   -1.7322279E+00
   3.0077319E-04   1.4643953E+05   -1.7316549E+00
   3.0216219E-04   1.4527599E+05   -1.7310821E+00
   3.0355761E-04   1.4412208E+05   -1.7305095E+00
   3.0495947E-04   1.4297771E+05   -1.7299370E+00
   3.0636780E-04   1.4184281E+05   -1.7293648E+00
   3.0778264E-04   1.4071728E+05   -1.7287929E+00
   3.0920401E-04   1.3960105E+05   -1.7282211E+00
   3.1063195E-04   1.3849404E+05   -1.7276496E+00
   3.1206648E-04   1.3739617E+05   -1.7270783E+00
   3.1350764E-04   1.3630736E+05   -1.7265072E+00
   3.1495545E-04   1.3522754E+05   -1.7259364E+00
   3.1640994E-04   1.3415662E+05   -1.7253659E+00
   3.1787116E-04   1.3309454E+05   -1.7247956E+00
   3.1933912E-04   1.3204121E+05   -1.7242256E+00
   3.2081386E-04   1.3099655E+05   -1.7236558E+00
   3.2229541E-04   1.2996051E+05   -1.7230863E+00
   3.2378381E-04   1.2893300E+05   -1.7225171E+00
   3.2527908E-04   1.2791394E+05   -1.7219482E+00
   3.2678125E-04   1.2690328E+05   -1.7213796E+00
   3.2829036E-04   1.2590093E+05   -1.7208113E+00
   3.2980644E-04   1.2490682E+05   -1.7202433E+00
   3.3132952E-04   1.2392089E+05   -1.7196756E+00
   3.3285963E-04   1.2294306E+05   -1.7191082E+00
   3.3439681E-04   1.2197326E+05   -1.7185411E+00
   3.3594109E-04   1.2101143E+05   -1.7179744E+00
   3.3749250E-04   1.2005750E+05   -1.7174080E+00
   3.3905108E-04   1.1911140E+05   -1.7168419E+00
   3.4061685E-04   1.1817307E+05   -1.7162762E+00
   3.4218986E-04   1.1724243E+05   -1.7157108E+00
   3.4377013E-04   1.1631942E+05   -1.7151458E+00
   3.4535769E-04   1.1540398E+05   -1.7145812E+00
   3.4695259E-04   1.1449604E+05   -1.7140169E+00
   3.4855485E-04   1.1359554E+05   -1.7134530E+00
   3.5016452E-04   1.1270242E+05   -1.7128894E+00
   3.5178161E-04   1.1181660E+05   -1.7123263E+00
   3.5340618E-04   1.1093804E+05   -1.7117635E+00
   3.5503824E-04   1.1006667E+05   -1.7112012E+00
   3.5667785E-04   1.0920242E+05   -1.7106392E+00
   3.5832502E-04   1.0834524E+05   -1.7100777E+00
   3.5997981E-04   1.0749507E+05   -1.7095165E+00
   3.6164223E-04   1.0665184E+05   -1.7089558E+00
   3.6331233E-04   1.0581550E+05   -1.7083955E+00
   3.6499015E-04   1.0498599E+05   -1.7078357E+00
   3.6667571E-04   1.0416325E+05   -1.7072762E+00
   3.6836906E-04   1.0334723E+05   -1.7067172E+00
   3.7007022E-04   1.0253786E+05   -1.7061587E+00
   3.7177925E-04   1.0173509E+05   -1.7056006E+00
   3.7349616E-04   1.0093887E+05   -1.7050429E+00
   3.7522101E-04   1.0014913E+05   -1.7044858E+00
   3.7695382E-04   9.9365833E+04   -1.7039291E+00
   3.7869463E-04   9.8588911E+04   -1.7033728E+00
   3.8044348E-04   9.7818315E+04   -1.7028170E+00
   3.8220041E-04   9.7053991E+04   -1.7022618E+00
   3.8396545E-04   9.6295884E+04   -1.7017070E+00
   3.8573864E-04   9.5543944E+04   -1.7011527E+00
   3.8752002E-04   9.4798117E+04   -1.7005989E+00
   3.8930963E-04   9.4058352E+04   -1.7000456E+00
   3.9110750E-04   9.3324598E+04   -1.6994928E+00
   3.9291368E-04   9.2596803E+04   -1.6989405E+00
   3.9472820E-04   9.1874918E+04   -1.6983887E+00
   3.9655109E-04   9.1158892E+04   -1.6978375E+00
   3.9838241E-04   9.0448676E+04   -1.6972868E+00
   4.0022218E-04   8.9744221E+04   -1.6967366E+00
   4.0207045E-04   8.9045479E+04   -1.6961870E+00
   4.0392725E-04   8.8352400E+04   -1.6956379E+00
   4.0579263E-04   8.7664938E+04   -1.6950893E+00
   4.0766662E-04   8.6983045E+04   -1.6945414E+00
   4.0954927E-04   8.6306673E+04   -1.6939939E+00
   4.1144061E-04   8.5635776E+04   -1.6934471E+00
   4.1334068E-04   8.4970309E+04   -1.6929008E+00
   4.1524953E-04   8.4310225E+04   -1.6923551E+00
   4.1716720E-04   8.3655479E+04   -1.6918099E+00
   4.1909372E-04   8.3006026E+04   -1.6912654E+00
   4.2102914E-04   8.2361822E+04   -1.6907214E+00
   4.2297350E-04   8.1722822E+04   -1.6901780E+00
   4.2492683E-04   8.1088982E+04   -1.6896352E+00
   4.2688919E-04   8.0460260E+04   -1.6890931E+00
   4.2886061E-04   7.9836612E+04   -1.6885515E+00
   4.3084113E-04   7.9217995E+04   -1.6880105E+00
   4.3283080E-04   7.8604368E+04   -1.6874702E+00
   4.3482966E-04   7.7995687E+04   -1.6869305E+00
   4.3683775E-04   7.7391913E+04   -1.6863914E+00
   4.3885511E-04   7.6793003E+04   -1.6858529E+00
   4.4088179E-04   7.6198916E+04   -1.6853151E+00
   4.4291783E-04   7.5609613E+04   -1.6847779E+00
   4.4496327E-04   7.5025053E+04   -1.6842414E+00
   4.4701816E-04   7.4445196E+04   -1.6837055E+00
   4.4908253E-04   7.3870003E+04   -1.6831702E+00
   4.5115644E-04   7.3299435E+04   -1.6826357E+00
   4.5323993E-04   7.2733453E+04   -1.6821017E+00
   4.5533304E-04   7.2172019E+04   -1.6815685E+00
   4.5743582E-04   7.1615095E+04   -1.6810359E+00
   4.5954830E-04   7.1062642E+04   -1.6805040E+00
   4.6167054E-04   7.0514624E+04   -1.6799728E+00
   4.6380259E-04   6.9971003E+04   -1.6794422E+00
   4.6594448E-04   6.9431742E+04   -1.6789124E+00
   4.6809626E-04   6.8896806E+04   -1.6783832E+00
   4.7025797E-04   6.8366157E+04   -1.6778548E+00
   4.7242967E-04   6.7839761E+04   -1.6773270E+00
   4.7461140E-04   6.7317582E+04   -1.6768000E+00
   4.7680321E-04   6.6799583E+04   -1.6762736E+00
   4.7900514E-04   6.6285732E+04   -1.6757480E+00
   4.8121723E-04   6.5775992E+04   -1.6752231E+00
   4.8343954E-04   6.5270330E+04   -1.6746989E+00
   4.8567212E-04   6.4768712E+04   -1.6741754E+00
   4.8791500E-04   6.4271104E+04   -1.6736527E+00
   4.9016825E-04   6.3777472E+04   -1.6731307E+00
   4.9243189E-04   6.3287784E+04   -1.6726094E+00
   4.9470600E-04   6.2802006E+04   -1.6720889E+00
   4.9699060E-04   6.2320107E+04   -1.6715691E+00
   4.9928575E-04   6.1842053E+04   -1.6710501E+00
   5.0159151E-04   6.1367812E+04   -1.6705318E+00
   5.0390791E-04   6.0897354E+04   -1.6700143E+00
   5.0623501E-04   6.0430647E+04   -1.6694976E+00
   5.0857286E-04   5.9967659E+04   -1.6689816E+00
   5.1092150E-04   5.9508359E+04   -1.6684663E+00
   5.1328099E-04   5.9052718E+04   -1.6679519E+00
   5.1565137E-04   5.8600704E+04   -1.6674382E+00
   5.1803270E-04   5.8152287E+04   -1.6669253E+00
   5.2042503E-04   5.7707438E+04   -1.6664132E+00
   5.2282841E-04   5.7266127E+04   -1.6659019E+00
   5.2524289E-04   5.6828325E+04   -1.6653914E+00
   5.2766851E-04   5.6394002E+04   -1.6648817E+00
   5.3010534E-04   5.5963130E+04   -1.6643727E+00
   5.3255342E-04   5.5535680E+04   -1.6638646E+00
   5.3501281E-04   5.5111624E+04   -1.6633573E+00
   5.3748356E-04   5.4690933E+04   -1.6628507E+00
   5.3996571E-04   5.4273581E+04   -1.6623450E+00
   5.4245933E-04   5.3859538E+04   -1.6618401E+00
   5.4496446E-04   5.3448779E+04   -1.6613361E+00
   5.4748117E-04   5.3041275E+04   -1.6608328E+00
   5.5000949E-04   5.2637001E+04   -1.6603304E+00
   5.5254949E-04   5.2235928E+04   -1.6598288E+00
   5.5510123E-04   5.1838031E+04   -1.6593280E+00
   5.5766474E-04   5.1443284E+04   -1.6588281E+00
   5.6024010E-04   5.1051660E+04   -1.6583290E+00
   5.6282734E-04   5.0663133E+04   -1.6578307E+00
   5.6542654E-04   5.0277679E+04   -1.6573333E+00
   5.6803774E-04   4.9895272E+04   -1.6568368E+00
   5.7066099E-04   4.9515887E+04   -1.6563411E+00
   5.7329637E-04   4.9139498E+04   -1.6558462E+00
   5.7594391E-04   4.8766082E+04   -1.6553522E+00
   5.7860368E-04   4.8395613E+04   -1.6548591E+00
   5.8127573E-04   4.8028068E+04   -1.6543668E+00
   5.8396012E-04   4.7663422E+04   -1.6538754E+00
   5.8665691E-04   4.7301651E+04   -1.6533849E+00
   5.8936616E-04   4.6942733E+04   -1.6528952E+00
   5.9208791E-04   4.6586643E+04   -1.6524064E+00
   5.9482223E-04   4.6233358E+04   -1.6519185E+00
   5.9756919E-04   4.5882855E+04   -1.6514314E+00
   6.0032882E-04   4.5535112E+04   -1.6509453E+00
   6.0310120E-04   4.5190105E+04   -1.6504600E+00
   6.0588639E-04   4.4847812E+04   -1.6499756E+00
   6.0868443E-04   4.4508211E+04   -1.6494921E+00
   6.1149540E-04   4.4171281E+04   -1.6490096E+00
   6.1431935E-04   4.3836998E+04   -1.6485279E+00
   6.1715634E-04   4.3505341E+04   -1.6480471E+00
   6.2000644E-04   4.3176290E+04   -1.6475672E+00
   6.2286969E-04   4.2849821E+04   -1.6470882E+00
