#        a       HoverH0(a)       dlogHdloga_of_a(a)
   1.0000000E-04   1.1128513E+06   -1.8595803E+00
   1.0046181E-04   1.1033584E+06   -1.8591145E+00
   1.0092575E-04   1.0939487E+06   -1.8586478E+00
   1.0139184E-04   1.0846217E+06   -1.8581802E+00
   1.0186008E-04   1.0753765E+06   -1.8577116E+00
   1.0233048E-04   1.0662124E+06   -1.8572421E+00
   1.0280305E-04   1.0571287E+06   -1.8567716E+00
   1.0327781E-04   1.0481246E+06   -1.8563003E+00
   1.0375475E-04   1.0391995E+06   -1.8558280E+00
   1.0423390E-04   1.0303527E+06   -1.8553548E+00
   1.0471527E-04   1.0215834E+06   -1.8548807E+00
   1.0519885E-04   1.0128909E+06   -1.8544056E+00
   1.0568467E-04   1.0042746E+06   -1.8539297E+00
   1.0617274E-04   9.9573377E+05   -1.8534528E+00
   1.0666305E-04   9.8726776E+05   -1.8529750E+00
   1.0715563E-04   9.7887589E+05   -1.8524963E+00
   1.0765049E-04   9.7055749E+05   -1.8520167E+00
   1.0814763E-04   9.6231191E+05   -1.8515362E+00
   1.0864707E-04   9.5413849E+05   -1.8510548E+00
   1.0914881E-04   9.4603660E+05   -1.8505726E+00
   1.0965287E-04   9.3800558E+05   -1.8500894E+00
   1.1015926E-04   9.3004482E+05   -1.8496053E+00
   1.1066799E-04   9.2215368E+05   -1.8491203E+00
   1.1117906E-04   9.1433153E+05   -1.8486345E+00
   1.1169250E-04   9.0657777E+05   -1.8481477E+00
   1.1220831E-04   8.9889178E+05   -1.8476601E+00
   1.1272650E-04   8.9127295E+05   -1.8471716E+00
   1.1324708E-04   8.8372069E+05   -1.8466822E+00
   1.1377007E-04   8.7623441E+05   -1.8461920E+00
   1.1429547E-04   8.6881351E+05   -1.8457008E+00
   1.1482330E-04   8.6145741E+05   -1.8452089E+00
   1.1535356E-04   8.5416553E+05   -1.8447160E+00
   1.1588628E-04   8.4693729E+05   -1.8442223E+00
   1.1642145E-04   8.3977214E+05   -1.8437277E+00
   1.1695910E-04   8.3266950E+05   -1.8432323E+00
   1.1749923E-04   8.2562882E+05   -1.8427360E+00
   1.1804185E-04   8.1864955E+05   -1.8422389E+00
   1.1858698E-04   8.1173113E+05   -1.8417409E+00
   1.1913463E-04   8.0487303E+05   -1.8412421E+00
   1.1968481E-04   7.9807471E+05   -1.8407424E+00
   1.2023752E-04   7.9133563E+05   -1.8402420E+00
   1.2079279E-04   7.8465528E+05   -1.8397406E+00
   1.2135063E-04   7.7803311E+05   -1.8392385E+00
   1.2191104E-04   7.7146862E+05   -1.8387355E+00
   1.2247403E-04   7.6496129E+05   -1.8382317E+00
   1.2303963E-04   7.5851062E+05   -1.8377271E+00
   1.2360784E-04   7.5211608E+05   -1.8372216E+00
   1.2417868E-04   7.4577720E+05   -1.8367154E+00
   1.2475215E-04   7.3949346E+05   -1.8362083E+00
   1.2532826E-04   7.3326439E+05   -1.8357004E+00
   1.2590704E-04   7.2708949E+05   -1.8351918E+00
   1.2648850E-04   7.2096827E+05   -1.8346823E+00
   1.2707263E-04   7.1490027E+05   -1.8341720E+00
   1.2765947E-04   7.0888501E+05   -1.8336609E+00
   1.2824901E-04   7.0292203E+05   -1.8331491E+00
   1.2884128E-04   6.9701084E+05   -1.8326365E+00
   1.2943628E-04   6.9115100E+05   -1.8321230E+00
   1.3003403E-04   6.8534205E+05   -1.8316088E+00
   1.3063454E-04   6.7958352E+05   -1.8310939E+00
   1.3123783E-04   6.7387499E+05   -1.8305781E+00
   1.3184390E-04   6.6821599E+05   -1.8300616E+00
   1.3245277E-04   6.6260610E+05   -1.8295444E+00
   1.3306445E-04   6.5704487E+05   -1.8290263E+00
   1.3367895E-04   6.5153187E+05   -1.8285076E+00
   1.3429630E-04   6.4606667E+05   -1.8279880E+00
   1.3491649E-04   6.4064885E+05   -1.8274677E+00
   1.3553955E-04   6.3527799E+05   -1.8269467E+00
   1.3616548E-04   6.2995367E+05   -1.8264249E+00
   1.3679431E-04   6.2467548E+05   -1.8259024E+00
   1.3742604E-04   6.1944300E+05   -1.8253792E+00
   1.3806069E-04   6.1425583E+05   -1.8248553E+00
   1.3869827E-04   6.0911358E+05   -1.8243306E+00
   1.3933879E-04   6.0401583E+05   -1.8238052E+00
   1.3998227E-04   5.9896219E+05   -1.8232790E+00
   1.4062872E-04   5.9395228E+05   -1.8227522E+00
   1.4127816E-04   5.8898570E+05   -1.8222247E+00
   1.4193060E-04   5.8406208E+05   -1.8216964E+00
   1.4258605E-04   5.7918102E+05   -1.8211675E+00
   1.4324453E-04   5.7434216E+05   -1.8206379E+00
   1.4390605E-04   5.6954511E+05   -1.8201076E+00
   1.4457062E-04   5.6478951E+05   -1.8195765E+00
   1.4523826E-04   5.6007499E+05   -1.8190449E+00
   1.4590899E-04   5.5540119E+05   -1.8185125E+00
   1.4658281E-04   5.5076774E+05   -1.8179794E+00
   1.4725974E-04   5.4617429E+05   -1.8174457E+00
   1.4793981E-04   5.4162048E+05   -1.8169114E+00
   1.4862301E-04   5.3710596E+05   -1.8163763E+00
   1.4930936E-04   5.3263038E+05   -1.8158406E+00
   1.4999889E-04   5.2819341E+05   -1.8153043E+00
   1.5069160E-04   5.2379468E+05   -1.8147673E+00
   1.5138751E-04   5.1943388E+05   -1.8142297E+00
   1.5208663E-04   5.1511066E+05   -1.8136914E+00
   1.5278899E-04   5.1082469E+05   -1.8131525E+00
   1.5349458E-04   5.0657564E+05   -1.8126130E+00
   1.5420343E-04   5.0236318E+05   -1.8120729E+00
   1.5491556E-04   4.9818699E+05   -1.8115321E+00
   1.5563098E-04   4.9404675E+05   -1.8109907E+00
   1.5634970E-04   4.8994214E+05   -1.8104487E+00
   1.5707174E-04   4.8587285E+05   -1.8099062E+00
   1.5779711E-04   4.8183856E+05   -1.8093630E+00
   1.5852584E-04   4.7783896E+05   -1.8088192E+00
   1.5925792E-04   4.7387376E+05   -1.8082748E+00
   1.5999339E-04   4.6994263E+05   -1.8077298E+00
   1.6073226E-04   4.6604529E+05   -1.8071843E+00
   1.6147454E-04   4.6218143E+05   -1.8066382E+00
   1.6222024E-04   4.5835075E+05   -1.8060915E+00
   1.6296939E-04   4.5455298E+05   -1.8055442E+00
   1.6372200E-04   4.5078781E+05   -1.8049964E+00
   1.6447809E-04   4.4705496E+05   -1.8044481E+00
   1.6523767E-04   4.4335413E+05   -1.8038991E+00
   1.6600075E-04   4.3968506E+05   -1.8033497E+00
   1.6676736E-04   4.3604745E+05   -1.8027997E+00
   1.6753751E-04   4.3244104E+05   -1.8022491E+00
   1.6831122E-04   4.2886554E+05   -1.8016981E+00
   1.6908849E-04   4.2532069E+05   -1.8011465E+00
   1.6986936E-04   4.2180620E+05   -1.8005943E+00
   1.7065384E-04   4.1832183E+05   -1.8000417E+00
   1.7144193E-04   4.1486729E+05   -1.7994886E+00
   1.7223367E-04   4.1144233E+05   -1.7989349E+00
   1.7302906E-04   4.0804668E+05   -1.7983808E+00
   1.7382813E-04   4.0468010E+05   -1.7978261E+00
   1.7463089E-04   4.0134232E+05   -1.7972710E+00
   1.7543735E-04   3.9803308E+05   -1.7967154E+00
   1.7624754E-04   3.9475214E+05   -1.7961593E+00
   1.7706147E-04   3.9149925E+05   -1.7956027E+00
   1.7787916E-04   3.8827417E+05   -1.7950457E+00
   1.7870062E-04   3.8507663E+05   -1.7944882E+00
   1.7952588E-04   3.8190641E+05   -1.7939302E+00
   1.8035495E-04   3.7876327E+05   -1.7933718E+00
   1.8118785E-04   3.7564696E+05   -1.7928129E+00
   1.8202459E-04   3.7255725E+05   -1.7922536E+00
   1.8286520E-04   3.6949390E+05   -1.7916939E+00
   1.8370969E-04   3.6645669E+05   -1.7911337E+00
   1.8455808E-04   3.6344538E+05   -1.7905732E+00
   1.8541039E-04   3.6045975E+05   -1.7900122E+00
   1.8626663E-04   3.5749957E+05   -1.7894507E+00
   1.8712683E-04   3.5456462E+05   -1.7888889E+00
   1.8799100E-04   3.5165467E+05   -1.7883267E+00
   1.8885917E-04   3.4876951E+05   -1.7877640E+00
   1.8973134E-04   3.4590892E+05   -1.7872010E+00
   1.9060754E-04   3.4307268E+05   -1.7866376E+00
   1.9148778E-04   3.4026058E+05   -1.7860738E+00
   1.9237209E-04   3.3747240E+05   -1.7855096E+00
   1.9326049E-04   3.3470795E+05   -1.7849451E+00
   1.9415299E-04   3.3196700E+05   -1.7843802E+00
   1.9504960E-04   3.2924935E+05   -1.7838149E+00
   1.9595036E-04   3.2655481E+05   -1.7832493E+00
   1.9685528E-04   3.2388316E+05   -1.7826834E+00
   1.9776438E-04   3.2123421E+05   -1.7821171E+00
   1.9867768E-04   3.1860775E+05   -1.7815504E+00
   1.9959519E-04   3.1600359E+05   -1.7809835E+00
   2.0051694E-04   3.1342154E+05   -1.7804162E+00
   2.0144295E-04   3.1086139E+05   -1.7798486E+00
   2.0237324E-04   3.0832297E+05   -1.7792806E+00
   2.0330782E-04   3.0580607E+05   -1.7787124E+00
   2.0424671E-04   3.0331052E+05   -1.7781439E+00
   2.0518995E-04   3.0083612E+05   -1.7775751E+00
   2.0613754E-04   2.9838268E+05   -1.7770060E+00
   2.0708950E-04   2.9595003E+05   -1.7764366E+00
   2.0804586E-04   2.9353799E+05   -1.7758669E+00
   2.0900664E-04   2.9114637E+05   -1.7752969E+00
   2.0997185E-04   2.8877499E+05   -1.7747267E+00
   2.1094152E-04   2.8642368E+05   -1.7741563E+00
   2.1191567E-04   2.8409226E+05   -1.7735855E+00
   2.1289432E-04   2.8178056E+05   -1.7730145E+00
   2.1387749E-04   2.7948840E+05   -1.7724433E+00
   2.1486520E-04   2.7721563E+05   -1.7718719E+00
   2.1585747E-04   2.7496205E+05   -1.7713002E+00
   2.1685432E-04   2.7272752E+05   -1.7707283E+00
   2.1785578E-04   2.7051186E+05   -1.7701562E+00
   2.1886186E-04   2.6831490E+05   -1.7695838E+00
   2.1987259E-04   2.6613649E+05   -1.7690113E+00
   2.2088798E-04   2.6397647E+05   -1.7684385E+00
   2.2190807E-04   2.6183466E+05   -1.7678656E+00
   2.2293286E-04   2.5971092E+05   -1.7672924E+00
   2.2396239E-04   2.5760508E+05   -1.7667191E+00
   2.2499667E-04   2.5551700E+05   -1.7661456E+00
   2.2603573E-04   2.5344651E+05   -1.7655720E+00
   2.2707958E-04   2.5139346E+05   -1.7649981E+00
   2.2812826E-04   2.4935770E+05   -1.7644241E+00
   2.2918178E-04   2.4733909E+05   -1.7638500E+00
   2.3024017E-04   2.4533746E+05   -1.7632757E+00
   2.3130344E-04   2.4335267E+05   -1.7627013E+00
   2.3237162E-04   2.4138458E+05   -1.7621267E+00
   2.3344474E-04   2.3943304E+05   -1.7615520E+00
   2.3452281E-04   2.3749791E+05   -1.7609772E+00
   2.3560586E-04   2.3557904E+05   -1.7604023E+00
   2.3669392E-04   2.3367630E+05   -1.7598272E+00
   2.3778699E-04   2.3178954E+05   -1.7592521E+00
   2.3888512E-04   2.2991862E+05   -1.7586768E+00
   2.3998831E-04   2.2806340E+05   -1.7581015E+00
   2.4109661E-04   2.2622376E+05   -1.7575261E+00
   2.4221001E-04   2.2439955E+05   -1.7569506E+00
   2.4332857E-04   2.2259064E+05   -1.7563750E+00
   2.4445228E-04   2.2079690E+05   -1.7557993E+00
   2.4558119E-04   2.1901819E+05   -1.7552236E+00
   2.4671531E-04   2.1725439E+05   -1.7546479E+00
   2.4785467E-04   2.1550536E+05   -1.7540720E+00
   2.4899928E-04   2.1377099E+05   -1.7534962E+00
   2.5014919E-04   2.1205113E+05   -1.7529203E+00
   2.5130440E-04   2.1034567E+05   -1.7523444E+00
   2.5246495E-04   2.0865448E+05   -1.7517684E+00
   2.5363086E-04   2.0697743E+05   -1.7511924E+00
   2.5480216E-04   2.0531441E+05   -1.7506165E+00
   2.5597886E-04   2.0366529E+05   -1.7500405E+00
   2.5716100E-04   2.0202996E+05   -1.7494645E+00
   2.5834859E-04   2.0040828E+05   -1.7488885E+00
   2.5954168E-04   1.9880015E+05   -1.7483125E+00
   2.6074027E-04   1.9720545E+05   -1.7477366E+00
   2.6194439E-04   1.9562406E+05   -1.7471606E+00
   2.6315408E-04   1.9405587E+05   -1.7465847E+00
   2.6436935E-04   1.9250075E+05   -1.7460088E+00
   2.6559024E-04   1.9095861E+05   -1.7454330E+00
   2.6681676E-04   1.8942933E+05   -1.7448572E+00
   2.6804895E-04   1.8791278E+05   -1.7442815E+00
   2.6928683E-04   1.8640888E+05   -1.7437058E+00
   2.7053042E-04   1.8491750E+05   -1.7431302E+00
   2.7177976E-04   1.8343854E+05   -1.7425547E+00
   2.7303487E-04   1.8197189E+05   -1.7419793E+00
   2.7429577E-04   1.8051745E+05   -1.7414039E+00
   2.7556250E-04   1.7907510E+05   -1.7408286E+00
   2.7683507E-04   1.7764475E+05   -1.7402535E+00
   2.7811353E-04   1.7622630E+05   -1.7396784E+00
   2.7939788E-04   1.7481963E+05   -1.7391034E+00
   2.8068817E-04   1.7342465E+05   -1.7385286E+00
   2.8198442E-04   1.7204125E+05   -1.7379539E+00
   2.8328665E-04   1.7066935E+05   -1.7373793E+00
   2.8459490E-04   1.6930883E+05   -1.7368048E+00
   2.8590919E-04   1.6795960E+05   -1.7362305E+00
   2.8722955E-04   1.6662157E+05   -1.7356563E+00
   2.8855600E-04   1.6529463E+05   -1.7350822E+00
   2.8988859E-04   1.6397869E+05   -1.7345084E+00
   2.9122732E-04   1.6267366E+05   -1.7339347E+00
   2.9257224E-04   1.6137944E+05   -1.7333611E+00
   2.9392337E-04   1.6009594E+05   -1.7327878E+00
   2.9528074E-04   1.5882307E+05   -1.7322146E+00
   2.9664438E-04   1.5756073E+05   -1.7316416E+00
   2.9801431E-04   1.5630884E+05   -1.7310688E+00
   2.9939057E-04   1.5506731E+05   -1.7304962E+00
   3.0077319E-04   1.5383604E+05   -1.7299238E+00
   3.0216219E-04   1.5261496E+05   -1.7293516E+00
   3.0355761E-04   1.5140396E+05   -1.7287796E+00
   3.0495947E-04   1.5020297E+05   -1.7282079E+00
   3.0636780E-04   1.4901190E+05   -1.7276363E+00
   3.0778264E-04   1.4783066E+05   -1.7270651E+00
   3.0920401E-04   1.4665917E+05   -1.7264940E+00
   3.1063195E-04   1.4549735E+05   -1.7259232E+00
   3.1206648E-04   1.4434511E+05   -1.7253527E+00
   3.1350764E-04   1.4320238E+05   -1.7247824E+00
   3.1495545E-04   1.4206906E+05   -1.7242124E+00
   3.1640994E-04   1.4094508E+05   -1.7236426E+00
   3.1787116E-04   1.3983036E+05   -1.7230731E+00
   3.1933912E-04   1.3872482E+05   -1.7225040E+00
   3.2081386E-04   1.3762839E+05   -1.7219350E+00
   3.2229541E-04   1.3654097E+05   -1.7213664E+00
   3.2378381E-04   1.3546251E+05   -1.7207981E+00
   3.2527908E-04   1.3439291E+05   -1.7202301E+00
   3.2678125E-04   1.3333211E+05   -1.7196624E+00
   3.2829036E-04   1.3228003E+05   -1.7190950E+00
   3.2980644E-04   1.3123659E+05   -1.7185280E+00
   3.3132952E-04   1.3020172E+05   -1.7179613E+00
   3.3285963E-04   1.2917535E+05   -1.7173949E+00
   3.3439681E-04   1.2815740E+05   -1.7168288E+00
   3.3594109E-04   1.2714781E+05   -1.7162631E+00
   3.3749250E-04   1.2614650E+05   -1.7156978E+00
   3.3905108E-04   1.2515341E+05   -1.7151328E+00
   3.4061685E-04   1.2416845E+05   -1.7145681E+00
   3.4218986E-04   1.2319156E+05   -1.7140038E+00
   3.4377013E-04   1.2222268E+05   -1.7134399E+00
   3.4535769E-04   1.2126174E+05   -1.7128764E+00
   3.4695259E-04   1.2030866E+05   -1.7123133E+00
   3.4855485E-04   1.1936338E+05   -1.7117506E+00
   3.5016452E-04   1.1842583E+05   -1.7111882E+00
   3.5178161E-04   1.1749596E+05   -1.7106263E+00
   3.5340618E-04   1.1657368E+05   -1.7100647E+00
   3.5503824E-04   1.1565895E+05   -1.7095036E+00
   3.5667785E-04   1.1475169E+05   -1.7089429E+00
   3.5832502E-04   1.1385184E+05   -1.7083826E+00
   3.5997981E-04   1.1295934E+05   -1.7078228E+00
   3.6164223E-04   1.1207412E+05   -1.7072633E+00
   3.6331233E-04   1.1119613E+05   -1.7067044E+00
   3.6499015E-04   1.1032530E+05   -1.7061458E+00
   3.6667571E-04   1.0946157E+05   -1.7055877E+00
   3.6836906E-04   1.0860488E+05   -1.7050301E+00
   3.7007022E-04   1.0775517E+05   -1.7044729E+00
   3.7177925E-04   1.0691239E+05   -1.7039162E+00
   3.7349616E-04   1.0607647E+05   -1.7033600E+00
   3.7522101E-04   1.0524736E+05   -1.7028043E+00
   3.7695382E-04   1.0442499E+05   -1.7022490E+00
   3.7869463E-04   1.0360931E+05   -1.7016942E+00
   3.8044348E-04   1.0280027E+05   -1.7011399E+00
   3.8220041E-04   1.0199781E+05   -1.7005861E+00
   3.8396545E-04   1.0120186E+05   -1.7000329E+00
   3.8573864E-04   1.0041239E+05   -1.6994801E+00
   3.8752002E-04   9.9629325E+04   -1.6989278E+00
   3.8930963E-04   9.8852620E+04   -1.6983761E+00
   3.9110750E-04   9.8082219E+04   -1.6978248E+00
   3.9291368E-04   9.7318070E+04   -1.6972742E+00
   3.9472820E-04   9.6560118E+04   -1.6967240E+00
   3.9655109E-04   9.5808313E+04   -1.6961744E+00
   3.9838241E-04   9.5062602E+04   -1.6956253E+00
   4.0022218E-04   9.4322933E+04   -1.6950768E+00
   4.0207045E-04   9.3589256E+04   -1.6945288E+00
   4.0392725E-04   9.2861521E+04   -1.6939814E+00
   4.0579263E-04   9.2139676E+04   -1.6934346E+00
   4.0766662E-04   9.1423673E+04   -1.6928883E+00
   4.0954927E-04   9.0713462E+04   -1.6923426E+00
   4.1144061E-04   9.0008994E+04   -1.6917974E+00
   4.1334068E-04   8.9310222E+04   -1.6912529E+00
   4.1524953E-04   8.8617096E+04   -1.6907089E+00
   4.1716720E-04   8.7929570E+04   -1.6901656E+00
   4.1909372E-04   8.7247596E+04   -1.6896228E+00
   4.2102914E-04   8.6571128E+04   -1.6890807E+00
   4.2297350E-04   8.5900119E+04   -1.6885391E+00
   4.2492683E-04   8.5234524E+04   -1.6879982E+00
   4.2688919E-04   8.4574296E+04   -1.6874579E+00
   4.2886061E-04   8.3919392E+04   -1.6869182E+00
   4.3084113E-04   8.3269766E+04   -1.6863791E+00
   4.3283080E-04   8.2625374E+04   -1.6858406E+00
   4.3482966E-04   8.1986172E+04   -1.6853028E+00
   4.3683775E-04   8.1352117E+04   -1.6847657E+00
   4.3885511E-04   8.0723164E+04   -1.6842291E+00
   4.4088179E-04   8.0099272E+04   -1.6836933E+00
   4.4291783E-04   7.9480398E+04   -1.6831580E+00
   4.4496327E-04   7.8866500E+04   -1.6826235E+00
   4.4701816E-04   7.8257536E+04   -1.6820896E+00
   4.4908253E-04   7.7653466E+04   -1.6815564E+00
   4.5115644E-04   7.7054247E+04   -1.6810238E+00
   4.5323993E-04   7.6459840E+04   -1.6804919E+00
   4.5533304E-04   7.5870204E+04   -1.6799607E+00
   4.5743582E-04   7.5285299E+04   -1.6794302E+00
   4.5954830E-04   7.4705086E+04   -1.6789004E+00
   4.6167054E-04   7.4129525E+04   -1.6783712E+00
   4.6380259E-04   7.3558578E+04   -1.6778428E+00
   4.6594448E-04   7.2992206E+04   -1.6773150E+00
   4.6809626E-04   7.2430371E+04   -1.6767880E+00
   4.7025797E-04   7.1873035E+04   -1.6762617E+00
   4.7242967E-04   7.1320160E+04   -1.6757361E+00
   4.7461140E-04   7.0771709E+04   -1.6752112E+00
   4.7680321E-04   7.0227646E+04   -1.6746870E+00
   4.7900514E-04   6.9687933E+04   -1.6741636E+00
   4.8121723E-04   6.9152535E+04   -1.6736408E+00
   4.8343954E-04   6.8621415E+04   -1.6731189E+00
   4.8567212E-04   6.8094539E+04   -1.6725976E+00
   4.8791500E-04   6.7571870E+04   -1.6720771E+00
   4.9016825E-04   6.7053373E+04   -1.6715574E+00
   4.9243189E-04   6.6539014E+04   -1.6710384E+00
   4.9470600E-04   6.6028758E+04   -1.6705201E+00
   4.9699060E-04   6.5522572E+04   -1.6700026E+00
   4.9928575E-04   6.5020421E+04   -1.6694859E+00
   5.0159151E-04   6.4522272E+04   -1.6689699E+00
   5.0390791E-04   6.4028092E+04   -1.6684547E+00
   5.0623501E-04   6.3537847E+04   -1.6679403E+00
   5.0857286E-04   6.3051505E+04   -1.6674267E+00
   5.1092150E-04   6.2569034E+04   -1.6669138E+00
   5.1328099E-04   6.2090401E+04   -1.6664017E+00
   5.1565137E-04   6.1615575E+04   -1.6658904E+00
   5.1803270E-04   6.1144525E+04   -1.6653799E+00
   5.2042503E-04   6.0677218E+04   -1.6648702E+00
   5.2282841E-04   6.0213623E+04   -1.6643613E+00
   5.2524289E-04   5.9753711E+04   -1.6638532E+00
   5.2766851E-04   5.9297450E+04   -1.6633459E+00
   5.3010534E-04   5.8844811E+04   -1.6628394E+00
   5.3255342E-04   5.8395762E+04   -1.6623337E+00
   5.3501281E-04   5.7950276E+04   -1.6618288E+00
   5.3748356E-04   5.7508321E+04   -1.6613248E+00
   5.3996571E-04   5.7069870E+04   -1.6608215E+00
   5.4245933E-04   5.6634892E+04   -1.6603191E+00
   5.4496446E-04   5.6203360E+04   -1.6598176E+00
   5.4748117E-04   5.5775245E+04   -1.6593168E+00
   5.5000949E-04   5.5350519E+04   -1.6588169E+00
   5.5254949E-04   5.4929153E+04   -1.6583178E+00
   5.5510123E-04   5.4511120E+04   -1.6578196E+00
   5.5766474E-04   5.4096393E+04   -1.6573222E+00
   5.6024010E-04   5.3684944E+04   -1.6568257E+00
   5.6282734E-04   5.3276746E+04   -1.6563300E+00
   5.6542654E-04   5.2871772E+04   -1.6558352E+00
   5.6803774E-04   5.2469996E+04   -1.6553412E+00
   5.7066099E-04   5.2071392E+04   -1.6548481E+00
   5.7329637E-04   5.1675933E+04   -1.6543558E+00
   5.7594391E-04   5.1283594E+04   -1.6538644E+00
   5.7860368E-04   5.0894349E+04   -1.6533739E+00
   5.8127573E-04   5.0508172E+04   -1.6528843E+00
   5.8396012E-04   5.0125038E+04   -1.6523955E+00
   5.8665691E-04   4.9744923E+04   -1.6519076E+00
   5.8936616E-04   4.9367801E+04   -1.6514206E+00
   5.9208791E-04   4.8993648E+04   -1.6509345E+00
   5.9482223E-04   4.8622439E+04   -1.6504492E+00
   5.9756919E-04   4.8254150E+04   -1.6499649E+00
   6.0032882E-04   4.7888758E+04   -1.6494814E+00
   6.0310120E-04   4.7526239E+04   -1.6489988E+00
   6.0588639E-04   4.7166568E+04   -1.6485172E+00
   6.0868443E-04   4.6809724E+04   -1.6480364E+00
   6.1149540E-04   4.6455681E+04   -1.6475565E+00
   6.1431935E-04   4.6104419E+04   -1.6470776E+00
   6.1715634E-04   4.5755913E+04   -1.6465995E+00
   6.2000644E-04   4.5410142E+04   -1.6461223E+00
   6.2286969E-04   4.5067083E+04   -1.6456461E+00
