#        a       HoverH0(a)       dlogHdloga_of_a(a)
   1.0000000E-04   1.1259628E+06   -1.8996953E+00
   1.0046181E-04   1.1161514E+06   -1.8993254E+00
   1.0092575E-04   1.1064275E+06   -1.8989544E+00
   1.0139184E-04   1.0967901E+06   -1.8985824E+00
   1.0186008E-04   1.0872385E+06   -1.8982094E+00
   1.0233048E-04   1.0777720E+06   -1.8978353E+00
   1.0280305E-04   1.0683897E+06   -1.8974602E+00
   1.0327781E-04   1.0590909E+06   -1.8970842E+00
   1.0375475E-04   1.0498749E+06   -1.8967071E+00
   1.0423390E-04   1.0407409E+06   -1.8963289E+00
   1.0471527E-04   1.0316881E+06   -1.8959498E+00
   1.0519885E-04   1.0227159E+06   -1.8955696E+00
   1.0568467E-04   1.0138235E+06   -1.8951884E+00
   1.0617274E-04   1.0050102E+06   -1.8948062E+00
   1.0666305E-04   9.9627528E+05   -1.8944230E+00
   1.0715563E-04   9.8761800E+05   -1.8940387E+00
   1.0765049E-04   9.7903769E+05   -1.8936534E+00
   1.0814763E-04   9.7053364E+05   -1.8932671E+00
   1.0864707E-04   9.6210518E+05   -1.8928798E+00
   1.0914881E-04   9.5375162E+05   -1.8924915E+00
   1.0965287E-04   9.4547229E+05   -1.8921021E+00
   1.1015926E-04   9.3726650E+05   -1.8917117E+00
   1.1066799E-04   9.2913361E+05   -1.8913203E+00
   1.1117906E-04   9.2107295E+05   -1.8909279E+00
   1.1169250E-04   9.1308388E+05   -1.8905345E+00
   1.1220831E-04   9.0516574E+05   -1.8901400E+00
   1.1272650E-04   8.9731790E+05   -1.8897445E+00
   1.1324708E-04   8.8953973E+05   -1.8893480E+00
   1.1377007E-04   8.8183059E+05   -1.8889505E+00
   1.1429547E-04   8.7418987E+05   -1.8885519E+00
   1.1482330E-04   8.6661695E+05   -1.8881523E+00
   1.1535356E-04   8.5911121E+05   -1.8877518E+00
   1.1588628E-04   8.5167205E+05   -1.8873502E+00
   1.1642145E-04   8.4429887E+05   -1.8869475E+00
   1.1695910E-04   8.3699108E+05   -1.8865439E+00
   1.1749923E-04   8.2974808E+05   -1.8861392E+00
   1.1804185E-04   8.2256930E+05   -1.8857336E+00
   1.1858698E-04   8.1545416E+05   -1.8853269E+00
   1.1913463E-04   8.0840207E+05   -1.8849192E+00
   1.1968481E-04   8.0141248E+05   -1.8845105E+00
   1.2023752E-04   7.9448482E+05   -1.8841007E+00
   1.2079279E-04   7.8761854E+05   -1.8836900E+00
   1.2135063E-04   7.8081308E+05   -1.8832782E+00
   1.2191104E-04   7.7406789E+05   -1.8828654E+00
   1.2247403E-04   7.6738243E+05   -1.8824516E+00
   1.2303963E-04   7.6075616E+05   -1.8820368E+00
   1.2360784E-04   7.5418856E+05   -1.8816210E+00
   1.2417868E-04   7.4767908E+05   -1.8812042E+00
   1.2475215E-04   7.4122722E+05   -1.8807864E+00
   1.2532826E-04   7.3483244E+05   -1.8803676E+00
   1.2590704E-04   7.2849424E+05   -1.8799477E+00
   1.2648850E-04   7.2221211E+05   -1.8795269E+00
   1.2707263E-04   7.1598555E+05   -1.8791050E+00
   1.2765947E-04   7.0981405E+05   -1.8786821E+00
   1.2824901E-04   7.0369711E+05   -1.8782583E+00
   1.2884128E-04   6.9763426E+05   -1.8778334E+00
   1.2943628E-04   6.9162500E+05   -1.8774075E+00
   1.3003403E-04   6.8566884E+05   -1.8769806E+00
   1.3063454E-04   6.7976532E+05   -1.8765528E+00
   1.3123783E-04   6.7391396E+05   -1.8761239E+00
   1.3184390E-04   6.6811428E+05   -1.8756940E+00
   1.3245277E-04   6.6236583E+05   -1.8752632E+00
   1.3306445E-04   6.5666815E+05   -1.8748313E+00
   1.3367895E-04   6.5102077E+05   -1.8743984E+00
   1.3429630E-04   6.4542325E+05   -1.8739646E+00
   1.3491649E-04   6.3987514E+05   -1.8735297E+00
   1.3553955E-04   6.3437599E+05   -1.8730939E+00
   1.3616548E-04   6.2892537E+05   -1.8726571E+00
   1.3679431E-04   6.2352284E+05   -1.8722193E+00
   1.3742604E-04   6.1816796E+05   -1.8717804E+00
   1.3806069E-04   6.1286031E+05   -1.8713407E+00
   1.3869827E-04   6.0759947E+05   -1.8708999E+00
   1.3933879E-04   6.0238501E+05   -1.8704581E+00
   1.3998227E-04   5.9721652E+05   -1.8700154E+00
   1.4062872E-04   5.9209358E+05   -1.8695717E+00
   1.4127816E-04   5.8701579E+05   -1.8691270E+00
   1.4193060E-04   5.8198274E+05   -1.8686813E+00
   1.4258605E-04   5.7699403E+05   -1.8682346E+00
   1.4324453E-04   5.7204926E+05   -1.8677870E+00
   1.4390605E-04   5.6714804E+05   -1.8673384E+00
   1.4457062E-04   5.6228997E+05   -1.8668888E+00
   1.4523826E-04   5.5747468E+05   -1.8664383E+00
   1.4590899E-04   5.5270177E+05   -1.8659868E+00
   1.4658281E-04   5.4797086E+05   -1.8655343E+00
   1.4725974E-04   5.4328159E+05   -1.8650809E+00
   1.4793981E-04   5.3863356E+05   -1.8646264E+00
   1.4862301E-04   5.3402643E+05   -1.8641711E+00
   1.4930936E-04   5.2945981E+05   -1.8637148E+00
   1.4999889E-04   5.2493334E+05   -1.8632575E+00
   1.5069160E-04   5.2044668E+05   -1.8627992E+00
   1.5138751E-04   5.1599945E+05   -1.8623400E+00
   1.5208663E-04   5.1159130E+05   -1.8618799E+00
   1.5278899E-04   5.0722189E+05   -1.8614188E+00
   1.5349458E-04   5.0289087E+05   -1.8609568E+00
   1.5420343E-04   4.9859790E+05   -1.8604938E+00
   1.5491556E-04   4.9434262E+05   -1.8600298E+00
   1.5563098E-04   4.9012471E+05   -1.8595650E+00
   1.5634970E-04   4.8594384E+05   -1.8590991E+00
   1.5707174E-04   4.8179966E+05   -1.8586324E+00
   1.5779711E-04   4.7769185E+05   -1.8581647E+00
   1.5852584E-04   4.7362008E+05   -1.8576961E+00
   1.5925792E-04   4.6958404E+05   -1.8572265E+00
   1.5999339E-04   4.6558340E+05   -1.8567561E+00
   1.6073226E-04   4.6161784E+05   -1.8562846E+00
   1.6147454E-04   4.5768706E+05   -1.8558123E+00
   1.6222024E-04   4.5379074E+05   -1.8553391E+00
   1.6296939E-04   4.4992857E+05   -1.8548649E+00
   1.6372200E-04   4.4610024E+05   -1.8543898E+00
   1.6447809E-04   4.4230546E+05   -1.8539138E+00
   1.6523767E-04   4.3854392E+05   -1.8534369E+00
   1.6600075E-04   4.3481533E+05   -1.8529590E+00
   1.6676736E-04   4.3111939E+05   -1.8524803E+00
   1.6753751E-04   4.2745580E+05   -1.8520006E+00
   1.6831122E-04   4.2382429E+05   -1.8515201E+00
   1.6908849E-04   4.2022456E+05   -1.8510386E+00
   1.6986936E-04   4.1665633E+05   -1.8505563E+00
   1.7065384E-04   4.1311932E+05   -1.8500731E+00
   1.7144193E-04   4.0961324E+05   -1.8495889E+00
   1.7223367E-04   4.0613783E+05   -1.8491039E+00
   1.7302906E-04   4.0269281E+05   -1.8486180E+00
   1.7382813E-04   3.9927790E+05   -1.8481312E+00
   1.7463089E-04   3.9589285E+05   -1.8476435E+00
   1.7543735E-04   3.9253737E+05   -1.8471550E+00
   1.7624754E-04   3.8921121E+05   -1.8466655E+00
   1.7706147E-04   3.8591410E+05   -1.8461752E+00
   1.7787916E-04   3.8264580E+05   -1.8456841E+00
   1.7870062E-04   3.7940602E+05   -1.8451920E+00
   1.7952588E-04   3.7619454E+05   -1.8446991E+00
   1.8035495E-04   3.7301108E+05   -1.8442054E+00
   1.8118785E-04   3.6985541E+05   -1.8437107E+00
   1.8202459E-04   3.6672727E+05   -1.8432153E+00
   1.8286520E-04   3.6362641E+05   -1.8427189E+00
   1.8370969E-04   3.6055261E+05   -1.8422217E+00
   1.8455808E-04   3.5750560E+05   -1.8417237E+00
   1.8541039E-04   3.5448516E+05   -1.8412249E+00
   1.8626663E-04   3.5149105E+05   -1.8407251E+00
   1.8712683E-04   3.4852303E+05   -1.8402246E+00
   1.8799100E-04   3.4558087E+05   -1.8397232E+00
   1.8885917E-04   3.4266434E+05   -1.8392210E+00
   1.8973134E-04   3.3977320E+05   -1.8387180E+00
   1.9060754E-04   3.3690725E+05   -1.8382141E+00
   1.9148778E-04   3.3406624E+05   -1.8377094E+00
   1.9237209E-04   3.3124996E+05   -1.8372039E+00
   1.9326049E-04   3.2845819E+05   -1.8366976E+00
   1.9415299E-04   3.2569071E+05   -1.8361905E+00
   1.9504960E-04   3.2294730E+05   -1.8356826E+00
   1.9595036E-04   3.2022776E+05   -1.8351738E+00
   1.9685528E-04   3.1753185E+05   -1.8346643E+00
   1.9776438E-04   3.1485939E+05   -1.8341540E+00
   1.9867768E-04   3.1221015E+05   -1.8336429E+00
   1.9959519E-04   3.0958393E+05   -1.8331310E+00
   2.0051694E-04   3.0698052E+05   -1.8326183E+00
   2.0144295E-04   3.0439973E+05   -1.8321048E+00
   2.0237324E-04   3.0184135E+05   -1.8315906E+00
   2.0330782E-04   2.9930518E+05   -1.8310755E+00
   2.0424671E-04   2.9679103E+05   -1.8305597E+00
   2.0518995E-04   2.9429869E+05   -1.8300432E+00
   2.0613754E-04   2.9182798E+05   -1.8295258E+00
   2.0708950E-04   2.8937871E+05   -1.8290078E+00
   2.0804586E-04   2.8695067E+05   -1.8284889E+00
   2.0900664E-04   2.8454369E+05   -1.8279693E+00
   2.0997185E-04   2.8215757E+05   -1.8274490E+00
   2.1094152E-04   2.7979214E+05   -1.8269279E+00
   2.1191567E-04   2.7744720E+05   -1.8264061E+00
   2.1289432E-04   2.7512258E+05   -1.8258835E+00
   2.1387749E-04   2.7281809E+05   -1.8253602E+00
   2.1486520E-04   2.7053355E+05   -1.8248362E+00
   2.1585747E-04   2.6826880E+05   -1.8243115E+00
   2.1685432E-04   2.6602365E+05   -1.8237860E+00
   2.1785578E-04   2.6379792E+05   -1.8232598E+00
   2.1886186E-04   2.6159145E+05   -1.8227329E+00
   2.1987259E-04   2.5940407E+05   -1.8222054E+00
   2.2088798E-04   2.5723561E+05   -1.8216771E+00
   2.2190807E-04   2.5508589E+05   -1.8211481E+00
   2.2293286E-04   2.5295476E+05   -1.8206184E+00
   2.2396239E-04   2.5084204E+05   -1.8200880E+00
   2.2499667E-04   2.4874758E+05   -1.8195569E+00
   2.2603573E-04   2.4667121E+05   -1.8190252E+00
   2.2707958E-04   2.4461277E+05   -1.8184927E+00
   2.2812826E-04   2.4257210E+05   -1.8179596E+00
   2.2918178E-04   2.4054905E+05   -1.8174259E+00
   2.3024017E-04   2.3854346E+05   -1.8168914E+00
   2.3130344E-04   2.3655517E+05   -1.8163564E+00
   2.3237162E-04   2.3458403E+05   -1.8158206E+00
   2.3344474E-04   2.3262989E+05   -1.8152842E+00
   2.3452281E-04   2.3069261E+05   -1.8147472E+00
   2.3560586E-04   2.2877202E+05   -1.8142095E+00
   2.3669392E-04   2.2686798E+05   -1.8136712E+00
   2.3778699E-04   2.2498035E+05   -1.8131322E+00
   2.3888512E-04   2.2310898E+05   -1.8125926E+00
   2.3998831E-04   2.2125373E+05   -1.8120524E+00
   2.4109661E-04   2.1941445E+05   -1.8115116E+00
   2.4221001E-04   2.1759100E+05   -1.8109701E+00
   2.4332857E-04   2.1578324E+05   -1.8104281E+00
   2.4445228E-04   2.1399104E+05   -1.8098854E+00
   2.4558119E-04   2.1221425E+05   -1.8093422E+00
   2.4671531E-04   2.1045275E+05   -1.8087983E+00
   2.4785467E-04   2.0870639E+05   -1.8082539E+00
   2.4899928E-04   2.0697504E+05   -1.8077089E+00
   2.5014919E-04   2.0525856E+05   -1.8071633E+00
   2.5130440E-04   2.0355684E+05   -1.8066171E+00
   2.5246495E-04   2.0186973E+05   -1.8060704E+00
   2.5363086E-04   2.0019711E+05   -1.8055230E+00
   2.5480216E-04   1.9853885E+05   -1.8049752E+00
   2.5597886E-04   1.9689482E+05   -1.8044267E+00
   2.5716100E-04   1.9526490E+05   -1.8038777E+00
   2.5834859E-04   1.9364896E+05   -1.8033282E+00
   2.5954168E-04   1.9204688E+05   -1.8027781E+00
   2.6074027E-04   1.9045854E+05   -1.8022275E+00
   2.6194439E-04   1.8888381E+05   -1.8016764E+00
   2.6315408E-04   1.8732258E+05   -1.8011247E+00
   2.6436935E-04   1.8577473E+05   -1.8005726E+00
   2.6559024E-04   1.8424014E+05   -1.8000199E+00
   2.6681676E-04   1.8271869E+05   -1.7994666E+00
   2.6804895E-04   1.8121026E+05   -1.7989129E+00
   2.6928683E-04   1.7971475E+05   -1.7983587E+00
   2.7053042E-04   1.7823203E+05   -1.7978040E+00
   2.7177976E-04   1.7676200E+05   -1.7972488E+00
   2.7303487E-04   1.7530454E+05   -1.7966931E+00
   2.7429577E-04   1.7385954E+05   -1.7961370E+00
   2.7556250E-04   1.7242690E+05   -1.7955803E+00
   2.7683507E-04   1.7100650E+05   -1.7950232E+00
   2.7811353E-04   1.6959824E+05   -1.7944657E+00
   2.7939788E-04   1.6820200E+05   -1.7939076E+00
   2.8068817E-04   1.6681769E+05   -1.7933492E+00
   2.8198442E-04   1.6544520E+05   -1.7927902E+00
   2.8328665E-04   1.6408443E+05   -1.7922309E+00
   2.8459490E-04   1.6273526E+05   -1.7916711E+00
   2.8590919E-04   1.6139761E+05   -1.7911108E+00
   2.8722955E-04   1.6007136E+05   -1.7905502E+00
   2.8855600E-04   1.5875643E+05   -1.7899891E+00
   2.8988859E-04   1.5745270E+05   -1.7894276E+00
   2.9122732E-04   1.5616008E+05   -1.7888657E+00
   2.9257224E-04   1.5487848E+05   -1.7883034E+00
   2.9392337E-04   1.5360779E+05   -1.7877407E+00
   2.9528074E-04   1.5234792E+05   -1.7871776E+00
   2.9664438E-04   1.5109878E+05   -1.7866141E+00
   2.9801431E-04   1.4986026E+05   -1.7860503E+00
   2.9939057E-04   1.4863229E+05   -1.7854860E+00
   3.0077319E-04   1.4741476E+05   -1.7849214E+00
   3.0216219E-04   1.4620759E+05   -1.7843565E+00
   3.0355761E-04   1.4501068E+05   -1.7837911E+00
   3.0495947E-04   1.4382394E+05   -1.7832255E+00
   3.0636780E-04   1.4264729E+05   -1.7826594E+00
   3.0778264E-04   1.4148063E+05   -1.7820931E+00
   3.0920401E-04   1.4032388E+05   -1.7815264E+00
   3.1063195E-04   1.3917695E+05   -1.7809593E+00
   3.1206648E-04   1.3803975E+05   -1.7803920E+00
   3.1350764E-04   1.3691221E+05   -1.7798243E+00
   3.1495545E-04   1.3579423E+05   -1.7792563E+00
   3.1640994E-04   1.3468573E+05   -1.7786880E+00
   3.1787116E-04   1.3358663E+05   -1.7781194E+00
   3.1933912E-04   1.3249685E+05   -1.7775505E+00
   3.2081386E-04   1.3141630E+05   -1.7769813E+00
   3.2229541E-04   1.3034491E+05   -1.7764118E+00
   3.2378381E-04   1.2928259E+05   -1.7758421E+00
   3.2527908E-04   1.2822927E+05   -1.7752721E+00
   3.2678125E-04   1.2718486E+05   -1.7747018E+00
   3.2829036E-04   1.2614929E+05   -1.7741312E+00
   3.2980644E-04   1.2512248E+05   -1.7735604E+00
   3.3132952E-04   1.2410435E+05   -1.7729894E+00
   3.3285963E-04   1.2309483E+05   -1.7724181E+00
   3.3439681E-04   1.2209385E+05   -1.7718466E+00
   3.3594109E-04   1.2110132E+05   -1.7712748E+00
   3.3749250E-04   1.2011718E+05   -1.7707028E+00
   3.3905108E-04   1.1914136E+05   -1.7701306E+00
   3.4061685E-04   1.1817377E+05   -1.7695582E+00
   3.4218986E-04   1.1721435E+05   -1.7689856E+00
   3.4377013E-04   1.1626302E+05   -1.7684128E+00
   3.4535769E-04   1.1531972E+05   -1.7678397E+00
   3.4695259E-04   1.1438437E+05   -1.7672665E+00
   3.4855485E-04   1.1345692E+05   -1.7666931E+00
   3.5016452E-04   1.1253727E+05   -1.7661196E+00
   3.5178161E-04   1.1162538E+05   -1.7655458E+00
   3.5340618E-04   1.1072117E+05   -1.7649719E+00
   3.5503824E-04   1.0982458E+05   -1.7643978E+00
   3.5667785E-04   1.0893553E+05   -1.7638236E+00
   3.5832502E-04   1.0805397E+05   -1.7632493E+00
   3.5997981E-04   1.0717982E+05   -1.7626748E+00
   3.6164223E-04   1.0631303E+05   -1.7621001E+00
   3.6331233E-04   1.0545353E+05   -1.7615253E+00
   3.6499015E-04   1.0460125E+05   -1.7609504E+00
   3.6667571E-04   1.0375613E+05   -1.7603754E+00
   3.6836906E-04   1.0291812E+05   -1.7598003E+00
   3.7007022E-04   1.0208714E+05   -1.7592251E+00
   3.7177925E-04   1.0126315E+05   -1.7586498E+00
   3.7349616E-04   1.0044607E+05   -1.7580743E+00
   3.7522101E-04   9.9635844E+04   -1.7574988E+00
   3.7695382E-04   9.8832419E+04   -1.7569233E+00
   3.7869463E-04   9.8035732E+04   -1.7563476E+00
   3.8044348E-04   9.7245726E+04   -1.7557719E+00
   3.8220041E-04   9.6462341E+04   -1.7551961E+00
   3.8396545E-04   9.5685521E+04   -1.7546202E+00
   3.8573864E-04   9.4915209E+04   -1.7540443E+00
   3.8752002E-04   9.4151347E+04   -1.7534684E+00
   3.8930963E-04   9.3393881E+04   -1.7528924E+00
   3.9110750E-04   9.2642755E+04   -1.7523164E+00
   3.9291368E-04   9.1897914E+04   -1.7517404E+00
   3.9472820E-04   9.1159303E+04   -1.7511643E+00
   3.9655109E-04   9.0426868E+04   -1.7505883E+00
   3.9838241E-04   8.9700557E+04   -1.7500122E+00
   4.0022218E-04   8.8980315E+04   -1.7494361E+00
   4.0207045E-04   8.8266091E+04   -1.7488600E+00
   4.0392725E-04   8.7557832E+04   -1.7482840E+00
   4.0579263E-04   8.6855487E+04   -1.7477079E+00
   4.0766662E-04   8.6159005E+04   -1.7471319E+00
   4.0954927E-04   8.5468334E+04   -1.7465559E+00
   4.1144061E-04   8.4783425E+04   -1.7459800E+00
   4.1334068E-04   8.4104227E+04   -1.7454041E+00
   4.1524953E-04   8.3430692E+04   -1.7448282E+00
   4.1716720E-04   8.2762770E+04   -1.7442524E+00
   4.1909372E-04   8.2100414E+04   -1.7436766E+00
   4.2102914E-04   8.1443574E+04   -1.7431009E+00
   4.2297350E-04   8.0792203E+04   -1.7425253E+00
   4.2492683E-04   8.0146255E+04   -1.7419498E+00
   4.2688919E-04   7.9505682E+04   -1.7413743E+00
   4.2886061E-04   7.8870438E+04   -1.7407990E+00
   4.3084113E-04   7.8240477E+04   -1.7402237E+00
   4.3283080E-04   7.7615753E+04   -1.7396486E+00
   4.3482966E-04   7.6996222E+04   -1.7390735E+00
   4.3683775E-04   7.6381838E+04   -1.7384986E+00
   4.3885511E-04   7.5772557E+04   -1.7379238E+00
   4.4088179E-04   7.5168335E+04   -1.7373491E+00
   4.4291783E-04   7.4569129E+04   -1.7367745E+00
   4.4496327E-04   7.3974895E+04   -1.7362001E+00
   4.4701816E-04   7.3385591E+04   -1.7356258E+00
   4.4908253E-04   7.2801173E+04   -1.7350517E+00
   4.5115644E-04   7.2221601E+04   -1.7344777E+00
   4.5323993E-04   7.1646833E+04   -1.7339039E+00
   4.5533304E-04   7.1076827E+04   -1.7333303E+00
   4.5743582E-04   7.0511542E+04   -1.7327568E+00
   4.5954830E-04   6.9950937E+04   -1.7321836E+00
   4.6167054E-04   6.9394973E+04   -1.7316105E+00
   4.6380259E-04   6.8843609E+04   -1.7310376E+00
   4.6594448E-04   6.8296806E+04   -1.7304649E+00
   4.6809626E-04   6.7754525E+04   -1.7298924E+00
   4.7025797E-04   6.7216727E+04   -1.7293201E+00
   4.7242967E-04   6.6683374E+04   -1.7287480E+00
   4.7461140E-04   6.6154427E+04   -1.7281762E+00
   4.7680321E-04   6.5629849E+04   -1.7276046E+00
   4.7900514E-04   6.5109601E+04   -1.7270332E+00
   4.8121723E-04   6.4593648E+04   -1.7264621E+00
   4.8343954E-04   6.4081952E+04   -1.7258912E+00
   4.8567212E-04   6.3574477E+04   -1.7253205E+00
   4.8791500E-04   6.3071186E+04   -1.7247502E+00
   4.9016825E-04   6.2572044E+04   -1.7241800E+00
   4.9243189E-04   6.2077016E+04   -1.7236102E+00
   4.9470600E-04   6.1586065E+04   -1.7230406E+00
   4.9699060E-04   6.1099157E+04   -1.7224713E+00
   4.9928575E-04   6.0616258E+04   -1.7219023E+00
   5.0159151E-04   6.0137333E+04   -1.7213336E+00
   5.0390791E-04   5.9662348E+04   -1.7207652E+00
   5.0623501E-04   5.9191270E+04   -1.7201971E+00
   5.0857286E-04   5.8724065E+04   -1.7196293E+00
   5.1092150E-04   5.8260700E+04   -1.7190618E+00
   5.1328099E-04   5.7801143E+04   -1.7184947E+00
   5.1565137E-04   5.7345360E+04   -1.7179278E+00
   5.1803270E-04   5.6893320E+04   -1.7173614E+00
   5.2042503E-04   5.6444990E+04   -1.7167952E+00
   5.2282841E-04   5.6000340E+04   -1.7162294E+00
   5.2524289E-04   5.5559337E+04   -1.7156639E+00
   5.2766851E-04   5.5121950E+04   -1.7150988E+00
   5.3010534E-04   5.4688149E+04   -1.7145341E+00
   5.3255342E-04   5.4257903E+04   -1.7139697E+00
   5.3501281E-04   5.3831182E+04   -1.7134057E+00
   5.3748356E-04   5.3407955E+04   -1.7128421E+00
   5.3996571E-04   5.2988194E+04   -1.7122789E+00
   5.4245933E-04   5.2571868E+04   -1.7117160E+00
   5.4496446E-04   5.2158949E+04   -1.7111536E+00
   5.4748117E-04   5.1749406E+04   -1.7105915E+00
   5.5000949E-04   5.1343213E+04   -1.7100299E+00
   5.5254949E-04   5.0940339E+04   -1.7094686E+00
   5.5510123E-04   5.0540757E+04   -1.7089078E+00
   5.5766474E-04   5.0144440E+04   -1.7083474E+00
   5.6024010E-04   4.9751358E+04   -1.7077875E+00
   5.6282734E-04   4.9361485E+04   -1.7072279E+00
   5.6542654E-04   4.8974793E+04   -1.7066688E+00
   5.6803774E-04   4.8591256E+04   -1.7061102E+00
   5.7066099E-04   4.8210846E+04   -1.7055520E+00
   5.7329637E-04   4.7833537E+04   -1.7049943E+00
   5.7594391E-04   4.7459304E+04   -1.7044370E+00
   5.7860368E-04   4.7088119E+04   -1.7038802E+00
   5.8127573E-04   4.6719957E+04   -1.7033238E+00
   5.8396012E-04   4.6354792E+04   -1.7027680E+00
   5.8665691E-04   4.5992599E+04   -1.7022126E+00
   5.8936616E-04   4.5633353E+04   -1.7016577E+00
   5.9208791E-04   4.5277029E+04   -1.7011033E+00
   5.9482223E-04   4.4923601E+04   -1.7005494E+00
   5.9756919E-04   4.4573047E+04   -1.6999960E+00
   6.0032882E-04   4.4225340E+04   -1.6994431E+00
   6.0310120E-04   4.3880457E+04   -1.6988907E+00
   6.0588639E-04   4.3538375E+04   -1.6983389E+00
   6.0868443E-04   4.3199069E+04   -1.6977875E+00
   6.1149540E-04   4.2862517E+04   -1.6972367E+00
   6.1431935E-04   4.2528694E+04   -1.6966864E+00
   6.1715634E-04   4.2197578E+04   -1.6961367E+00
   6.2000644E-04   4.1869146E+04   -1.6955875E+00
   6.2286969E-04   4.1543376E+04   -1.6950389E+00
