#        a       HoverH0(a)       dlogHdloga_of_a(a)
   1.0000000E-04   1.0910676E+06   -1.8887052E+00
   1.0046181E-04   1.0816152E+06   -1.8883060E+00
   1.0092575E-04   1.0722466E+06   -1.8879058E+00
   1.0139184E-04   1.0629611E+06   -1.8875046E+00
   1.0186008E-04   1.0537580E+06   -1.8871024E+00
   1.0233048E-04   1.0446365E+06   -1.8866991E+00
   1.0280305E-04   1.0355959E+06   -1.8862949E+00
   1.0327781E-04   1.0266354E+06   -1.8858896E+00
   1.0375475E-04   1.0177544E+06   -1.8854833E+00
   1.0423390E-04   1.0089521E+06   -1.8850760E+00
   1.0471527E-04   1.0002277E+06   -1.8846677E+00
   1.0519885E-04   9.9158075E+05   -1.8842583E+00
   1.0568467E-04   9.8301036E+05   -1.8838480E+00
   1.0617274E-04   9.7451589E+05   -1.8834366E+00
   1.0666305E-04   9.6609665E+05   -1.8830242E+00
   1.0715563E-04   9.5775198E+05   -1.8826108E+00
   1.0765049E-04   9.4948120E+05   -1.8821964E+00
   1.0814763E-04   9.4128364E+05   -1.8817810E+00
   1.0864707E-04   9.3315864E+05   -1.8813646E+00
   1.0914881E-04   9.2510555E+05   -1.8809471E+00
   1.0965287E-04   9.1712373E+05   -1.8805287E+00
   1.1015926E-04   9.0921253E+05   -1.8801092E+00
   1.1066799E-04   9.0137131E+05   -1.8796888E+00
   1.1117906E-04   8.9359946E+05   -1.8792673E+00
   1.1169250E-04   8.8589633E+05   -1.8788448E+00
   1.1220831E-04   8.7826132E+05   -1.8784214E+00
   1.1272650E-04   8.7069381E+05   -1.8779969E+00
   1.1324708E-04   8.6319320E+05   -1.8775714E+00
   1.1377007E-04   8.5575889E+05   -1.8771449E+00
   1.1429547E-04   8.4839027E+05   -1.8767174E+00
   1.1482330E-04   8.4108676E+05   -1.8762889E+00
   1.1535356E-04   8.3384776E+05   -1.8758595E+00
   1.1588628E-04   8.2667272E+05   -1.8754290E+00
   1.1642145E-04   8.1956103E+05   -1.8749975E+00
   1.1695910E-04   8.1251215E+05   -1.8745650E+00
   1.1749923E-04   8.0552550E+05   -1.8741316E+00
   1.1804185E-04   7.9860052E+05   -1.8736971E+00
   1.1858698E-04   7.9173666E+05   -1.8732617E+00
   1.1913463E-04   7.8493337E+05   -1.8728252E+00
   1.1968481E-04   7.7819010E+05   -1.8723878E+00
   1.2023752E-04   7.7150633E+05   -1.8719494E+00
   1.2079279E-04   7.6488151E+05   -1.8715100E+00
   1.2135063E-04   7.5831511E+05   -1.8710696E+00
   1.2191104E-04   7.5180661E+05   -1.8706282E+00
   1.2247403E-04   7.4535549E+05   -1.8701858E+00
   1.2303963E-04   7.3896124E+05   -1.8697425E+00
   1.2360784E-04   7.3262333E+05   -1.8692982E+00
   1.2417868E-04   7.2634128E+05   -1.8688529E+00
   1.2475215E-04   7.2011457E+05   -1.8684066E+00
   1.2532826E-04   7.1394271E+05   -1.8679594E+00
   1.2590704E-04   7.0782520E+05   -1.8675111E+00
   1.2648850E-04   7.0176157E+05   -1.8670619E+00
   1.2707263E-04   6.9575132E+05   -1.8666118E+00
   1.2765947E-04   6.8979397E+05   -1.8661607E+00
   1.2824901E-04   6.8388907E+05   -1.8657086E+00
   1.2884128E-04   6.7803612E+05   -1.8652555E+00
   1.2943628E-04   6.7223467E+05   -1.8648015E+00
   1.3003403E-04   6.6648426E+05   -1.8643465E+00
   1.3063454E-04   6.6078442E+05   -1.8638905E+00
   1.3123783E-04   6.5513470E+05   -1.8634336E+00
   1.3184390E-04   6.4953466E+05   -1.8629758E+00
   1.3245277E-04   6.4398385E+05   -1.8625169E+00
   1.3306445E-04   6.3848182E+05   -1.8620572E+00
   1.3367895E-04   6.3302815E+05   -1.8615964E+00
   1.3429630E-04   6.2762239E+05   -1.8611348E+00
   1.3491649E-04   6.2226411E+05   -1.8606722E+00
   1.3553955E-04   6.1695291E+05   -1.8602086E+00
   1.3616548E-04   6.1168834E+05   -1.8597441E+00
   1.3679431E-04   6.0646999E+05   -1.8592786E+00
   1.3742604E-04   6.0129746E+05   -1.8588123E+00
   1.3806069E-04   5.9617032E+05   -1.8583449E+00
   1.3869827E-04   5.9108817E+05   -1.8578767E+00
   1.3933879E-04   5.8605062E+05   -1.8574075E+00
   1.3998227E-04   5.8105725E+05   -1.8569374E+00
   1.4062872E-04   5.7610768E+05   -1.8564663E+00
   1.4127816E-04   5.7120151E+05   -1.8559944E+00
   1.4193060E-04   5.6633835E+05   -1.8555215E+00
   1.4258605E-04   5.6151782E+05   -1.8550477E+00
   1.4324453E-04   5.5673954E+05   -1.8545729E+00
   1.4390605E-04   5.5200313E+05   -1.8540973E+00
   1.4457062E-04   5.4730822E+05   -1.8536207E+00
   1.4523826E-04   5.4265443E+05   -1.8531432E+00
   1.4590899E-04   5.3804140E+05   -1.8526649E+00
   1.4658281E-04   5.3346876E+05   -1.8521856E+00
   1.4725974E-04   5.2893614E+05   -1.8517054E+00
   1.4793981E-04   5.2444320E+05   -1.8512243E+00
   1.4862301E-04   5.1998958E+05   -1.8507423E+00
   1.4930936E-04   5.1557493E+05   -1.8502594E+00
   1.4999889E-04   5.1119889E+05   -1.8497756E+00
   1.5069160E-04   5.0686113E+05   -1.8492910E+00
   1.5138751E-04   5.0256130E+05   -1.8488054E+00
   1.5208663E-04   4.9829906E+05   -1.8483190E+00
   1.5278899E-04   4.9407407E+05   -1.8478316E+00
   1.5349458E-04   4.8988602E+05   -1.8473434E+00
   1.5420343E-04   4.8573455E+05   -1.8468543E+00
   1.5491556E-04   4.8161935E+05   -1.8463644E+00
   1.5563098E-04   4.7754010E+05   -1.8458736E+00
   1.5634970E-04   4.7349647E+05   -1.8453819E+00
   1.5707174E-04   4.6948814E+05   -1.8448893E+00
   1.5779711E-04   4.6551480E+05   -1.8443959E+00
   1.5852584E-04   4.6157614E+05   -1.8439016E+00
   1.5925792E-04   4.5767185E+05   -1.8434064E+00
   1.5999339E-04   4.5380162E+05   -1.8429105E+00
   1.6073226E-04   4.4996514E+05   -1.8424136E+00
   1.6147454E-04   4.4616212E+05   -1.8419159E+00
   1.6222024E-04   4.4239226E+05   -1.8414174E+00
   1.6296939E-04   4.3865526E+05   -1.8409180E+00
   1.6372200E-04   4.3495083E+05   -1.8404178E+00
   1.6447809E-04   4.3127868E+05   -1.8399167E+00
   1.6523767E-04   4.2763852E+05   -1.8394149E+00
   1.6600075E-04   4.2403007E+05   -1.8389122E+00
   1.6676736E-04   4.2045304E+05   -1.8384086E+00
   1.6753751E-04   4.1690715E+05   -1.8379043E+00
   1.6831122E-04   4.1339212E+05   -1.8373991E+00
   1.6908849E-04   4.0990769E+05   -1.8368931E+00
   1.6986936E-04   4.0645358E+05   -1.8363863E+00
   1.7065384E-04   4.0302951E+05   -1.8358787E+00
   1.7144193E-04   3.9963523E+05   -1.8353703E+00
   1.7223367E-04   3.9627046E+05   -1.8348611E+00
   1.7302906E-04   3.9293494E+05   -1.8343511E+00
   1.7382813E-04   3.8962841E+05   -1.8338403E+00
   1.7463089E-04   3.8635062E+05   -1.8333287E+00
   1.7543735E-04   3.8310131E+05   -1.8328163E+00
   1.7624754E-04   3.7988023E+05   -1.8323032E+00
   1.7706147E-04   3.7668711E+05   -1.8317892E+00
   1.7787916E-04   3.7352172E+05   -1.8312745E+00
   1.7870062E-04   3.7038381E+05   -1.8307590E+00
   1.7952588E-04   3.6727314E+05   -1.8302428E+00
   1.8035495E-04   3.6418945E+05   -1.8297257E+00
   1.8118785E-04   3.6113252E+05   -1.8292080E+00
   1.8202459E-04   3.5810210E+05   -1.8286894E+00
   1.8286520E-04   3.5509797E+05   -1.8281701E+00
   1.8370969E-04   3.5211987E+05   -1.8276501E+00
   1.8455808E-04   3.4916759E+05   -1.8271293E+00
   1.8541039E-04   3.4624090E+05   -1.8266078E+00
   1.8626663E-04   3.4333956E+05   -1.8260855E+00
   1.8712683E-04   3.4046335E+05   -1.8255625E+00
   1.8799100E-04   3.3761205E+05   -1.8250388E+00
   1.8885917E-04   3.3478544E+05   -1.8245143E+00
   1.8973134E-04   3.3198330E+05   -1.8239892E+00
   1.9060754E-04   3.2920540E+05   -1.8234633E+00
   1.9148778E-04   3.2645155E+05   -1.8229367E+00
   1.9237209E-04   3.2372151E+05   -1.8224094E+00
   1.9326049E-04   3.2101509E+05   -1.8218814E+00
   1.9415299E-04   3.1833207E+05   -1.8213526E+00
   1.9504960E-04   3.1567224E+05   -1.8208232E+00
   1.9595036E-04   3.1303540E+05   -1.8202931E+00
   1.9685528E-04   3.1042135E+05   -1.8197623E+00
   1.9776438E-04   3.0782988E+05   -1.8192309E+00
   1.9867768E-04   3.0526079E+05   -1.8186987E+00
   1.9959519E-04   3.0271388E+05   -1.8181659E+00
   2.0051694E-04   3.0018896E+05   -1.8176324E+00
   2.0144295E-04   2.9768583E+05   -1.8170982E+00
   2.0237324E-04   2.9520431E+05   -1.8165634E+00
   2.0330782E-04   2.9274419E+05   -1.8160279E+00
   2.0424671E-04   2.9030528E+05   -1.8154918E+00
   2.0518995E-04   2.8788741E+05   -1.8149550E+00
   2.0613754E-04   2.8549039E+05   -1.8144176E+00
   2.0708950E-04   2.8311402E+05   -1.8138795E+00
   2.0804586E-04   2.8075813E+05   -1.8133408E+00
   2.0900664E-04   2.7842254E+05   -1.8128015E+00
   2.0997185E-04   2.7610706E+05   -1.8122616E+00
   2.1094152E-04   2.7381152E+05   -1.8117210E+00
   2.1191567E-04   2.7153574E+05   -1.8111798E+00
   2.1289432E-04   2.6927955E+05   -1.8106380E+00
   2.1387749E-04   2.6704277E+05   -1.8100956E+00
   2.1486520E-04   2.6482524E+05   -1.8095526E+00
   2.1585747E-04   2.6262677E+05   -1.8090090E+00
   2.1685432E-04   2.6044721E+05   -1.8084648E+00
   2.1785578E-04   2.5828639E+05   -1.8079200E+00
   2.1886186E-04   2.5614413E+05   -1.8073747E+00
   2.1987259E-04   2.5402029E+05   -1.8068287E+00
   2.2088798E-04   2.5191469E+05   -1.8062822E+00
   2.2190807E-04   2.4982717E+05   -1.8057351E+00
   2.2293286E-04   2.4775757E+05   -1.8051875E+00
   2.2396239E-04   2.4570574E+05   -1.8046393E+00
   2.2499667E-04   2.4367152E+05   -1.8040905E+00
   2.2603573E-04   2.4165475E+05   -1.8035412E+00
   2.2707958E-04   2.3965527E+05   -1.8029914E+00
   2.2812826E-04   2.3767295E+05   -1.8024410E+00
   2.2918178E-04   2.3570762E+05   -1.8018901E+00
   2.3024017E-04   2.3375913E+05   -1.8013386E+00
   2.3130344E-04   2.3182735E+05   -1.8007867E+00
   2.3237162E-04   2.2991211E+05   -1.8002342E+00
   2.3344474E-04   2.2801327E+05   -1.7996812E+00
   2.3452281E-04   2.2613069E+05   -1.7991277E+00
   2.3560586E-04   2.2426423E+05   -1.7985737E+00
   2.3669392E-04   2.2241374E+05   -1.7980192E+00
   2.3778699E-04   2.2057909E+05   -1.7974642E+00
   2.3888512E-04   2.1876013E+05   -1.7969087E+00
   2.3998831E-04   2.1695672E+05   -1.7963528E+00
   2.4109661E-04   2.1516873E+05   -1.7957963E+00
   2.4221001E-04   2.1339603E+05   -1.7952394E+00
   2.4332857E-04   2.1163847E+05   -1.7946821E+00
   2.4445228E-04   2.0989593E+05   -1.7941242E+00
   2.4558119E-04   2.0816827E+05   -1.7935660E+00
   2.4671531E-04   2.0645536E+05   -1.7930072E+00
   2.4785467E-04   2.0475707E+05   -1.7924480E+00
   2.4899928E-04   2.0307328E+05   -1.7918884E+00
   2.5014919E-04   2.0140385E+05   -1.7913284E+00
   2.5130440E-04   1.9974866E+05   -1.7907679E+00
   2.5246495E-04   1.9810759E+05   -1.7902070E+00
   2.5363086E-04   1.9648051E+05   -1.7896457E+00
   2.5480216E-04   1.9486729E+05   -1.7890840E+00
   2.5597886E-04   1.9326783E+05   -1.7885219E+00
   2.5716100E-04   1.9168198E+05   -1.7879593E+00
   2.5834859E-04   1.9010964E+05   -1.7873964E+00
   2.5954168E-04   1.8855069E+05   -1.7868331E+00
   2.6074027E-04   1.8700501E+05   -1.7862694E+00
   2.6194439E-04   1.8547248E+05   -1.7857053E+00
   2.6315408E-04   1.8395299E+05   -1.7851409E+00
   2.6436935E-04   1.8244642E+05   -1.7845761E+00
   2.6559024E-04   1.8095266E+05   -1.7840109E+00
   2.6681676E-04   1.7947160E+05   -1.7834454E+00
   2.6804895E-04   1.7800312E+05   -1.7828795E+00
   2.6928683E-04   1.7654712E+05   -1.7823133E+00
   2.7053042E-04   1.7510349E+05   -1.7817468E+00
   2.7177976E-04   1.7367211E+05   -1.7811799E+00
   2.7303487E-04   1.7225289E+05   -1.7806127E+00
   2.7429577E-04   1.7084571E+05   -1.7800451E+00
   2.7556250E-04   1.6945047E+05   -1.7794773E+00
   2.7683507E-04   1.6806706E+05   -1.7789091E+00
   2.7811353E-04   1.6669538E+05   -1.7783407E+00
   2.7939788E-04   1.6533534E+05   -1.7777719E+00
   2.8068817E-04   1.6398682E+05   -1.7772029E+00
   2.8198442E-04   1.6264972E+05   -1.7766335E+00
   2.8328665E-04   1.6132395E+05   -1.7760639E+00
   2.8459490E-04   1.6000940E+05   -1.7754940E+00
   2.8590919E-04   1.5870599E+05   -1.7749239E+00
   2.8722955E-04   1.5741360E+05   -1.7743534E+00
   2.8855600E-04   1.5613215E+05   -1.7737828E+00
   2.8988859E-04   1.5486154E+05   -1.7732118E+00
   2.9122732E-04   1.5360168E+05   -1.7726407E+00
   2.9257224E-04   1.5235246E+05   -1.7720692E+00
   2.9392337E-04   1.5111380E+05   -1.7714976E+00
   2.9528074E-04   1.4988561E+05   -1.7709257E+00
   2.9664438E-04   1.4866779E+05   -1.7703536E+00
   2.9801431E-04   1.4746026E+05   -1.7697813E+00
   2.9939057E-04   1.4626291E+05   -1.7692088E+00
   3.0077319E-04   1.4507568E+05   -1.7686361E+00
   3.0216219E-04   1.4389846E+05   -1.7680632E+00
   3.0355761E-04   1.4273117E+05   -1.7674901E+00
   3.0495947E-04   1.4157372E+05   -1.7669168E+00
   3.0636780E-04   1.4042603E+05   -1.7663433E+00
   3.0778264E-04   1.3928801E+05   -1.7657696E+00
   3.0920401E-04   1.3815958E+05   -1.7651958E+00
   3.1063195E-04   1.3704065E+05   -1.7646218E+00
   3.1206648E-04   1.3593115E+05   -1.7640477E+00
   3.1350764E-04   1.3483098E+05   -1.7634734E+00
   3.1495545E-04   1.3374007E+05   -1.7628990E+00
   3.1640994E-04   1.3265834E+05   -1.7623244E+00
   3.1787116E-04   1.3158571E+05   -1.7617497E+00
   3.1933912E-04   1.3052210E+05   -1.7611749E+00
   3.2081386E-04   1.2946743E+05   -1.7606000E+00
   3.2229541E-04   1.2842162E+05   -1.7600249E+00
   3.2378381E-04   1.2738459E+05   -1.7594498E+00
   3.2527908E-04   1.2635627E+05   -1.7588745E+00
   3.2678125E-04   1.2533659E+05   -1.7582992E+00
   3.2829036E-04   1.2432547E+05   -1.7577237E+00
   3.2980644E-04   1.2332282E+05   -1.7571482E+00
   3.3132952E-04   1.2232859E+05   -1.7565726E+00
   3.3285963E-04   1.2134270E+05   -1.7559969E+00
   3.3439681E-04   1.2036507E+05   -1.7554212E+00
   3.3594109E-04   1.1939564E+05   -1.7548454E+00
   3.3749250E-04   1.1843433E+05   -1.7542696E+00
   3.3905108E-04   1.1748106E+05   -1.7536937E+00
   3.4061685E-04   1.1653579E+05   -1.7531177E+00
   3.4218986E-04   1.1559842E+05   -1.7525418E+00
   3.4377013E-04   1.1466890E+05   -1.7519658E+00
   3.4535769E-04   1.1374715E+05   -1.7513898E+00
   3.4695259E-04   1.1283311E+05   -1.7508137E+00
   3.4855485E-04   1.1192672E+05   -1.7502377E+00
   3.5016452E-04   1.1102790E+05   -1.7496616E+00
   3.5178161E-04   1.1013659E+05   -1.7490856E+00
   3.5340618E-04   1.0925272E+05   -1.7485096E+00
   3.5503824E-04   1.0837624E+05   -1.7479336E+00
   3.5667785E-04   1.0750707E+05   -1.7473576E+00
   3.5832502E-04   1.0664516E+05   -1.7467816E+00
   3.5997981E-04   1.0579044E+05   -1.7462057E+00
   3.6164223E-04   1.0494285E+05   -1.7456298E+00
   3.6331233E-04   1.0410232E+05   -1.7450539E+00
   3.6499015E-04   1.0326880E+05   -1.7444781E+00
   3.6667571E-04   1.0244223E+05   -1.7439024E+00
   3.6836906E-04   1.0162254E+05   -1.7433267E+00
   3.7007022E-04   1.0080967E+05   -1.7427511E+00
   3.7177925E-04   1.0000358E+05   -1.7421756E+00
   3.7349616E-04   9.9204192E+04   -1.7416001E+00
   3.7522101E-04   9.8411455E+04   -1.7410248E+00
   3.7695382E-04   9.7625313E+04   -1.7404495E+00
   3.7869463E-04   9.6845707E+04   -1.7398743E+00
   3.8044348E-04   9.6072582E+04   -1.7392993E+00
   3.8220041E-04   9.5305881E+04   -1.7387243E+00
   3.8396545E-04   9.4545549E+04   -1.7381495E+00
   3.8573864E-04   9.3791531E+04   -1.7375748E+00
   3.8752002E-04   9.3043772E+04   -1.7370002E+00
   3.8930963E-04   9.2302220E+04   -1.7364258E+00
   3.9110750E-04   9.1566820E+04   -1.7358515E+00
   3.9291368E-04   9.0837520E+04   -1.7352774E+00
   3.9472820E-04   9.0114266E+04   -1.7347034E+00
   3.9655109E-04   8.9397007E+04   -1.7341295E+00
   3.9838241E-04   8.8685692E+04   -1.7335559E+00
   4.0022218E-04   8.7980269E+04   -1.7329824E+00
   4.0207045E-04   8.7280689E+04   -1.7324091E+00
   4.0392725E-04   8.6586899E+04   -1.7318360E+00
   4.0579263E-04   8.5898851E+04   -1.7312630E+00
   4.0766662E-04   8.5216496E+04   -1.7306903E+00
   4.0954927E-04   8.4539784E+04   -1.7301178E+00
   4.1144061E-04   8.3868667E+04   -1.7295454E+00
   4.1334068E-04   8.3203096E+04   -1.7289733E+00
   4.1524953E-04   8.2543026E+04   -1.7284014E+00
   4.1716720E-04   8.1888407E+04   -1.7278298E+00
   4.1909372E-04   8.1239194E+04   -1.7272583E+00
   4.2102914E-04   8.0595340E+04   -1.7266871E+00
   4.2297350E-04   7.9956800E+04   -1.7261162E+00
   4.2492683E-04   7.9323527E+04   -1.7255455E+00
   4.2688919E-04   7.8695476E+04   -1.7249751E+00
   4.2886061E-04   7.8072604E+04   -1.7244049E+00
   4.3084113E-04   7.7454865E+04   -1.7238350E+00
   4.3283080E-04   7.6842215E+04   -1.7232653E+00
   4.3482966E-04   7.6234611E+04   -1.7226960E+00
   4.3683775E-04   7.5632010E+04   -1.7221269E+00
   4.3885511E-04   7.5034369E+04   -1.7215581E+00
   4.4088179E-04   7.4441646E+04   -1.7209897E+00
   4.4291783E-04   7.3853798E+04   -1.7204215E+00
   4.4496327E-04   7.3270784E+04   -1.7198536E+00
   4.4701816E-04   7.2692562E+04   -1.7192860E+00
   4.4908253E-04   7.2119092E+04   -1.7187188E+00
   4.5115644E-04   7.1550333E+04   -1.7181519E+00
   4.5323993E-04   7.0986245E+04   -1.7175853E+00
   4.5533304E-04   7.0426788E+04   -1.7170191E+00
   4.5743582E-04   6.9871923E+04   -1.7164532E+00
   4.5954830E-04   6.9321610E+04   -1.7158876E+00
   4.6167054E-04   6.8775810E+04   -1.7153224E+00
   4.6380259E-04   6.8234485E+04   -1.7147576E+00
   4.6594448E-04   6.7697596E+04   -1.7141931E+00
   4.6809626E-04   6.7165107E+04   -1.7136290E+00
   4.7025797E-04   6.6636980E+04   -1.7130653E+00
   4.7242967E-04   6.6113176E+04   -1.7125020E+00
   4.7461140E-04   6.5593661E+04   -1.7119390E+00
   4.7680321E-04   6.5078396E+04   -1.7113765E+00
   4.7900514E-04   6.4567346E+04   -1.7108143E+00
   4.8121723E-04   6.4060476E+04   -1.7102525E+00
   4.8343954E-04   6.3557749E+04   -1.7096912E+00
   4.8567212E-04   6.3059130E+04   -1.7091303E+00
   4.8791500E-04   6.2564585E+04   -1.7085698E+00
   4.9016825E-04   6.2074078E+04   -1.7080097E+00
   4.9243189E-04   6.1587576E+04   -1.7074500E+00
   4.9470600E-04   6.1105044E+04   -1.7068908E+00
   4.9699060E-04   6.0626449E+04   -1.7063321E+00
   4.9928575E-04   6.0151757E+04   -1.7057737E+00
   5.0159151E-04   5.9680935E+04   -1.7052159E+00
   5.0390791E-04   5.9213951E+04   -1.7046585E+00
   5.0623501E-04   5.8750772E+04   -1.7041015E+00
   5.0857286E-04   5.8291365E+04   -1.7035451E+00
   5.1092150E-04   5.7835699E+04   -1.7029891E+00
   5.1328099E-04   5.7383741E+04   -1.7024335E+00
   5.1565137E-04   5.6935462E+04   -1.7018785E+00
   5.1803270E-04   5.6490828E+04   -1.7013240E+00
   5.2042503E-04   5.6049810E+04   -1.7007699E+00
   5.2282841E-04   5.5612377E+04   -1.7002164E+00
   5.2524289E-04   5.5178498E+04   -1.6996633E+00
   5.2766851E-04   5.4748144E+04   -1.6991108E+00
   5.3010534E-04   5.4321285E+04   -1.6985588E+00
   5.3255342E-04   5.3897891E+04   -1.6980073E+00
   5.3501281E-04   5.3477932E+04   -1.6974564E+00
   5.3748356E-04   5.3061381E+04   -1.6969059E+00
   5.3996571E-04   5.2648207E+04   -1.6963560E+00
   5.4245933E-04   5.2238383E+04   -1.6958067E+00
   5.4496446E-04   5.1831881E+04   -1.6952579E+00
   5.4748117E-04   5.1428671E+04   -1.6947096E+00
   5.5000949E-04   5.1028727E+04   -1.6941619E+00
   5.5254949E-04   5.0632021E+04   -1.6936148E+00
   5.5510123E-04   5.0238526E+04   -1.6930683E+00
   5.5766474E-04   4.9848214E+04   -1.6925223E+00
   5.6024010E-04   4.9461059E+04   -1.6919768E+00
   5.6282734E-04   4.9077034E+04   -1.6914320E+00
   5.6542654E-04   4.8696113E+04   -1.6908878E+00
   5.6803774E-04   4.8318270E+04   -1.6903441E+00
   5.7066099E-04   4.7943478E+04   -1.6898011E+00
   5.7329637E-04   4.7571713E+04   -1.6892586E+00
   5.7594391E-04   4.7202948E+04   -1.6887167E+00
   5.7860368E-04   4.6837159E+04   -1.6881755E+00
   5.8127573E-04   4.6474320E+04   -1.6876349E+00
   5.8396012E-04   4.6114407E+04   -1.6870949E+00
   5.8665691E-04   4.5757395E+04   -1.6865555E+00
   5.8936616E-04   4.5403259E+04   -1.6860167E+00
   5.9208791E-04   4.5051977E+04   -1.6854786E+00
   5.9482223E-04   4.4703522E+04   -1.6849411E+00
   5.9756919E-04   4.4357873E+04   -1.6844043E+00
   6.0032882E-04   4.4015005E+04   -1.6838681E+00
   6.0310120E-04   4.3674895E+04   -1.6833325E+00
   6.0588639E-04   4.3337520E+04   -1.6827977E+00
   6.0868443E-04   4.3002857E+04   -1.6822634E+00
   6.1149540E-04   4.2670884E+04   -1.6817299E+00
   6.1431935E-04   4.2341577E+04   -1.6811970E+00
   6.1715634E-04   4.2014914E+04   -1.6806648E+00
   6.2000644E-04   4.1690875E+04   -1.6801332E+00
   6.2286969E-04   4.1369435E+04   -1.6796024E+00
