#        a       HoverH0(a)       dlogHdloga_of_a(a)
   1.0000000E-04   1.0695255E+06   -1.8674982E+00
   1.0046181E-04   1.0603634E+06   -1.8670490E+00
   1.0092575E-04   1.0512820E+06   -1.8665988E+00
   1.0139184E-04   1.0422805E+06   -1.8661477E+00
   1.0186008E-04   1.0333582E+06   -1.8656956E+00
   1.0233048E-04   1.0245144E+06   -1.8652425E+00
   1.0280305E-04   1.0157485E+06   -1.8647884E+00
   1.0327781E-04   1.0070597E+06   -1.8643334E+00
   1.0375475E-04   9.9844725E+05   -1.8638775E+00
   1.0423390E-04   9.8991057E+05   -1.8634205E+00
   1.0471527E-04   9.8144895E+05   -1.8629626E+00
   1.0519885E-04   9.7306171E+05   -1.8625038E+00
   1.0568467E-04   9.6474819E+05   -1.8620440E+00
   1.0617274E-04   9.5650772E+05   -1.8615833E+00
   1.0666305E-04   9.4833966E+05   -1.8611216E+00
   1.0715563E-04   9.4024335E+05   -1.8606590E+00
   1.0765049E-04   9.3221815E+05   -1.8601954E+00
   1.0814763E-04   9.2426343E+05   -1.8597308E+00
   1.0864707E-04   9.1637855E+05   -1.8592654E+00
   1.0914881E-04   9.0856288E+05   -1.8587990E+00
   1.0965287E-04   9.0081581E+05   -1.8583316E+00
   1.1015926E-04   8.9313672E+05   -1.8578634E+00
   1.1066799E-04   8.8552500E+05   -1.8573942E+00
   1.1117906E-04   8.7798006E+05   -1.8569240E+00
   1.1169250E-04   8.7050129E+05   -1.8564530E+00
   1.1220831E-04   8.6308809E+05   -1.8559810E+00
   1.1272650E-04   8.5573989E+05   -1.8555081E+00
   1.1324708E-04   8.4845611E+05   -1.8550342E+00
   1.1377007E-04   8.4123616E+05   -1.8545595E+00
   1.1429547E-04   8.3407947E+05   -1.8540838E+00
   1.1482330E-04   8.2698549E+05   -1.8536073E+00
   1.1535356E-04   8.1995364E+05   -1.8531298E+00
   1.1588628E-04   8.1298337E+05   -1.8526514E+00
   1.1642145E-04   8.0607413E+05   -1.8521721E+00
   1.1695910E-04   7.9922538E+05   -1.8516919E+00
   1.1749923E-04   7.9243658E+05   -1.8512108E+00
   1.1804185E-04   7.8570718E+05   -1.8507287E+00
   1.1858698E-04   7.7903666E+05   -1.8502458E+00
   1.1913463E-04   7.7242449E+05   -1.8497621E+00
   1.1968481E-04   7.6587015E+05   -1.8492774E+00
   1.2023752E-04   7.5937313E+05   -1.8487918E+00
   1.2079279E-04   7.5293291E+05   -1.8483053E+00
   1.2135063E-04   7.4654898E+05   -1.8478180E+00
   1.2191104E-04   7.4022085E+05   -1.8473298E+00
   1.2247403E-04   7.3394800E+05   -1.8468407E+00
   1.2303963E-04   7.2772996E+05   -1.8463507E+00
   1.2360784E-04   7.2156622E+05   -1.8458599E+00
   1.2417868E-04   7.1545632E+05   -1.8453682E+00
   1.2475215E-04   7.0939975E+05   -1.8448756E+00
   1.2532826E-04   7.0339606E+05   -1.8443821E+00
   1.2590704E-04   6.9744476E+05   -1.8438878E+00
   1.2648850E-04   6.9154538E+05   -1.8433927E+00
   1.2707263E-04   6.8569748E+05   -1.8428967E+00
   1.2765947E-04   6.7990058E+05   -1.8423998E+00
   1.2824901E-04   6.7415424E+05   -1.8419021E+00
   1.2884128E-04   6.6845799E+05   -1.8414036E+00
   1.2943628E-04   6.6281140E+05   -1.8409042E+00
   1.3003403E-04   6.5721402E+05   -1.8404040E+00
   1.3063454E-04   6.5166542E+05   -1.8399029E+00
   1.3123783E-04   6.4616515E+05   -1.8394010E+00
   1.3184390E-04   6.4071278E+05   -1.8388983E+00
   1.3245277E-04   6.3530790E+05   -1.8383948E+00
   1.3306445E-04   6.2995008E+05   -1.8378904E+00
   1.3367895E-04   6.2463889E+05   -1.8373852E+00
   1.3429630E-04   6.1937392E+05   -1.8368792E+00
   1.3491649E-04   6.1415476E+05   -1.8363724E+00
   1.3553955E-04   6.0898101E+05   -1.8358648E+00
   1.3616548E-04   6.0385225E+05   -1.8353564E+00
   1.3679431E-04   5.9876810E+05   -1.8348472E+00
   1.3742604E-04   5.9372814E+05   -1.8343371E+00
   1.3806069E-04   5.8873199E+05   -1.8338263E+00
   1.3869827E-04   5.8377926E+05   -1.8333147E+00
   1.3933879E-04   5.7886956E+05   -1.8328024E+00
   1.3998227E-04   5.7400250E+05   -1.8322892E+00
   1.4062872E-04   5.6917771E+05   -1.8317752E+00
   1.4127816E-04   5.6439482E+05   -1.8312605E+00
   1.4193060E-04   5.5965344E+05   -1.8307450E+00
   1.4258605E-04   5.5495322E+05   -1.8302288E+00
   1.4324453E-04   5.5029378E+05   -1.8297117E+00
   1.4390605E-04   5.4567476E+05   -1.8291939E+00
   1.4457062E-04   5.4109581E+05   -1.8286754E+00
   1.4523826E-04   5.3655656E+05   -1.8281561E+00
   1.4590899E-04   5.3205666E+05   -1.8276361E+00
   1.4658281E-04   5.2759577E+05   -1.8271153E+00
   1.4725974E-04   5.2317354E+05   -1.8265937E+00
   1.4793981E-04   5.1878962E+05   -1.8260715E+00
   1.4862301E-04   5.1444367E+05   -1.8255485E+00
   1.4930936E-04   5.1013537E+05   -1.8250247E+00
   1.4999889E-04   5.0586436E+05   -1.8245003E+00
   1.5069160E-04   5.0163032E+05   -1.8239751E+00
   1.5138751E-04   4.9743293E+05   -1.8234492E+00
   1.5208663E-04   4.9327185E+05   -1.8229226E+00
   1.5278899E-04   4.8914677E+05   -1.8223953E+00
   1.5349458E-04   4.8505737E+05   -1.8218673E+00
   1.5420343E-04   4.8100333E+05   -1.8213386E+00
   1.5491556E-04   4.7698433E+05   -1.8208092E+00
   1.5563098E-04   4.7300006E+05   -1.8202791E+00
   1.5634970E-04   4.6905023E+05   -1.8197483E+00
   1.5707174E-04   4.6513451E+05   -1.8192168E+00
   1.5779711E-04   4.6125262E+05   -1.8186846E+00
   1.5852584E-04   4.5740424E+05   -1.8181518E+00
   1.5925792E-04   4.5358909E+05   -1.8176183E+00
   1.5999339E-04   4.4980686E+05   -1.8170842E+00
   1.6073226E-04   4.4605728E+05   -1.8165493E+00
   1.6147454E-04   4.4234003E+05   -1.8160139E+00
   1.6222024E-04   4.3865485E+05   -1.8154777E+00
   1.6296939E-04   4.3500145E+05   -1.8149409E+00
   1.6372200E-04   4.3137954E+05   -1.8144035E+00
   1.6447809E-04   4.2778885E+05   -1.8138655E+00
   1.6523767E-04   4.2422910E+05   -1.8133268E+00
   1.6600075E-04   4.2070001E+05   -1.8127874E+00
   1.6676736E-04   4.1720132E+05   -1.8122475E+00
   1.6753751E-04   4.1373276E+05   -1.8117069E+00
   1.6831122E-04   4.1029406E+05   -1.8111657E+00
   1.6908849E-04   4.0688495E+05   -1.8106239E+00
   1.6986936E-04   4.0350517E+05   -1.8100815E+00
   1.7065384E-04   4.0015447E+05   -1.8095385E+00
   1.7144193E-04   3.9683259E+05   -1.8089949E+00
   1.7223367E-04   3.9353927E+05   -1.8084507E+00
   1.7302906E-04   3.9027426E+05   -1.8079060E+00
   1.7382813E-04   3.8703731E+05   -1.8073606E+00
   1.7463089E-04   3.8382818E+05   -1.8068147E+00
   1.7543735E-04   3.8064661E+05   -1.8062682E+00
   1.7624754E-04   3.7749236E+05   -1.8057211E+00
   1.7706147E-04   3.7436520E+05   -1.8051735E+00
   1.7787916E-04   3.7126487E+05   -1.8046253E+00
   1.7870062E-04   3.6819116E+05   -1.8040765E+00
   1.7952588E-04   3.6514381E+05   -1.8035272E+00
   1.8035495E-04   3.6212260E+05   -1.8029774E+00
   1.8118785E-04   3.5912731E+05   -1.8024270E+00
   1.8202459E-04   3.5615769E+05   -1.8018761E+00
   1.8286520E-04   3.5321352E+05   -1.8013247E+00
   1.8370969E-04   3.5029458E+05   -1.8007727E+00
   1.8455808E-04   3.4740065E+05   -1.8002202E+00
   1.8541039E-04   3.4453150E+05   -1.7996672E+00
   1.8626663E-04   3.4168692E+05   -1.7991138E+00
   1.8712683E-04   3.3886669E+05   -1.7985598E+00
   1.8799100E-04   3.3607060E+05   -1.7980053E+00
   1.8885917E-04   3.3329843E+05   -1.7974503E+00
   1.8973134E-04   3.3054997E+05   -1.7968948E+00
   1.9060754E-04   3.2782501E+05   -1.7963389E+00
   1.9148778E-04   3.2512336E+05   -1.7957825E+00
   1.9237209E-04   3.2244479E+05   -1.7952256E+00
   1.9326049E-04   3.1978911E+05   -1.7946682E+00
   1.9415299E-04   3.1715612E+05   -1.7941104E+00
   1.9504960E-04   3.1454562E+05   -1.7935521E+00
   1.9595036E-04   3.1195741E+05   -1.7929934E+00
   1.9685528E-04   3.0939129E+05   -1.7924342E+00
   1.9776438E-04   3.0684707E+05   -1.7918746E+00
   1.9867768E-04   3.0432456E+05   -1.7913146E+00
   1.9959519E-04   3.0182356E+05   -1.7907541E+00
   2.0051694E-04   2.9934389E+05   -1.7901933E+00
   2.0144295E-04   2.9688536E+05   -1.7896320E+00
   2.0237324E-04   2.9444779E+05   -1.7890703E+00
   2.0330782E-04   2.9203098E+05   -1.7885081E+00
   2.0424671E-04   2.8963476E+05   -1.7879456E+00
   2.0518995E-04   2.8725895E+05   -1.7873827E+00
   2.0613754E-04   2.8490336E+05   -1.7868194E+00
   2.0708950E-04   2.8256783E+05   -1.7862558E+00
   2.0804586E-04   2.8025217E+05   -1.7856917E+00
   2.0900664E-04   2.7795620E+05   -1.7851273E+00
   2.0997185E-04   2.7567977E+05   -1.7845625E+00
   2.1094152E-04   2.7342269E+05   -1.7839973E+00
   2.1191567E-04   2.7118480E+05   -1.7834318E+00
   2.1289432E-04   2.6896592E+05   -1.7828660E+00
   2.1387749E-04   2.6676590E+05   -1.7822998E+00
   2.1486520E-04   2.6458456E+05   -1.7817333E+00
   2.1585747E-04   2.6242174E+05   -1.7811664E+00
   2.1685432E-04   2.6027728E+05   -1.7805992E+00
   2.1785578E-04   2.5815102E+05   -1.7800317E+00
   2.1886186E-04   2.5604280E+05   -1.7794639E+00
   2.1987259E-04   2.5395246E+05   -1.7788957E+00
   2.2088798E-04   2.5187985E+05   -1.7783273E+00
   2.2190807E-04   2.4982481E+05   -1.7777585E+00
   2.2293286E-04   2.4778718E+05   -1.7771895E+00
   2.2396239E-04   2.4576682E+05   -1.7766202E+00
   2.2499667E-04   2.4376357E+05   -1.7760506E+00
   2.2603573E-04   2.4177729E+05   -1.7754807E+00
   2.2707958E-04   2.3980781E+05   -1.7749106E+00
   2.2812826E-04   2.3785501E+05   -1.7743402E+00
   2.2918178E-04   2.3591873E+05   -1.7737696E+00
   2.3024017E-04   2.3399882E+05   -1.7731987E+00
   2.3130344E-04   2.3209516E+05   -1.7726275E+00
   2.3237162E-04   2.3020758E+05   -1.7720561E+00
   2.3344474E-04   2.2833596E+05   -1.7714845E+00
   2.3452281E-04   2.2648015E+05   -1.7709127E+00
   2.3560586E-04   2.2464001E+05   -1.7703406E+00
   2.3669392E-04   2.2281541E+05   -1.7697683E+00
   2.3778699E-04   2.2100622E+05   -1.7691958E+00
   2.3888512E-04   2.1921230E+05   -1.7686231E+00
   2.3998831E-04   2.1743351E+05   -1.7680502E+00
   2.4109661E-04   2.1566972E+05   -1.7674771E+00
   2.4221001E-04   2.1392080E+05   -1.7669039E+00
   2.4332857E-04   2.1218663E+05   -1.7663304E+00
   2.4445228E-04   2.1046707E+05   -1.7657568E+00
   2.4558119E-04   2.0876200E+05   -1.7651830E+00
   2.4671531E-04   2.0707130E+05   -1.7646091E+00
   2.4785467E-04   2.0539482E+05   -1.7640350E+00
   2.4899928E-04   2.0373246E+05   -1.7634607E+00
   2.5014919E-04   2.0208409E+05   -1.7628863E+00
   2.5130440E-04   2.0044958E+05   -1.7623118E+00
   2.5246495E-04   1.9882883E+05   -1.7617371E+00
   2.5363086E-04   1.9722169E+05   -1.7611624E+00
   2.5480216E-04   1.9562807E+05   -1.7605875E+00
   2.5597886E-04   1.9404784E+05   -1.7600124E+00
   2.5716100E-04   1.9248088E+05   -1.7594373E+00
   2.5834859E-04   1.9092709E+05   -1.7588621E+00
   2.5954168E-04   1.8938633E+05   -1.7582868E+00
   2.6074027E-04   1.8785851E+05   -1.7577114E+00
   2.6194439E-04   1.8634351E+05   -1.7571359E+00
   2.6315408E-04   1.8484122E+05   -1.7565603E+00
   2.6436935E-04   1.8335152E+05   -1.7559847E+00
   2.6559024E-04   1.8187431E+05   -1.7554090E+00
   2.6681676E-04   1.8040949E+05   -1.7548332E+00
   2.6804895E-04   1.7895693E+05   -1.7542574E+00
   2.6928683E-04   1.7751654E+05   -1.7536815E+00
   2.7053042E-04   1.7608821E+05   -1.7531057E+00
   2.7177976E-04   1.7467184E+05   -1.7525297E+00
   2.7303487E-04   1.7326732E+05   -1.7519538E+00
   2.7429577E-04   1.7187455E+05   -1.7513778E+00
   2.7556250E-04   1.7049343E+05   -1.7508018E+00
   2.7683507E-04   1.6912385E+05   -1.7502258E+00
   2.7811353E-04   1.6776573E+05   -1.7496498E+00
   2.7939788E-04   1.6641895E+05   -1.7490738E+00
   2.8068817E-04   1.6508342E+05   -1.7484978E+00
   2.8198442E-04   1.6375904E+05   -1.7479218E+00
   2.8328665E-04   1.6244572E+05   -1.7473459E+00
   2.8459490E-04   1.6114335E+05   -1.7467700E+00
   2.8590919E-04   1.5985186E+05   -1.7461941E+00
   2.8722955E-04   1.5857113E+05   -1.7456182E+00
   2.8855600E-04   1.5730109E+05   -1.7450424E+00
   2.8988859E-04   1.5604163E+05   -1.7444667E+00
   2.9122732E-04   1.5479266E+05   -1.7438910E+00
   2.9257224E-04   1.5355410E+05   -1.7433153E+00
   2.9392337E-04   1.5232585E+05   -1.7427398E+00
   2.9528074E-04   1.5110783E+05   -1.7421643E+00
   2.9664438E-04   1.4989994E+05   -1.7415889E+00
   2.9801431E-04   1.4870211E+05   -1.7410136E+00
   2.9939057E-04   1.4751424E+05   -1.7404383E+00
   3.0077319E-04   1.4633624E+05   -1.7398632E+00
   3.0216219E-04   1.4516804E+05   -1.7392882E+00
   3.0355761E-04   1.4400954E+05   -1.7387133E+00
   3.0495947E-04   1.4286066E+05   -1.7381385E+00
   3.0636780E-04   1.4172133E+05   -1.7375639E+00
   3.0778264E-04   1.4059146E+05   -1.7369894E+00
   3.0920401E-04   1.3947096E+05   -1.7364150E+00
   3.1063195E-04   1.3835976E+05   -1.7358407E+00
   3.1206648E-04   1.3725777E+05   -1.7352666E+00
   3.1350764E-04   1.3616493E+05   -1.7346927E+00
   3.1495545E-04   1.3508114E+05   -1.7341189E+00
   3.1640994E-04   1.3400633E+05   -1.7335453E+00
   3.1787116E-04   1.3294042E+05   -1.7329719E+00
   3.1933912E-04   1.3188335E+05   -1.7323986E+00
   3.2081386E-04   1.3083502E+05   -1.7318256E+00
   3.2229541E-04   1.2979537E+05   -1.7312527E+00
   3.2378381E-04   1.2876432E+05   -1.7306800E+00
   3.2527908E-04   1.2774179E+05   -1.7301075E+00
   3.2678125E-04   1.2672772E+05   -1.7295353E+00
   3.2829036E-04   1.2572204E+05   -1.7289632E+00
   3.2980644E-04   1.2472466E+05   -1.7283914E+00
   3.3132952E-04   1.2373552E+05   -1.7278198E+00
   3.3285963E-04   1.2275455E+05   -1.7272484E+00
   3.3439681E-04   1.2178167E+05   -1.7266773E+00
   3.3594109E-04   1.2081683E+05   -1.7261064E+00
   3.3749250E-04   1.1985994E+05   -1.7255357E+00
   3.3905108E-04   1.1891094E+05   -1.7249653E+00
   3.4061685E-04   1.1796977E+05   -1.7243952E+00
   3.4218986E-04   1.1703636E+05   -1.7238254E+00
   3.4377013E-04   1.1611063E+05   -1.7232558E+00
   3.4535769E-04   1.1519253E+05   -1.7226865E+00
   3.4695259E-04   1.1428199E+05   -1.7221175E+00
   3.4855485E-04   1.1337894E+05   -1.7215488E+00
   3.5016452E-04   1.1248333E+05   -1.7209803E+00
   3.5178161E-04   1.1159508E+05   -1.7204122E+00
   3.5340618E-04   1.1071413E+05   -1.7198444E+00
   3.5503824E-04   1.0984043E+05   -1.7192769E+00
   3.5667785E-04   1.0897391E+05   -1.7187098E+00
   3.5832502E-04   1.0811450E+05   -1.7181429E+00
   3.5997981E-04   1.0726215E+05   -1.7175764E+00
   3.6164223E-04   1.0641680E+05   -1.7170102E+00
   3.6331233E-04   1.0557839E+05   -1.7164444E+00
   3.6499015E-04   1.0474685E+05   -1.7158789E+00
   3.6667571E-04   1.0392214E+05   -1.7153138E+00
   3.6836906E-04   1.0310419E+05   -1.7147490E+00
   3.7007022E-04   1.0229294E+05   -1.7141846E+00
   3.7177925E-04   1.0148834E+05   -1.7136206E+00
   3.7349616E-04   1.0069032E+05   -1.7130569E+00
   3.7522101E-04   9.9898847E+04   -1.7124936E+00
   3.7695382E-04   9.9113848E+04   -1.7119307E+00
   3.7869463E-04   9.8335273E+04   -1.7113683E+00
   3.8044348E-04   9.7563067E+04   -1.7108062E+00
   3.8220041E-04   9.6797175E+04   -1.7102445E+00
   3.8396545E-04   9.6037544E+04   -1.7096832E+00
   3.8573864E-04   9.5284120E+04   -1.7091224E+00
   3.8752002E-04   9.4536851E+04   -1.7085619E+00
   3.8930963E-04   9.3795685E+04   -1.7080019E+00
   3.9110750E-04   9.3060570E+04   -1.7074423E+00
   3.9291368E-04   9.2331454E+04   -1.7068832E+00
   3.9472820E-04   9.1608286E+04   -1.7063245E+00
   3.9655109E-04   9.0891017E+04   -1.7057663E+00
   3.9838241E-04   9.0179595E+04   -1.7052085E+00
   4.0022218E-04   8.9473971E+04   -1.7046511E+00
   4.0207045E-04   8.8774097E+04   -1.7040943E+00
   4.0392725E-04   8.8079923E+04   -1.7035379E+00
   4.0579263E-04   8.7391402E+04   -1.7029819E+00
   4.0766662E-04   8.6708484E+04   -1.7024265E+00
   4.0954927E-04   8.6031123E+04   -1.7018715E+00
   4.1144061E-04   8.5359272E+04   -1.7013171E+00
   4.1334068E-04   8.4692884E+04   -1.7007631E+00
   4.1524953E-04   8.4031912E+04   -1.7002096E+00
   4.1716720E-04   8.3376312E+04   -1.6996567E+00
   4.1909372E-04   8.2726037E+04   -1.6991042E+00
   4.2102914E-04   8.2081042E+04   -1.6985523E+00
   4.2297350E-04   8.1441283E+04   -1.6980009E+00
   4.2492683E-04   8.0806716E+04   -1.6974500E+00
   4.2688919E-04   8.0177297E+04   -1.6968997E+00
   4.2886061E-04   7.9552982E+04   -1.6963499E+00
   4.3084113E-04   7.8933729E+04   -1.6958006E+00
   4.3283080E-04   7.8319493E+04   -1.6952519E+00
   4.3482966E-04   7.7710234E+04   -1.6947037E+00
   4.3683775E-04   7.7105909E+04   -1.6941561E+00
   4.3885511E-04   7.6506477E+04   -1.6936091E+00
   4.4088179E-04   7.5911896E+04   -1.6930626E+00
   4.4291783E-04   7.5322125E+04   -1.6925167E+00
   4.4496327E-04   7.4737124E+04   -1.6919713E+00
   4.4701816E-04   7.4156853E+04   -1.6914266E+00
   4.4908253E-04   7.3581272E+04   -1.6908824E+00
   4.5115644E-04   7.3010341E+04   -1.6903389E+00
   4.5323993E-04   7.2444022E+04   -1.6897959E+00
   4.5533304E-04   7.1882275E+04   -1.6892535E+00
   4.5743582E-04   7.1325062E+04   -1.6887117E+00
   4.5954830E-04   7.0772346E+04   -1.6881706E+00
   4.6167054E-04   7.0224087E+04   -1.6876301E+00
   4.6380259E-04   6.9680249E+04   -1.6870901E+00
   4.6594448E-04   6.9140794E+04   -1.6865508E+00
   4.6809626E-04   6.8605686E+04   -1.6860122E+00
   4.7025797E-04   6.8074889E+04   -1.6854741E+00
   4.7242967E-04   6.7548365E+04   -1.6849367E+00
   4.7461140E-04   6.7026080E+04   -1.6844000E+00
   4.7680321E-04   6.6507998E+04   -1.6838639E+00
   4.7900514E-04   6.5994082E+04   -1.6833284E+00
   4.8121723E-04   6.5484300E+04   -1.6827936E+00
   4.8343954E-04   6.4978615E+04   -1.6822595E+00
   4.8567212E-04   6.4476995E+04   -1.6817260E+00
   4.8791500E-04   6.3979403E+04   -1.6811932E+00
   4.9016825E-04   6.3485808E+04   -1.6806611E+00
   4.9243189E-04   6.2996174E+04   -1.6801297E+00
   4.9470600E-04   6.2510471E+04   -1.6795989E+00
   4.9699060E-04   6.2028663E+04   -1.6790688E+00
   4.9928575E-04   6.1550719E+04   -1.6785395E+00
   5.0159151E-04   6.1076607E+04   -1.6780108E+00
   5.0390791E-04   6.0606294E+04   -1.6774828E+00
   5.0623501E-04   6.0139749E+04   -1.6769555E+00
   5.0857286E-04   5.9676941E+04   -1.6764289E+00
   5.1092150E-04   5.9217837E+04   -1.6759031E+00
   5.1328099E-04   5.8762408E+04   -1.6753779E+00
   5.1565137E-04   5.8310623E+04   -1.6748535E+00
   5.1803270E-04   5.7862450E+04   -1.6743298E+00
   5.2042503E-04   5.7417861E+04   -1.6738068E+00
   5.2282841E-04   5.6976825E+04   -1.6732846E+00
   5.2524289E-04   5.6539312E+04   -1.6727631E+00
   5.2766851E-04   5.6105294E+04   -1.6722423E+00
   5.3010534E-04   5.5674741E+04   -1.6717223E+00
   5.3255342E-04   5.5247625E+04   -1.6712030E+00
   5.3501281E-04   5.4823916E+04   -1.6706845E+00
   5.3748356E-04   5.4403586E+04   -1.6701668E+00
   5.3996571E-04   5.3986608E+04   -1.6696498E+00
   5.4245933E-04   5.3572953E+04   -1.6691335E+00
   5.4496446E-04   5.3162594E+04   -1.6686181E+00
   5.4748117E-04   5.2755504E+04   -1.6681034E+00
   5.5000949E-04   5.2351655E+04   -1.6675894E+00
   5.5254949E-04   5.1951020E+04   -1.6670763E+00
   5.5510123E-04   5.1553573E+04   -1.6665639E+00
   5.5766474E-04   5.1159288E+04   -1.6660524E+00
   5.6024010E-04   5.0768137E+04   -1.6655416E+00
   5.6282734E-04   5.0380096E+04   -1.6650316E+00
   5.6542654E-04   4.9995138E+04   -1.6645224E+00
   5.6803774E-04   4.9613238E+04   -1.6640140E+00
   5.7066099E-04   4.9234370E+04   -1.6635064E+00
   5.7329637E-04   4.8858509E+04   -1.6629996E+00
   5.7594391E-04   4.8485631E+04   -1.6624937E+00
   5.7860368E-04   4.8115711E+04   -1.6619885E+00
   5.8127573E-04   4.7748725E+04   -1.6614842E+00
   5.8396012E-04   4.7384647E+04   -1.6609807E+00
   5.8665691E-04   4.7023455E+04   -1.6604780E+00
   5.8936616E-04   4.6665123E+04   -1.6599761E+00
   5.9208791E-04   4.6309629E+04   -1.6594751E+00
   5.9482223E-04   4.5956950E+04   -1.6589749E+00
   5.9756919E-04   4.5607061E+04   -1.6584755E+00
   6.0032882E-04   4.5259940E+04   -1.6579770E+00
   6.0310120E-04   4.4915564E+04   -1.6574793E+00
   6.0588639E-04   4.4573911E+04   -1.6569825E+00
   6.0868443E-04   4.4234957E+04   -1.6564865E+00
   6.1149540E-04   4.3898682E+04   -1.6559914E+00
   6.1431935E-04   4.3565062E+04   -1.6554971E+00
   6.1715634E-04   4.3234075E+04   -1.6550037E+00
   6.2000644E-04   4.2905701E+04   -1.6545111E+00
   6.2286969E-04   4.2579918E+04   -1.6540194E+00
