#        a       HoverH0(a)       dlogHdloga_of_a(a)
   1.0000000E-04   1.1326060E+06   -1.8470008E+00
   1.0046181E-04   1.1230097E+06   -1.8465111E+00
   1.0092575E-04   1.1134972E+06   -1.8460206E+00
   1.0139184E-04   1.1040677E+06   -1.8455292E+00
   1.0186008E-04   1.0947206E+06   -1.8450369E+00
   1.0233048E-04   1.0854552E+06   -1.8445437E+00
   1.0280305E-04   1.0762705E+06   -1.8440497E+00
   1.0327781E-04   1.0671660E+06   -1.8435549E+00
   1.0375475E-04   1.0581410E+06   -1.8430591E+00
   1.0423390E-04   1.0491947E+06   -1.8425626E+00
   1.0471527E-04   1.0403264E+06   -1.8420652E+00
   1.0519885E-04   1.0315354E+06   -1.8415669E+00
   1.0568467E-04   1.0228210E+06   -1.8410678E+00
   1.0617274E-04   1.0141826E+06   -1.8405678E+00
   1.0666305E-04   1.0056195E+06   -1.8400671E+00
   1.0715563E-04   9.9713100E+05   -1.8395655E+00
   1.0765049E-04   9.8871643E+05   -1.8390630E+00
   1.0814763E-04   9.8037514E+05   -1.8385597E+00
   1.0864707E-04   9.7210648E+05   -1.8380557E+00
   1.0914881E-04   9.6390979E+05   -1.8375508E+00
   1.0965287E-04   9.5578444E+05   -1.8370450E+00
   1.1015926E-04   9.4772980E+05   -1.8365385E+00
   1.1066799E-04   9.3974523E+05   -1.8360312E+00
   1.1117906E-04   9.3183011E+05   -1.8355230E+00
   1.1169250E-04   9.2398381E+05   -1.8350141E+00
   1.1220831E-04   9.1620574E+05   -1.8345043E+00
   1.1272650E-04   9.0849528E+05   -1.8339938E+00
   1.1324708E-04   9.0085183E+05   -1.8334824E+00
   1.1377007E-04   8.9327479E+05   -1.8329703E+00
   1.1429547E-04   8.8576357E+05   -1.8324574E+00
   1.1482330E-04   8.7831759E+05   -1.8319437E+00
   1.1535356E-04   8.7093627E+05   -1.8314293E+00
   1.1588628E-04   8.6361903E+05   -1.8309140E+00
   1.1642145E-04   8.5636530E+05   -1.8303980E+00
   1.1695910E-04   8.4917451E+05   -1.8298813E+00
   1.1749923E-04   8.4204611E+05   -1.8293637E+00
   1.1804185E-04   8.3497954E+05   -1.8288454E+00
   1.1858698E-04   8.2797425E+05   -1.8283264E+00
   1.1913463E-04   8.2102970E+05   -1.8278066E+00
   1.1968481E-04   8.1414535E+05   -1.8272861E+00
   1.2023752E-04   8.0732066E+05   -1.8267648E+00
   1.2079279E-04   8.0055511E+05   -1.8262428E+00
   1.2135063E-04   7.9384816E+05   -1.8257200E+00
   1.2191104E-04   7.8719930E+05   -1.8251965E+00
   1.2247403E-04   7.8060802E+05   -1.8246723E+00
   1.2303963E-04   7.7407379E+05   -1.8241474E+00
   1.2360784E-04   7.6759612E+05   -1.8236218E+00
   1.2417868E-04   7.6117449E+05   -1.8230954E+00
   1.2475215E-04   7.5480843E+05   -1.8225683E+00
   1.2532826E-04   7.4849742E+05   -1.8220405E+00
   1.2590704E-04   7.4224098E+05   -1.8215121E+00
   1.2648850E-04   7.3603864E+05   -1.8209829E+00
   1.2707263E-04   7.2988990E+05   -1.8204530E+00
   1.2765947E-04   7.2379430E+05   -1.8199225E+00
   1.2824901E-04   7.1775136E+05   -1.8193912E+00
   1.2884128E-04   7.1176062E+05   -1.8188593E+00
   1.2943628E-04   7.0582161E+05   -1.8183267E+00
   1.3003403E-04   6.9993387E+05   -1.8177934E+00
   1.3063454E-04   6.9409696E+05   -1.8172595E+00
   1.3123783E-04   6.8831041E+05   -1.8167249E+00
   1.3184390E-04   6.8257379E+05   -1.8161896E+00
   1.3245277E-04   6.7688664E+05   -1.8156537E+00
   1.3306445E-04   6.7124855E+05   -1.8151172E+00
   1.3367895E-04   6.6565906E+05   -1.8145800E+00
   1.3429630E-04   6.6011774E+05   -1.8140421E+00
   1.3491649E-04   6.5462418E+05   -1.8135037E+00
   1.3553955E-04   6.4917795E+05   -1.8129645E+00
   1.3616548E-04   6.4377864E+05   -1.8124248E+00
   1.3679431E-04   6.3842581E+05   -1.8118845E+00
   1.3742604E-04   6.3311907E+05   -1.8113435E+00
   1.3806069E-04   6.2785801E+05   -1.8108019E+00
   1.3869827E-04   6.2264222E+05   -1.8102597E+00
   1.3933879E-04   6.1747131E+05   -1.8097169E+00
   1.3998227E-04   6.1234486E+05   -1.8091735E+00
   1.4062872E-04   6.0726251E+05   -1.8086295E+00
   1.4127816E-04   6.0222384E+05   -1.8080850E+00
   1.4193060E-04   5.9722848E+05   -1.8075398E+00
   1.4258605E-04   5.9227604E+05   -1.8069941E+00
   1.4324453E-04   5.8736615E+05   -1.8064478E+00
   1.4390605E-04   5.8249843E+05   -1.8059009E+00
   1.4457062E-04   5.7767251E+05   -1.8053534E+00
   1.4523826E-04   5.7288801E+05   -1.8048054E+00
   1.4590899E-04   5.6814458E+05   -1.8042569E+00
   1.4658281E-04   5.6344185E+05   -1.8037078E+00
   1.4725974E-04   5.5877945E+05   -1.8031581E+00
   1.4793981E-04   5.5415705E+05   -1.8026079E+00
   1.4862301E-04   5.4957427E+05   -1.8020572E+00
   1.4930936E-04   5.4503077E+05   -1.8015060E+00
   1.4999889E-04   5.4052622E+05   -1.8009542E+00
   1.5069160E-04   5.3606025E+05   -1.8004019E+00
   1.5138751E-04   5.3163254E+05   -1.7998491E+00
   1.5208663E-04   5.2724274E+05   -1.7992958E+00
   1.5278899E-04   5.2289052E+05   -1.7987420E+00
   1.5349458E-04   5.1857555E+05   -1.7981877E+00
   1.5420343E-04   5.1429751E+05   -1.7976328E+00
   1.5491556E-04   5.1005606E+05   -1.7970776E+00
   1.5563098E-04   5.0585089E+05   -1.7965218E+00
   1.5634970E-04   5.0168167E+05   -1.7959655E+00
   1.5707174E-04   4.9754809E+05   -1.7954088E+00
   1.5779711E-04   4.9344983E+05   -1.7948516E+00
   1.5852584E-04   4.8938659E+05   -1.7942940E+00
   1.5925792E-04   4.8535805E+05   -1.7937358E+00
   1.5999339E-04   4.8136391E+05   -1.7931773E+00
   1.6073226E-04   4.7740388E+05   -1.7926183E+00
   1.6147454E-04   4.7347763E+05   -1.7920588E+00
   1.6222024E-04   4.6958489E+05   -1.7914990E+00
   1.6296939E-04   4.6572536E+05   -1.7909387E+00
   1.6372200E-04   4.6189874E+05   -1.7903779E+00
   1.6447809E-04   4.5810475E+05   -1.7898168E+00
   1.6523767E-04   4.5434310E+05   -1.7892552E+00
   1.6600075E-04   4.5061350E+05   -1.7886933E+00
   1.6676736E-04   4.4691567E+05   -1.7881309E+00
   1.6753751E-04   4.4324934E+05   -1.7875681E+00
   1.6831122E-04   4.3961422E+05   -1.7870050E+00
   1.6908849E-04   4.3601005E+05   -1.7864414E+00
   1.6986936E-04   4.3243655E+05   -1.7858775E+00
   1.7065384E-04   4.2889345E+05   -1.7853132E+00
   1.7144193E-04   4.2538049E+05   -1.7847486E+00
   1.7223367E-04   4.2189740E+05   -1.7841836E+00
   1.7302906E-04   4.1844392E+05   -1.7836182E+00
   1.7382813E-04   4.1501979E+05   -1.7830525E+00
   1.7463089E-04   4.1162476E+05   -1.7824864E+00
   1.7543735E-04   4.0825856E+05   -1.7819200E+00
   1.7624754E-04   4.0492094E+05   -1.7813532E+00
   1.7706147E-04   4.0161167E+05   -1.7807862E+00
   1.7787916E-04   3.9833047E+05   -1.7802188E+00
   1.7870062E-04   3.9507712E+05   -1.7796511E+00
   1.7952588E-04   3.9185137E+05   -1.7790831E+00
   1.8035495E-04   3.8865297E+05   -1.7785147E+00
   1.8118785E-04   3.8548169E+05   -1.7779461E+00
   1.8202459E-04   3.8233728E+05   -1.7773772E+00
   1.8286520E-04   3.7921952E+05   -1.7768080E+00
   1.8370969E-04   3.7612817E+05   -1.7762385E+00
   1.8455808E-04   3.7306300E+05   -1.7756687E+00
   1.8541039E-04   3.7002378E+05   -1.7750987E+00
   1.8626663E-04   3.6701028E+05   -1.7745284E+00
   1.8712683E-04   3.6402228E+05   -1.7739579E+00
   1.8799100E-04   3.6105956E+05   -1.7733871E+00
   1.8885917E-04   3.5812190E+05   -1.7728160E+00
   1.8973134E-04   3.5520906E+05   -1.7722447E+00
   1.9060754E-04   3.5232085E+05   -1.7716732E+00
   1.9148778E-04   3.4945705E+05   -1.7711014E+00
   1.9237209E-04   3.4661743E+05   -1.7705295E+00
   1.9326049E-04   3.4380180E+05   -1.7699573E+00
   1.9415299E-04   3.4100993E+05   -1.7693849E+00
   1.9504960E-04   3.3824163E+05   -1.7688123E+00
   1.9595036E-04   3.3549669E+05   -1.7682394E+00
   1.9685528E-04   3.3277490E+05   -1.7676664E+00
   1.9776438E-04   3.3007607E+05   -1.7670933E+00
   1.9867768E-04   3.2739999E+05   -1.7665199E+00
   1.9959519E-04   3.2474646E+05   -1.7659463E+00
   2.0051694E-04   3.2211529E+05   -1.7653726E+00
   2.0144295E-04   3.1950628E+05   -1.7647988E+00
   2.0237324E-04   3.1691924E+05   -1.7642247E+00
   2.0330782E-04   3.1435399E+05   -1.7636505E+00
   2.0424671E-04   3.1181032E+05   -1.7630762E+00
   2.0518995E-04   3.0928805E+05   -1.7625017E+00
   2.0613754E-04   3.0678700E+05   -1.7619272E+00
   2.0708950E-04   3.0430697E+05   -1.7613524E+00
   2.0804586E-04   3.0184780E+05   -1.7607776E+00
   2.0900664E-04   2.9940929E+05   -1.7602026E+00
   2.0997185E-04   2.9699127E+05   -1.7596275E+00
   2.1094152E-04   2.9459356E+05   -1.7590524E+00
   2.1191567E-04   2.9221597E+05   -1.7584771E+00
   2.1289432E-04   2.8985835E+05   -1.7579018E+00
   2.1387749E-04   2.8752051E+05   -1.7573263E+00
   2.1486520E-04   2.8520228E+05   -1.7567508E+00
   2.1585747E-04   2.8290349E+05   -1.7561752E+00
   2.1685432E-04   2.8062398E+05   -1.7555995E+00
   2.1785578E-04   2.7836357E+05   -1.7550238E+00
   2.1886186E-04   2.7612210E+05   -1.7544481E+00
   2.1987259E-04   2.7389941E+05   -1.7538722E+00
   2.2088798E-04   2.7169533E+05   -1.7532964E+00
   2.2190807E-04   2.6950970E+05   -1.7527205E+00
   2.2293286E-04   2.6734236E+05   -1.7521446E+00
   2.2396239E-04   2.6519316E+05   -1.7515686E+00
   2.2499667E-04   2.6306193E+05   -1.7509926E+00
   2.2603573E-04   2.6094852E+05   -1.7504167E+00
   2.2707958E-04   2.5885278E+05   -1.7498407E+00
   2.2812826E-04   2.5677455E+05   -1.7492647E+00
   2.2918178E-04   2.5471368E+05   -1.7486887E+00
   2.3024017E-04   2.5267003E+05   -1.7481128E+00
   2.3130344E-04   2.5064343E+05   -1.7475368E+00
   2.3237162E-04   2.4863375E+05   -1.7469609E+00
   2.3344474E-04   2.4664084E+05   -1.7463851E+00
   2.3452281E-04   2.4466455E+05   -1.7458092E+00
   2.3560586E-04   2.4270474E+05   -1.7452334E+00
   2.3669392E-04   2.4076127E+05   -1.7446577E+00
   2.3778699E-04   2.3883399E+05   -1.7440820E+00
   2.3888512E-04   2.3692277E+05   -1.7435063E+00
   2.3998831E-04   2.3502747E+05   -1.7429308E+00
   2.4109661E-04   2.3314795E+05   -1.7423553E+00
   2.4221001E-04   2.3128407E+05   -1.7417799E+00
   2.4332857E-04   2.2943570E+05   -1.7412046E+00
   2.4445228E-04   2.2760270E+05   -1.7406293E+00
   2.4558119E-04   2.2578495E+05   -1.7400542E+00
   2.4671531E-04   2.2398231E+05   -1.7394792E+00
   2.4785467E-04   2.2219465E+05   -1.7389043E+00
   2.4899928E-04   2.2042184E+05   -1.7383295E+00
   2.5014919E-04   2.1866375E+05   -1.7377548E+00
   2.5130440E-04   2.1692026E+05   -1.7371803E+00
   2.5246495E-04   2.1519124E+05   -1.7366059E+00
   2.5363086E-04   2.1347657E+05   -1.7360316E+00
   2.5480216E-04   2.1177612E+05   -1.7354575E+00
   2.5597886E-04   2.1008978E+05   -1.7348835E+00
   2.5716100E-04   2.0841741E+05   -1.7343097E+00
   2.5834859E-04   2.0675890E+05   -1.7337361E+00
   2.5954168E-04   2.0511413E+05   -1.7331626E+00
   2.6074027E-04   2.0348298E+05   -1.7325893E+00
   2.6194439E-04   2.0186534E+05   -1.7320162E+00
   2.6315408E-04   2.0026108E+05   -1.7314433E+00
   2.6436935E-04   1.9867010E+05   -1.7308706E+00
   2.6559024E-04   1.9709228E+05   -1.7302981E+00
   2.6681676E-04   1.9552751E+05   -1.7297258E+00
   2.6804895E-04   1.9397567E+05   -1.7291537E+00
   2.6928683E-04   1.9243665E+05   -1.7285818E+00
   2.7053042E-04   1.9091035E+05   -1.7280101E+00
   2.7177976E-04   1.8939665E+05   -1.7274387E+00
   2.7303487E-04   1.8789545E+05   -1.7268675E+00
   2.7429577E-04   1.8640663E+05   -1.7262966E+00
   2.7556250E-04   1.8493010E+05   -1.7257259E+00
   2.7683507E-04   1.8346575E+05   -1.7251555E+00
   2.7811353E-04   1.8201347E+05   -1.7245853E+00
   2.7939788E-04   1.8057317E+05   -1.7240154E+00
   2.8068817E-04   1.7914473E+05   -1.7234457E+00
   2.8198442E-04   1.7772805E+05   -1.7228764E+00
   2.8328665E-04   1.7632304E+05   -1.7223073E+00
   2.8459490E-04   1.7492960E+05   -1.7217385E+00
   2.8590919E-04   1.7354763E+05   -1.7211700E+00
   2.8722955E-04   1.7217702E+05   -1.7206018E+00
   2.8855600E-04   1.7081768E+05   -1.7200340E+00
   2.8988859E-04   1.6946952E+05   -1.7194664E+00
   2.9122732E-04   1.6813244E+05   -1.7188991E+00
   2.9257224E-04   1.6680635E+05   -1.7183322E+00
   2.9392337E-04   1.6549114E+05   -1.7177656E+00
   2.9528074E-04   1.6418673E+05   -1.7171994E+00
   2.9664438E-04   1.6289303E+05   -1.7166335E+00
   2.9801431E-04   1.6160995E+05   -1.7160679E+00
   2.9939057E-04   1.6033739E+05   -1.7155027E+00
   3.0077319E-04   1.5907526E+05   -1.7149378E+00
   3.0216219E-04   1.5782348E+05   -1.7143733E+00
   3.0355761E-04   1.5658196E+05   -1.7138092E+00
   3.0495947E-04   1.5535061E+05   -1.7132455E+00
   3.0636780E-04   1.5412934E+05   -1.7126821E+00
   3.0778264E-04   1.5291807E+05   -1.7121191E+00
   3.0920401E-04   1.5171671E+05   -1.7115565E+00
   3.1063195E-04   1.5052518E+05   -1.7109943E+00
   3.1206648E-04   1.4934339E+05   -1.7104326E+00
   3.1350764E-04   1.4817127E+05   -1.7098712E+00
   3.1495545E-04   1.4700872E+05   -1.7093102E+00
   3.1640994E-04   1.4585568E+05   -1.7087497E+00
   3.1787116E-04   1.4471205E+05   -1.7081896E+00
   3.1933912E-04   1.4357776E+05   -1.7076299E+00
   3.2081386E-04   1.4245272E+05   -1.7070706E+00
   3.2229541E-04   1.4133687E+05   -1.7065118E+00
   3.2378381E-04   1.4023012E+05   -1.7059535E+00
   3.2527908E-04   1.3913239E+05   -1.7053956E+00
   3.2678125E-04   1.3804361E+05   -1.7048381E+00
   3.2829036E-04   1.3696370E+05   -1.7042811E+00
   3.2980644E-04   1.3589259E+05   -1.7037246E+00
   3.3132952E-04   1.3483020E+05   -1.7031686E+00
   3.3285963E-04   1.3377645E+05   -1.7026130E+00
   3.3439681E-04   1.3273129E+05   -1.7020579E+00
   3.3594109E-04   1.3169462E+05   -1.7015033E+00
   3.3749250E-04   1.3066639E+05   -1.7009492E+00
   3.3905108E-04   1.2964651E+05   -1.7003956E+00
   3.4061685E-04   1.2863493E+05   -1.6998426E+00
   3.4218986E-04   1.2763156E+05   -1.6992900E+00
   3.4377013E-04   1.2663634E+05   -1.6987379E+00
   3.4535769E-04   1.2564920E+05   -1.6981864E+00
   3.4695259E-04   1.2467007E+05   -1.6976354E+00
   3.4855485E-04   1.2369888E+05   -1.6970849E+00
   3.5016452E-04   1.2273558E+05   -1.6965349E+00
   3.5178161E-04   1.2178008E+05   -1.6959855E+00
   3.5340618E-04   1.2083232E+05   -1.6954366E+00
   3.5503824E-04   1.1989225E+05   -1.6948883E+00
   3.5667785E-04   1.1895979E+05   -1.6943406E+00
   3.5832502E-04   1.1803488E+05   -1.6937934E+00
   3.5997981E-04   1.1711745E+05   -1.6932468E+00
   3.6164223E-04   1.1620745E+05   -1.6927007E+00
   3.6331233E-04   1.1530481E+05   -1.6921552E+00
   3.6499015E-04   1.1440947E+05   -1.6916103E+00
   3.6667571E-04   1.1352136E+05   -1.6910660E+00
   3.6836906E-04   1.1264044E+05   -1.6905223E+00
   3.7007022E-04   1.1176662E+05   -1.6899792E+00
   3.7177925E-04   1.1089987E+05   -1.6894366E+00
   3.7349616E-04   1.1004011E+05   -1.6888947E+00
   3.7522101E-04   1.0918728E+05   -1.6883534E+00
   3.7695382E-04   1.0834134E+05   -1.6878127E+00
   3.7869463E-04   1.0750222E+05   -1.6872726E+00
   3.8044348E-04   1.0666986E+05   -1.6867331E+00
   3.8220041E-04   1.0584422E+05   -1.6861943E+00
   3.8396545E-04   1.0502522E+05   -1.6856561E+00
   3.8573864E-04   1.0421282E+05   -1.6851185E+00
   3.8752002E-04   1.0340695E+05   -1.6845816E+00
   3.8930963E-04   1.0260758E+05   -1.6840454E+00
   3.9110750E-04   1.0181463E+05   -1.6835097E+00
   3.9291368E-04   1.0102806E+05   -1.6829748E+00
   3.9472820E-04   1.0024782E+05   -1.6824405E+00
   3.9655109E-04   9.9473843E+04   -1.6819068E+00
   3.9838241E-04   9.8706087E+04   -1.6813738E+00
   4.0022218E-04   9.7944496E+04   -1.6808415E+00
   4.0207045E-04   9.7189020E+04   -1.6803099E+00
   4.0392725E-04   9.6439608E+04   -1.6797790E+00
   4.0579263E-04   9.5696208E+04   -1.6792487E+00
   4.0766662E-04   9.4958770E+04   -1.6787191E+00
   4.0954927E-04   9.4227245E+04   -1.6781903E+00
   4.1144061E-04   9.3501583E+04   -1.6776621E+00
   4.1334068E-04   9.2781734E+04   -1.6771346E+00
   4.1524953E-04   9.2067652E+04   -1.6766079E+00
   4.1716720E-04   9.1359287E+04   -1.6760818E+00
   4.1909372E-04   9.0656591E+04   -1.6755565E+00
   4.2102914E-04   8.9959518E+04   -1.6750319E+00
   4.2297350E-04   8.9268020E+04   -1.6745080E+00
   4.2492683E-04   8.8582052E+04   -1.6739848E+00
   4.2688919E-04   8.7901566E+04   -1.6734624E+00
   4.2886061E-04   8.7226518E+04   -1.6729407E+00
   4.3084113E-04   8.6556862E+04   -1.6724197E+00
   4.3283080E-04   8.5892553E+04   -1.6718995E+00
   4.3482966E-04   8.5233547E+04   -1.6713800E+00
   4.3683775E-04   8.4579799E+04   -1.6708613E+00
   4.3885511E-04   8.3931266E+04   -1.6703434E+00
   4.4088179E-04   8.3287904E+04   -1.6698262E+00
   4.4291783E-04   8.2649670E+04   -1.6693097E+00
   4.4496327E-04   8.2016523E+04   -1.6687941E+00
   4.4701816E-04   8.1388419E+04   -1.6682792E+00
   4.4908253E-04   8.0765316E+04   -1.6677650E+00
   4.5115644E-04   8.0147173E+04   -1.6672517E+00
   4.5323993E-04   7.9533950E+04   -1.6667391E+00
   4.5533304E-04   7.8925605E+04   -1.6662273E+00
   4.5743582E-04   7.8322097E+04   -1.6657163E+00
   4.5954830E-04   7.7723388E+04   -1.6652061E+00
   4.6167054E-04   7.7129436E+04   -1.6646967E+00
   4.6380259E-04   7.6540202E+04   -1.6641881E+00
   4.6594448E-04   7.5955648E+04   -1.6636803E+00
   4.6809626E-04   7.5375734E+04   -1.6631733E+00
   4.7025797E-04   7.4800422E+04   -1.6626671E+00
   4.7242967E-04   7.4229675E+04   -1.6621618E+00
   4.7461140E-04   7.3663453E+04   -1.6616572E+00
   4.7680321E-04   7.3101721E+04   -1.6611535E+00
   4.7900514E-04   7.2544440E+04   -1.6606506E+00
   4.8121723E-04   7.1991575E+04   -1.6601485E+00
   4.8343954E-04   7.1443088E+04   -1.6596472E+00
   4.8567212E-04   7.0898944E+04   -1.6591468E+00
   4.8791500E-04   7.0359106E+04   -1.6586472E+00
   4.9016825E-04   6.9823539E+04   -1.6581485E+00
   4.9243189E-04   6.9292208E+04   -1.6576506E+00
   4.9470600E-04   6.8765078E+04   -1.6571535E+00
   4.9699060E-04   6.8242114E+04   -1.6566573E+00
   4.9928575E-04   6.7723282E+04   -1.6561619E+00
   5.0159151E-04   6.7208547E+04   -1.6556674E+00
   5.0390791E-04   6.6697877E+04   -1.6551738E+00
   5.0623501E-04   6.6191237E+04   -1.6546810E+00
   5.0857286E-04   6.5688595E+04   -1.6541891E+00
   5.1092150E-04   6.5189917E+04   -1.6536980E+00
   5.1328099E-04   6.4695172E+04   -1.6532079E+00
   5.1565137E-04   6.4204326E+04   -1.6527185E+00
   5.1803270E-04   6.3717348E+04   -1.6522301E+00
   5.2042503E-04   6.3234206E+04   -1.6517426E+00
   5.2282841E-04   6.2754867E+04   -1.6512559E+00
   5.2524289E-04   6.2279302E+04   -1.6507701E+00
   5.2766851E-04   6.1807479E+04   -1.6502852E+00
   5.3010534E-04   6.1339368E+04   -1.6498012E+00
   5.3255342E-04   6.0874937E+04   -1.6493181E+00
   5.3501281E-04   6.0414157E+04   -1.6488358E+00
   5.3748356E-04   5.9956998E+04   -1.6483545E+00
   5.3996571E-04   5.9503430E+04   -1.6478741E+00
   5.4245933E-04   5.9053424E+04   -1.6473945E+00
   5.4496446E-04   5.8606951E+04   -1.6469159E+00
   5.4748117E-04   5.8163981E+04   -1.6464382E+00
   5.5000949E-04   5.7724487E+04   -1.6459614E+00
   5.5254949E-04   5.7288439E+04   -1.6454855E+00
   5.5510123E-04   5.6855809E+04   -1.6450105E+00
   5.5766474E-04   5.6426570E+04   -1.6445365E+00
   5.6024010E-04   5.6000694E+04   -1.6440633E+00
   5.6282734E-04   5.5578153E+04   -1.6435911E+00
   5.6542654E-04   5.5158920E+04   -1.6431198E+00
   5.6803774E-04   5.4742968E+04   -1.6426495E+00
   5.7066099E-04   5.4330271E+04   -1.6421800E+00
   5.7329637E-04   5.3920801E+04   -1.6417115E+00
   5.7594391E-04   5.3514533E+04   -1.6412439E+00
   5.7860368E-04   5.3111440E+04   -1.6407773E+00
   5.8127573E-04   5.2711496E+04   -1.6403116E+00
   5.8396012E-04   5.2314677E+04   -1.6398468E+00
   5.8665691E-04   5.1920956E+04   -1.6393830E+00
   5.8936616E-04   5.1530308E+04   -1.6389201E+00
   5.9208791E-04   5.1142708E+04   -1.6384582E+00
   5.9482223E-04   5.0758131E+04   -1.6379972E+00
   5.9756919E-04   5.0376553E+04   -1.6375372E+00
   6.0032882E-04   4.9997950E+04   -1.6370781E+00
   6.0310120E-04   4.9622297E+04   -1.6366200E+00
   6.0588639E-04   4.9249570E+04   -1.6361628E+00
   6.0868443E-04   4.8879745E+04   -1.6357066E+00
   6.1149540E-04   4.8512800E+04   -1.6352513E+00
   6.1431935E-04   4.8148710E+04   -1.6347970E+00
   6.1715634E-04   4.7787453E+04   -1.6343437E+00
   6.2000644E-04   4.7429005E+04   -1.6338913E+00
   6.2286969E-04   4.7073343E+04   -1.6334399E+00
