#        a       HoverH0(a)       dlogHdloga_of_a(a)
   1.0000000E-04   1.1670678E+06   -1.8694768E+00
   1.0046181E-04   1.1570596E+06   -1.8690319E+00
   1.0092575E-04   1.1471395E+06   -1.8685860E+00
   1.0139184E-04   1.1373068E+06   -1.8681391E+00
   1.0186008E-04   1.1275607E+06   -1.8676913E+00
   1.0233048E-04   1.1179005E+06   -1.8672425E+00
   1.0280305E-04   1.1083253E+06   -1.8667928E+00
   1.0327781E-04   1.0988344E+06   -1.8663420E+00
   1.0375475E-04   1.0894270E+06   -1.8658903E+00
   1.0423390E-04   1.0801024E+06   -1.8654377E+00
   1.0471527E-04   1.0708599E+06   -1.8649840E+00
   1.0519885E-04   1.0616987E+06   -1.8645294E+00
   1.0568467E-04   1.0526180E+06   -1.8640739E+00
   1.0617274E-04   1.0436172E+06   -1.8636173E+00
   1.0666305E-04   1.0346956E+06   -1.8631599E+00
   1.0715563E-04   1.0258524E+06   -1.8627014E+00
   1.0765049E-04   1.0170869E+06   -1.8622421E+00
   1.0814763E-04   1.0083985E+06   -1.8617817E+00
   1.0864707E-04   9.9978639E+05   -1.8613205E+00
   1.0914881E-04   9.9124995E+05   -1.8608582E+00
   1.0965287E-04   9.8278849E+05   -1.8603951E+00
   1.1015926E-04   9.7440135E+05   -1.8599309E+00
   1.1066799E-04   9.6608785E+05   -1.8594659E+00
   1.1117906E-04   9.5784733E+05   -1.8589999E+00
   1.1169250E-04   9.4967914E+05   -1.8585329E+00
   1.1220831E-04   9.4158264E+05   -1.8580651E+00
   1.1272650E-04   9.3355717E+05   -1.8575963E+00
   1.1324708E-04   9.2560212E+05   -1.8571265E+00
   1.1377007E-04   9.1771684E+05   -1.8566559E+00
   1.1429547E-04   9.0990071E+05   -1.8561843E+00
   1.1482330E-04   9.0215311E+05   -1.8557118E+00
   1.1535356E-04   8.9447343E+05   -1.8552383E+00
   1.1588628E-04   8.8686106E+05   -1.8547640E+00
   1.1642145E-04   8.7931540E+05   -1.8542887E+00
   1.1695910E-04   8.7183585E+05   -1.8538125E+00
   1.1749923E-04   8.6442181E+05   -1.8533354E+00
   1.1804185E-04   8.5707272E+05   -1.8528574E+00
   1.1858698E-04   8.4978797E+05   -1.8523785E+00
   1.1913463E-04   8.4256701E+05   -1.8518987E+00
   1.1968481E-04   8.3540925E+05   -1.8514180E+00
   1.2023752E-04   8.2831414E+05   -1.8509363E+00
   1.2079279E-04   8.2128111E+05   -1.8504538E+00
   1.2135063E-04   8.1430960E+05   -1.8499704E+00
   1.2191104E-04   8.0739908E+05   -1.8494861E+00
   1.2247403E-04   8.0054899E+05   -1.8490009E+00
   1.2303963E-04   7.9375879E+05   -1.8485148E+00
   1.2360784E-04   7.8702795E+05   -1.8480279E+00
   1.2417868E-04   7.8035594E+05   -1.8475400E+00
   1.2475215E-04   7.7374223E+05   -1.8470513E+00
   1.2532826E-04   7.6718630E+05   -1.8465617E+00
   1.2590704E-04   7.6068764E+05   -1.8460712E+00
   1.2648850E-04   7.5424573E+05   -1.8455799E+00
   1.2707263E-04   7.4786007E+05   -1.8450877E+00
   1.2765947E-04   7.4153015E+05   -1.8445946E+00
   1.2824901E-04   7.3525549E+05   -1.8441007E+00
   1.2884128E-04   7.2903558E+05   -1.8436059E+00
   1.2943628E-04   7.2286994E+05   -1.8431103E+00
   1.3003403E-04   7.1675808E+05   -1.8426138E+00
   1.3063454E-04   7.1069952E+05   -1.8421165E+00
   1.3123783E-04   7.0469379E+05   -1.8416183E+00
   1.3184390E-04   6.9874042E+05   -1.8411192E+00
   1.3245277E-04   6.9283894E+05   -1.8406194E+00
   1.3306445E-04   6.8698888E+05   -1.8401187E+00
   1.3367895E-04   6.8118979E+05   -1.8396171E+00
   1.3429630E-04   6.7544121E+05   -1.8391148E+00
   1.3491649E-04   6.6974270E+05   -1.8386116E+00
   1.3553955E-04   6.6409381E+05   -1.8381076E+00
   1.3616548E-04   6.5849409E+05   -1.8376028E+00
   1.3679431E-04   6.5294311E+05   -1.8370971E+00
   1.3742604E-04   6.4744044E+05   -1.8365906E+00
   1.3806069E-04   6.4198563E+05   -1.8360834E+00
   1.3869827E-04   6.3657828E+05   -1.8355753E+00
   1.3933879E-04   6.3121794E+05   -1.8350664E+00
   1.3998227E-04   6.2590422E+05   -1.8345568E+00
   1.4062872E-04   6.2063668E+05   -1.8340463E+00
   1.4127816E-04   6.1541492E+05   -1.8335350E+00
   1.4193060E-04   6.1023854E+05   -1.8330230E+00
   1.4258605E-04   6.0510712E+05   -1.8325101E+00
   1.4324453E-04   6.0002027E+05   -1.8319965E+00
   1.4390605E-04   5.9497759E+05   -1.8314821E+00
   1.4457062E-04   5.8997869E+05   -1.8309670E+00
   1.4523826E-04   5.8502319E+05   -1.8304510E+00
   1.4590899E-04   5.8011068E+05   -1.8299343E+00
   1.4658281E-04   5.7524080E+05   -1.8294169E+00
   1.4725974E-04   5.7041316E+05   -1.8288987E+00
   1.4793981E-04   5.6562739E+05   -1.8283797E+00
   1.4862301E-04   5.6088311E+05   -1.8278600E+00
   1.4930936E-04   5.5617995E+05   -1.8273395E+00
   1.4999889E-04   5.5151756E+05   -1.8268183E+00
   1.5069160E-04   5.4689557E+05   -1.8262963E+00
   1.5138751E-04   5.4231361E+05   -1.8257736E+00
   1.5208663E-04   5.3777134E+05   -1.8252502E+00
   1.5278899E-04   5.3326840E+05   -1.8247261E+00
   1.5349458E-04   5.2880445E+05   -1.8242012E+00
   1.5420343E-04   5.2437913E+05   -1.8236756E+00
   1.5491556E-04   5.1999211E+05   -1.8231493E+00
   1.5563098E-04   5.1564303E+05   -1.8226223E+00
   1.5634970E-04   5.1133158E+05   -1.8220946E+00
   1.5707174E-04   5.0705741E+05   -1.8215662E+00
   1.5779711E-04   5.0282019E+05   -1.8210371E+00
   1.5852584E-04   4.9861959E+05   -1.8205073E+00
   1.5925792E-04   4.9445530E+05   -1.8199768E+00
   1.5999339E-04   4.9032698E+05   -1.8194456E+00
   1.6073226E-04   4.8623432E+05   -1.8189137E+00
   1.6147454E-04   4.8217701E+05   -1.8183812E+00
   1.6222024E-04   4.7815472E+05   -1.8178480E+00
   1.6296939E-04   4.7416715E+05   -1.8173141E+00
   1.6372200E-04   4.7021400E+05   -1.8167796E+00
   1.6447809E-04   4.6629495E+05   -1.8162444E+00
   1.6523767E-04   4.6240971E+05   -1.8157085E+00
   1.6600075E-04   4.5855797E+05   -1.8151720E+00
   1.6676736E-04   4.5473944E+05   -1.8146349E+00
   1.6753751E-04   4.5095383E+05   -1.8140971E+00
   1.6831122E-04   4.4720084E+05   -1.8135586E+00
   1.6908849E-04   4.4348018E+05   -1.8130196E+00
   1.6986936E-04   4.3979157E+05   -1.8124799E+00
   1.7065384E-04   4.3613473E+05   -1.8119396E+00
   1.7144193E-04   4.3250937E+05   -1.8113987E+00
   1.7223367E-04   4.2891521E+05   -1.8108571E+00
   1.7302906E-04   4.2535199E+05   -1.8103150E+00
   1.7382813E-04   4.2181942E+05   -1.8097723E+00
   1.7463089E-04   4.1831723E+05   -1.8092289E+00
   1.7543735E-04   4.1484517E+05   -1.8086850E+00
   1.7624754E-04   4.1140295E+05   -1.8081405E+00
   1.7706147E-04   4.0799032E+05   -1.8075953E+00
   1.7787916E-04   4.0460701E+05   -1.8070497E+00
   1.7870062E-04   4.0125277E+05   -1.8065034E+00
   1.7952588E-04   3.9792733E+05   -1.8059566E+00
   1.8035495E-04   3.9463046E+05   -1.8054092E+00
   1.8118785E-04   3.9136188E+05   -1.8048612E+00
   1.8202459E-04   3.8812136E+05   -1.8043127E+00
   1.8286520E-04   3.8490864E+05   -1.8037636E+00
   1.8370969E-04   3.8172348E+05   -1.8032140E+00
   1.8455808E-04   3.7856564E+05   -1.8026639E+00
   1.8541039E-04   3.7543488E+05   -1.8021132E+00
   1.8626663E-04   3.7233095E+05   -1.8015620E+00
   1.8712683E-04   3.6925362E+05   -1.8010103E+00
   1.8799100E-04   3.6620266E+05   -1.8004580E+00
   1.8885917E-04   3.6317783E+05   -1.7999052E+00
   1.8973134E-04   3.6017891E+05   -1.7993520E+00
   1.9060754E-04   3.5720565E+05   -1.7987982E+00
   1.9148778E-04   3.5425785E+05   -1.7982439E+00
   1.9237209E-04   3.5133527E+05   -1.7976891E+00
   1.9326049E-04   3.4843769E+05   -1.7971339E+00
   1.9415299E-04   3.4556490E+05   -1.7965781E+00
   1.9504960E-04   3.4271666E+05   -1.7960219E+00
   1.9595036E-04   3.3989278E+05   -1.7954652E+00
   1.9685528E-04   3.3709303E+05   -1.7949080E+00
   1.9776438E-04   3.3431720E+05   -1.7943504E+00
   1.9867768E-04   3.3156508E+05   -1.7937924E+00
   1.9959519E-04   3.2883646E+05   -1.7932338E+00
   2.0051694E-04   3.2613113E+05   -1.7926748E+00
   2.0144295E-04   3.2344890E+05   -1.7921154E+00
   2.0237324E-04   3.2078955E+05   -1.7915556E+00
   2.0330782E-04   3.1815288E+05   -1.7909953E+00
   2.0424671E-04   3.1553871E+05   -1.7904346E+00
   2.0518995E-04   3.1294682E+05   -1.7898735E+00
   2.0613754E-04   3.1037702E+05   -1.7893120E+00
   2.0708950E-04   3.0782913E+05   -1.7887500E+00
   2.0804586E-04   3.0530294E+05   -1.7881877E+00
   2.0900664E-04   3.0279827E+05   -1.7876249E+00
   2.0997185E-04   3.0031492E+05   -1.7870618E+00
   2.1094152E-04   2.9785272E+05   -1.7864983E+00
   2.1191567E-04   2.9541146E+05   -1.7859344E+00
   2.1289432E-04   2.9299098E+05   -1.7853701E+00
   2.1387749E-04   2.9059109E+05   -1.7848055E+00
   2.1486520E-04   2.8821160E+05   -1.7842405E+00
   2.1585747E-04   2.8585235E+05   -1.7836751E+00
   2.1685432E-04   2.8351314E+05   -1.7831094E+00
   2.1785578E-04   2.8119381E+05   -1.7825434E+00
   2.1886186E-04   2.7889418E+05   -1.7819770E+00
   2.1987259E-04   2.7661408E+05   -1.7814103E+00
   2.2088798E-04   2.7435334E+05   -1.7808432E+00
   2.2190807E-04   2.7211178E+05   -1.7802758E+00
   2.2293286E-04   2.6988925E+05   -1.7797081E+00
   2.2396239E-04   2.6768557E+05   -1.7791401E+00
   2.2499667E-04   2.6550057E+05   -1.7785718E+00
   2.2603573E-04   2.6333410E+05   -1.7780032E+00
   2.2707958E-04   2.6118600E+05   -1.7774343E+00
   2.2812826E-04   2.5905609E+05   -1.7768651E+00
   2.2918178E-04   2.5694423E+05   -1.7762956E+00
   2.3024017E-04   2.5485026E+05   -1.7757259E+00
   2.3130344E-04   2.5277401E+05   -1.7751559E+00
   2.3237162E-04   2.5071534E+05   -1.7745856E+00
   2.3344474E-04   2.4867408E+05   -1.7740150E+00
   2.3452281E-04   2.4665010E+05   -1.7734442E+00
   2.3560586E-04   2.4464323E+05   -1.7728732E+00
   2.3669392E-04   2.4265333E+05   -1.7723019E+00
   2.3778699E-04   2.4068025E+05   -1.7717304E+00
   2.3888512E-04   2.3872384E+05   -1.7711586E+00
   2.3998831E-04   2.3678395E+05   -1.7705866E+00
   2.4109661E-04   2.3486045E+05   -1.7700145E+00
   2.4221001E-04   2.3295319E+05   -1.7694420E+00
   2.4332857E-04   2.3106203E+05   -1.7688694E+00
   2.4445228E-04   2.2918683E+05   -1.7682966E+00
   2.4558119E-04   2.2732744E+05   -1.7677236E+00
   2.4671531E-04   2.2548373E+05   -1.7671504E+00
   2.4785467E-04   2.2365557E+05   -1.7665771E+00
   2.4899928E-04   2.2184282E+05   -1.7660035E+00
   2.5014919E-04   2.2004534E+05   -1.7654298E+00
   2.5130440E-04   2.1826300E+05   -1.7648559E+00
   2.5246495E-04   2.1649567E+05   -1.7642819E+00
   2.5363086E-04   2.1474322E+05   -1.7637077E+00
   2.5480216E-04   2.1300552E+05   -1.7631334E+00
   2.5597886E-04   2.1128244E+05   -1.7625589E+00
   2.5716100E-04   2.0957385E+05   -1.7619843E+00
   2.5834859E-04   2.0787963E+05   -1.7614095E+00
   2.5954168E-04   2.0619966E+05   -1.7608347E+00
   2.6074027E-04   2.0453380E+05   -1.7602597E+00
   2.6194439E-04   2.0288193E+05   -1.7596846E+00
   2.6315408E-04   2.0124394E+05   -1.7591094E+00
   2.6436935E-04   1.9961971E+05   -1.7585342E+00
   2.6559024E-04   1.9800911E+05   -1.7579588E+00
   2.6681676E-04   1.9641202E+05   -1.7573833E+00
   2.6804895E-04   1.9482833E+05   -1.7568078E+00
   2.6928683E-04   1.9325793E+05   -1.7562322E+00
   2.7053042E-04   1.9170069E+05   -1.7556565E+00
   2.7177976E-04   1.9015650E+05   -1.7550808E+00
   2.7303487E-04   1.8862526E+05   -1.7545050E+00
   2.7429577E-04   1.8710683E+05   -1.7539291E+00
   2.7556250E-04   1.8560113E+05   -1.7533533E+00
   2.7683507E-04   1.8410803E+05   -1.7527773E+00
   2.7811353E-04   1.8262743E+05   -1.7522014E+00
   2.7939788E-04   1.8115921E+05   -1.7516254E+00
   2.8068817E-04   1.7970327E+05   -1.7510494E+00
   2.8198442E-04   1.7825951E+05   -1.7504734E+00
   2.8328665E-04   1.7682782E+05   -1.7498974E+00
   2.8459490E-04   1.7540809E+05   -1.7493214E+00
   2.8590919E-04   1.7400022E+05   -1.7487454E+00
   2.8722955E-04   1.7260412E+05   -1.7481694E+00
   2.8855600E-04   1.7121966E+05   -1.7475935E+00
   2.8988859E-04   1.6984676E+05   -1.7470175E+00
   2.9122732E-04   1.6848532E+05   -1.7464416E+00
   2.9257224E-04   1.6713523E+05   -1.7458658E+00
   2.9392337E-04   1.6579641E+05   -1.7452899E+00
   2.9528074E-04   1.6446874E+05   -1.7447141E+00
   2.9664438E-04   1.6315214E+05   -1.7441384E+00
   2.9801431E-04   1.6184650E+05   -1.7435628E+00
   2.9939057E-04   1.6055174E+05   -1.7429872E+00
   3.0077319E-04   1.5926776E+05   -1.7424116E+00
   3.0216219E-04   1.5799447E+05   -1.7418362E+00
   3.0355761E-04   1.5673177E+05   -1.7412608E+00
   3.0495947E-04   1.5547958E+05   -1.7406856E+00
   3.0636780E-04   1.5423780E+05   -1.7401104E+00
   3.0778264E-04   1.5300634E+05   -1.7395354E+00
   3.0920401E-04   1.5178512E+05   -1.7389604E+00
   3.1063195E-04   1.5057405E+05   -1.7383856E+00
   3.1206648E-04   1.4937303E+05   -1.7378109E+00
   3.1350764E-04   1.4818198E+05   -1.7372363E+00
   3.1495545E-04   1.4700082E+05   -1.7366618E+00
   3.1640994E-04   1.4582946E+05   -1.7360875E+00
   3.1787116E-04   1.4466782E+05   -1.7355134E+00
   3.1933912E-04   1.4351581E+05   -1.7349394E+00
   3.2081386E-04   1.4237335E+05   -1.7343655E+00
   3.2229541E-04   1.4124036E+05   -1.7337918E+00
   3.2378381E-04   1.4011676E+05   -1.7332183E+00
   3.2527908E-04   1.3900246E+05   -1.7326450E+00
   3.2678125E-04   1.3789738E+05   -1.7320718E+00
   3.2829036E-04   1.3680146E+05   -1.7314988E+00
   3.2980644E-04   1.3571460E+05   -1.7309261E+00
   3.3132952E-04   1.3463673E+05   -1.7303535E+00
   3.3285963E-04   1.3356777E+05   -1.7297811E+00
   3.3439681E-04   1.3250765E+05   -1.7292090E+00
   3.3594109E-04   1.3145630E+05   -1.7286371E+00
   3.3749250E-04   1.3041362E+05   -1.7280654E+00
   3.3905108E-04   1.2937956E+05   -1.7274939E+00
   3.4061685E-04   1.2835404E+05   -1.7269226E+00
   3.4218986E-04   1.2733697E+05   -1.7263516E+00
   3.4377013E-04   1.2632830E+05   -1.7257809E+00
   3.4535769E-04   1.2532795E+05   -1.7252104E+00
   3.4695259E-04   1.2433585E+05   -1.7246402E+00
   3.4855485E-04   1.2335193E+05   -1.7240702E+00
   3.5016452E-04   1.2237611E+05   -1.7235005E+00
   3.5178161E-04   1.2140833E+05   -1.7229311E+00
   3.5340618E-04   1.2044852E+05   -1.7223619E+00
   3.5503824E-04   1.1949661E+05   -1.7217931E+00
   3.5667785E-04   1.1855254E+05   -1.7212245E+00
   3.5832502E-04   1.1761623E+05   -1.7206563E+00
   3.5997981E-04   1.1668762E+05   -1.7200883E+00
   3.6164223E-04   1.1576665E+05   -1.7195207E+00
   3.6331233E-04   1.1485324E+05   -1.7189534E+00
   3.6499015E-04   1.1394734E+05   -1.7183864E+00
   3.6667571E-04   1.1304888E+05   -1.7178197E+00
   3.6836906E-04   1.1215780E+05   -1.7172534E+00
   3.7007022E-04   1.1127403E+05   -1.7166874E+00
   3.7177925E-04   1.1039752E+05   -1.7161218E+00
   3.7349616E-04   1.0952819E+05   -1.7155565E+00
   3.7522101E-04   1.0866599E+05   -1.7149915E+00
   3.7695382E-04   1.0781086E+05   -1.7144270E+00
   3.7869463E-04   1.0696274E+05   -1.7138628E+00
   3.8044348E-04   1.0612156E+05   -1.7132990E+00
   3.8220041E-04   1.0528727E+05   -1.7127355E+00
   3.8396545E-04   1.0445982E+05   -1.7121725E+00
   3.8573864E-04   1.0363913E+05   -1.7116098E+00
   3.8752002E-04   1.0282516E+05   -1.7110475E+00
   3.8930963E-04   1.0201785E+05   -1.7104857E+00
   3.9110750E-04   1.0121713E+05   -1.7099242E+00
   3.9291368E-04   1.0042296E+05   -1.7093632E+00
   3.9472820E-04   9.9635282E+04   -1.7088025E+00
   3.9655109E-04   9.8854035E+04   -1.7082423E+00
   3.9838241E-04   9.8079167E+04   -1.7076826E+00
   4.0022218E-04   9.7310623E+04   -1.7071232E+00
   4.0207045E-04   9.6548350E+04   -1.7065644E+00
   4.0392725E-04   9.5792296E+04   -1.7060059E+00
   4.0579263E-04   9.5042406E+04   -1.7054479E+00
   4.0766662E-04   9.4298629E+04   -1.7048904E+00
   4.0954927E-04   9.3560912E+04   -1.7043333E+00
   4.1144061E-04   9.2829206E+04   -1.7037767E+00
   4.1334068E-04   9.2103457E+04   -1.7032206E+00
   4.1524953E-04   9.1383617E+04   -1.7026649E+00
   4.1716720E-04   9.0669634E+04   -1.7021098E+00
   4.1909372E-04   8.9961460E+04   -1.7015551E+00
   4.2102914E-04   8.9259046E+04   -1.7010009E+00
   4.2297350E-04   8.8562341E+04   -1.7004472E+00
   4.2492683E-04   8.7871299E+04   -1.6998940E+00
   4.2688919E-04   8.7185871E+04   -1.6993413E+00
   4.2886061E-04   8.6506010E+04   -1.6987892E+00
   4.3084113E-04   8.5831669E+04   -1.6982376E+00
   4.3283080E-04   8.5162800E+04   -1.6976864E+00
   4.3482966E-04   8.4499359E+04   -1.6971359E+00
   4.3683775E-04   8.3841298E+04   -1.6965858E+00
   4.3885511E-04   8.3188573E+04   -1.6960363E+00
   4.4088179E-04   8.2541138E+04   -1.6954873E+00
   4.4291783E-04   8.1898950E+04   -1.6949389E+00
   4.4496327E-04   8.1261963E+04   -1.6943911E+00
   4.4701816E-04   8.0630133E+04   -1.6938438E+00
   4.4908253E-04   8.0003418E+04   -1.6932971E+00
   4.5115644E-04   7.9381774E+04   -1.6927509E+00
   4.5323993E-04   7.8765158E+04   -1.6922053E+00
   4.5533304E-04   7.8153529E+04   -1.6916603E+00
   4.5743582E-04   7.7546843E+04   -1.6911159E+00
   4.5954830E-04   7.6945060E+04   -1.6905721E+00
   4.6167054E-04   7.6348139E+04   -1.6900288E+00
   4.6380259E-04   7.5756037E+04   -1.6894862E+00
   4.6594448E-04   7.5168715E+04   -1.6889442E+00
   4.6809626E-04   7.4586133E+04   -1.6884027E+00
   4.7025797E-04   7.4008250E+04   -1.6878619E+00
   4.7242967E-04   7.3435028E+04   -1.6873217E+00
   4.7461140E-04   7.2866427E+04   -1.6867822E+00
   4.7680321E-04   7.2302408E+04   -1.6862432E+00
   4.7900514E-04   7.1742933E+04   -1.6857049E+00
   4.8121723E-04   7.1187963E+04   -1.6851672E+00
   4.8343954E-04   7.0637462E+04   -1.6846302E+00
   4.8567212E-04   7.0091391E+04   -1.6840938E+00
   4.8791500E-04   6.9549713E+04   -1.6835581E+00
   4.9016825E-04   6.9012391E+04   -1.6830230E+00
   4.9243189E-04   6.8479390E+04   -1.6824886E+00
   4.9470600E-04   6.7950672E+04   -1.6819548E+00
   4.9699060E-04   6.7426202E+04   -1.6814217E+00
   4.9928575E-04   6.6905944E+04   -1.6808893E+00
   5.0159151E-04   6.6389863E+04   -1.6803575E+00
   5.0390791E-04   6.5877925E+04   -1.6798265E+00
   5.0623501E-04   6.5370093E+04   -1.6792961E+00
   5.0857286E-04   6.4866335E+04   -1.6787664E+00
   5.1092150E-04   6.4366616E+04   -1.6782374E+00
   5.1328099E-04   6.3870903E+04   -1.6777091E+00
   5.1565137E-04   6.3379161E+04   -1.6771815E+00
   5.1803270E-04   6.2891358E+04   -1.6766547E+00
   5.2042503E-04   6.2407461E+04   -1.6761285E+00
   5.2282841E-04   6.1927437E+04   -1.6756030E+00
   5.2524289E-04   6.1451254E+04   -1.6750783E+00
   5.2766851E-04   6.0978880E+04   -1.6745543E+00
   5.3010534E-04   6.0510282E+04   -1.6740310E+00
   5.3255342E-04   6.0045431E+04   -1.6735084E+00
   5.3501281E-04   5.9584294E+04   -1.6729866E+00
   5.3748356E-04   5.9126840E+04   -1.6724655E+00
   5.3996571E-04   5.8673039E+04   -1.6719452E+00
   5.4245933E-04   5.8222861E+04   -1.6714256E+00
   5.4496446E-04   5.7776275E+04   -1.6709067E+00
   5.4748117E-04   5.7333252E+04   -1.6703886E+00
   5.5000949E-04   5.6893761E+04   -1.6698713E+00
   5.5254949E-04   5.6457774E+04   -1.6693547E+00
   5.5510123E-04   5.6025260E+04   -1.6688389E+00
   5.5766474E-04   5.5596193E+04   -1.6683239E+00
   5.6024010E-04   5.5170542E+04   -1.6678096E+00
   5.6282734E-04   5.4748280E+04   -1.6672961E+00
   5.6542654E-04   5.4329377E+04   -1.6667834E+00
   5.6803774E-04   5.3913808E+04   -1.6662715E+00
   5.7066099E-04   5.3501543E+04   -1.6657604E+00
   5.7329637E-04   5.3092555E+04   -1.6652501E+00
   5.7594391E-04   5.2686818E+04   -1.6647405E+00
   5.7860368E-04   5.2284305E+04   -1.6642318E+00
   5.8127573E-04   5.1884988E+04   -1.6637238E+00
   5.8396012E-04   5.1488841E+04   -1.6632167E+00
   5.8665691E-04   5.1095837E+04   -1.6627104E+00
   5.8936616E-04   5.0705952E+04   -1.6622049E+00
   5.9208791E-04   5.0319159E+04   -1.6617002E+00
   5.9482223E-04   4.9935433E+04   -1.6611963E+00
   5.9756919E-04   4.9554747E+04   -1.6606932E+00
   6.0032882E-04   4.9177078E+04   -1.6601910E+00
   6.0310120E-04   4.8802400E+04   -1.6596896E+00
   6.0588639E-04   4.8430688E+04   -1.6591890E+00
   6.0868443E-04   4.8061918E+04   -1.6586893E+00
   6.1149540E-04   4.7696066E+04   -1.6581904E+00
   6.1431935E-04   4.7333108E+04   -1.6576924E+00
   6.1715634E-04   4.6973019E+04   -1.6571952E+00
   6.2000644E-04   4.6615777E+04   -1.6566988E+00
   6.2286969E-04   4.6261357E+04   -1.6562033E+00
