#        a       HoverH0(a)       dlogHdloga_of_a(a)
   1.0000000E-04   1.1204083E+06   -1.8847617E+00
   1.0046181E-04   1.1107219E+06   -1.8843526E+00
   1.0092575E-04   1.1011213E+06   -1.8839424E+00
   1.0139184E-04   1.0916057E+06   -1.8835313E+00
   1.0186008E-04   1.0821744E+06   -1.8831192E+00
   1.0233048E-04   1.0728267E+06   -1.8827060E+00
   1.0280305E-04   1.0635617E+06   -1.8822918E+00
   1.0327781E-04   1.0543787E+06   -1.8818766E+00
   1.0375475E-04   1.0452770E+06   -1.8814605E+00
   1.0423390E-04   1.0362559E+06   -1.8810432E+00
   1.0471527E-04   1.0273146E+06   -1.8806250E+00
   1.0519885E-04   1.0184524E+06   -1.8802058E+00
   1.0568467E-04   1.0096687E+06   -1.8797856E+00
   1.0617274E-04   1.0009626E+06   -1.8793644E+00
   1.0666305E-04   9.9233352E+05   -1.8789421E+00
   1.0715563E-04   9.8378075E+05   -1.8785189E+00
   1.0765049E-04   9.7530360E+05   -1.8780946E+00
   1.0814763E-04   9.6690139E+05   -1.8776694E+00
   1.0864707E-04   9.5857345E+05   -1.8772431E+00
   1.0914881E-04   9.5031910E+05   -1.8768159E+00
   1.0965287E-04   9.4213769E+05   -1.8763876E+00
   1.1015926E-04   9.3402856E+05   -1.8759584E+00
   1.1066799E-04   9.2599105E+05   -1.8755281E+00
   1.1117906E-04   9.1802454E+05   -1.8750969E+00
   1.1169250E-04   9.1012837E+05   -1.8746646E+00
   1.1220831E-04   9.0230191E+05   -1.8742314E+00
   1.1272650E-04   8.9454455E+05   -1.8737972E+00
   1.1324708E-04   8.8685566E+05   -1.8733619E+00
   1.1377007E-04   8.7923462E+05   -1.8729257E+00
   1.1429547E-04   8.7168082E+05   -1.8724885E+00
   1.1482330E-04   8.6419367E+05   -1.8720503E+00
   1.1535356E-04   8.5677256E+05   -1.8716112E+00
   1.1588628E-04   8.4941689E+05   -1.8711710E+00
   1.1642145E-04   8.4212608E+05   -1.8707299E+00
   1.1695910E-04   8.3489956E+05   -1.8702877E+00
   1.1749923E-04   8.2773673E+05   -1.8698446E+00
   1.1804185E-04   8.2063703E+05   -1.8694005E+00
   1.1858698E-04   8.1359990E+05   -1.8689555E+00
   1.1913463E-04   8.0662476E+05   -1.8685094E+00
   1.1968481E-04   7.9971107E+05   -1.8680624E+00
   1.2023752E-04   7.9285827E+05   -1.8676144E+00
   1.2079279E-04   7.8606582E+05   -1.8671654E+00
   1.2135063E-04   7.7933318E+05   -1.8667155E+00
   1.2191104E-04   7.7265980E+05   -1.8662646E+00
   1.2247403E-04   7.6604516E+05   -1.8658127E+00
   1.2303963E-04   7.5948873E+05   -1.8653599E+00
   1.2360784E-04   7.5298999E+05   -1.8649061E+00
   1.2417868E-04   7.4654842E+05   -1.8644513E+00
   1.2475215E-04   7.4016351E+05   -1.8639956E+00
   1.2532826E-04   7.3383474E+05   -1.8635389E+00
   1.2590704E-04   7.2756162E+05   -1.8630812E+00
   1.2648850E-04   7.2134365E+05   -1.8626226E+00
   1.2707263E-04   7.1518034E+05   -1.8621631E+00
   1.2765947E-04   7.0907118E+05   -1.8617026E+00
   1.2824901E-04   7.0301571E+05   -1.8612411E+00
   1.2884128E-04   6.9701344E+05   -1.8607787E+00
   1.2943628E-04   6.9106388E+05   -1.8603154E+00
   1.3003403E-04   6.8516657E+05   -1.8598511E+00
   1.3063454E-04   6.7932105E+05   -1.8593859E+00
   1.3123783E-04   6.7352684E+05   -1.8589197E+00
   1.3184390E-04   6.6778348E+05   -1.8584526E+00
   1.3245277E-04   6.6209053E+05   -1.8579846E+00
   1.3306445E-04   6.5644753E+05   -1.8575156E+00
   1.3367895E-04   6.5085403E+05   -1.8570457E+00
   1.3429630E-04   6.4530959E+05   -1.8565749E+00
   1.3491649E-04   6.3981377E+05   -1.8561031E+00
   1.3553955E-04   6.3436613E+05   -1.8556304E+00
   1.3616548E-04   6.2896626E+05   -1.8551568E+00
   1.3679431E-04   6.2361371E+05   -1.8546823E+00
   1.3742604E-04   6.1830806E+05   -1.8542069E+00
   1.3806069E-04   6.1304890E+05   -1.8537305E+00
   1.3869827E-04   6.0783580E+05   -1.8532533E+00
   1.3933879E-04   6.0266837E+05   -1.8527751E+00
   1.3998227E-04   5.9754618E+05   -1.8522960E+00
   1.4062872E-04   5.9246883E+05   -1.8518161E+00
   1.4127816E-04   5.8743592E+05   -1.8513352E+00
   1.4193060E-04   5.8244706E+05   -1.8508534E+00
   1.4258605E-04   5.7750186E+05   -1.8503707E+00
   1.4324453E-04   5.7259991E+05   -1.8498871E+00
   1.4390605E-04   5.6774084E+05   -1.8494027E+00
   1.4457062E-04   5.6292426E+05   -1.8489173E+00
   1.4523826E-04   5.5814979E+05   -1.8484311E+00
   1.4590899E-04   5.5341706E+05   -1.8479440E+00
   1.4658281E-04   5.4872569E+05   -1.8474560E+00
   1.4725974E-04   5.4407532E+05   -1.8469671E+00
   1.4793981E-04   5.3946557E+05   -1.8464773E+00
   1.4862301E-04   5.3489609E+05   -1.8459867E+00
   1.4930936E-04   5.3036651E+05   -1.8454952E+00
   1.4999889E-04   5.2587648E+05   -1.8450028E+00
   1.5069160E-04   5.2142565E+05   -1.8445096E+00
   1.5138751E-04   5.1701366E+05   -1.8440155E+00
   1.5208663E-04   5.1264017E+05   -1.8435206E+00
   1.5278899E-04   5.0830484E+05   -1.8430248E+00
   1.5349458E-04   5.0400733E+05   -1.8425282E+00
   1.5420343E-04   4.9974729E+05   -1.8420307E+00
   1.5491556E-04   4.9552440E+05   -1.8415323E+00
   1.5563098E-04   4.9133832E+05   -1.8410331E+00
   1.5634970E-04   4.8718872E+05   -1.8405331E+00
   1.5707174E-04   4.8307529E+05   -1.8400323E+00
   1.5779711E-04   4.7899769E+05   -1.8395306E+00
   1.5852584E-04   4.7495561E+05   -1.8390281E+00
   1.5925792E-04   4.7094873E+05   -1.8385247E+00
   1.5999339E-04   4.6697673E+05   -1.8380206E+00
   1.6073226E-04   4.6303931E+05   -1.8375156E+00
   1.6147454E-04   4.5913616E+05   -1.8370098E+00
   1.6222024E-04   4.5526698E+05   -1.8365032E+00
   1.6296939E-04   4.5143145E+05   -1.8359958E+00
   1.6372200E-04   4.4762929E+05   -1.8354876E+00
   1.6447809E-04   4.4386019E+05   -1.8349785E+00
   1.6523767E-04   4.4012386E+05   -1.8344687E+00
   1.6600075E-04   4.3642000E+05   -1.8339581E+00
   1.6676736E-04   4.3274834E+05   -1.8334467E+00
   1.6753751E-04   4.2910858E+05   -1.8329345E+00
   1.6831122E-04   4.2550043E+05   -1.8324215E+00
   1.6908849E-04   4.2192362E+05   -1.8319078E+00
   1.6986936E-04   4.1837787E+05   -1.8313932E+00
   1.7065384E-04   4.1486291E+05   -1.8308779E+00
   1.7144193E-04   4.1137845E+05   -1.8303618E+00
   1.7223367E-04   4.0792422E+05   -1.8298450E+00
   1.7302906E-04   4.0449997E+05   -1.8293274E+00
   1.7382813E-04   4.0110542E+05   -1.8288090E+00
   1.7463089E-04   3.9774030E+05   -1.8282899E+00
   1.7543735E-04   3.9440436E+05   -1.8277701E+00
   1.7624754E-04   3.9109734E+05   -1.8272495E+00
   1.7706147E-04   3.8781898E+05   -1.8267281E+00
   1.7787916E-04   3.8456902E+05   -1.8262060E+00
   1.7870062E-04   3.8134721E+05   -1.8256832E+00
   1.7952588E-04   3.7815331E+05   -1.8251596E+00
   1.8035495E-04   3.7498707E+05   -1.8246354E+00
   1.8118785E-04   3.7184823E+05   -1.8241104E+00
   1.8202459E-04   3.6873656E+05   -1.8235846E+00
   1.8286520E-04   3.6565181E+05   -1.8230582E+00
   1.8370969E-04   3.6259375E+05   -1.8225311E+00
   1.8455808E-04   3.5956214E+05   -1.8220032E+00
   1.8541039E-04   3.5655675E+05   -1.8214747E+00
   1.8626663E-04   3.5357733E+05   -1.8209454E+00
   1.8712683E-04   3.5062367E+05   -1.8204155E+00
   1.8799100E-04   3.4769553E+05   -1.8198849E+00
   1.8885917E-04   3.4479269E+05   -1.8193535E+00
   1.8973134E-04   3.4191493E+05   -1.8188216E+00
   1.9060754E-04   3.3906201E+05   -1.8182889E+00
   1.9148778E-04   3.3623372E+05   -1.8177555E+00
   1.9237209E-04   3.3342984E+05   -1.8172215E+00
   1.9326049E-04   3.3065016E+05   -1.8166869E+00
   1.9415299E-04   3.2789446E+05   -1.8161515E+00
   1.9504960E-04   3.2516254E+05   -1.8156156E+00
   1.9595036E-04   3.2245417E+05   -1.8150789E+00
   1.9685528E-04   3.1976915E+05   -1.8145417E+00
   1.9776438E-04   3.1710727E+05   -1.8140038E+00
   1.9867768E-04   3.1446833E+05   -1.8134652E+00
   1.9959519E-04   3.1185212E+05   -1.8129260E+00
   2.0051694E-04   3.0925845E+05   -1.8123862E+00
   2.0144295E-04   3.0668712E+05   -1.8118458E+00
   2.0237324E-04   3.0413792E+05   -1.8113048E+00
   2.0330782E-04   3.0161066E+05   -1.8107631E+00
   2.0424671E-04   2.9910515E+05   -1.8102209E+00
   2.0518995E-04   2.9662120E+05   -1.8096780E+00
   2.0613754E-04   2.9415861E+05   -1.8091345E+00
   2.0708950E-04   2.9171719E+05   -1.8085905E+00
   2.0804586E-04   2.8929677E+05   -1.8080458E+00
   2.0900664E-04   2.8689715E+05   -1.8075006E+00
   2.0997185E-04   2.8451814E+05   -1.8069548E+00
   2.1094152E-04   2.8215958E+05   -1.8064084E+00
   2.1191567E-04   2.7982127E+05   -1.8058615E+00
   2.1289432E-04   2.7750303E+05   -1.8053140E+00
   2.1387749E-04   2.7520470E+05   -1.8047659E+00
   2.1486520E-04   2.7292609E+05   -1.8042173E+00
   2.1585747E-04   2.7066704E+05   -1.8036681E+00
   2.1685432E-04   2.6842736E+05   -1.8031184E+00
   2.1785578E-04   2.6620689E+05   -1.8025681E+00
   2.1886186E-04   2.6400545E+05   -1.8020174E+00
   2.1987259E-04   2.6182289E+05   -1.8014660E+00
   2.2088798E-04   2.5965903E+05   -1.8009142E+00
   2.2190807E-04   2.5751371E+05   -1.8003618E+00
   2.2293286E-04   2.5538676E+05   -1.7998090E+00
   2.2396239E-04   2.5327803E+05   -1.7992556E+00
   2.2499667E-04   2.5118735E+05   -1.7987017E+00
   2.2603573E-04   2.4911456E+05   -1.7981473E+00
   2.2707958E-04   2.4705951E+05   -1.7975925E+00
   2.2812826E-04   2.4502204E+05   -1.7970371E+00
   2.2918178E-04   2.4300199E+05   -1.7964813E+00
   2.3024017E-04   2.4099921E+05   -1.7959249E+00
   2.3130344E-04   2.3901356E+05   -1.7953682E+00
   2.3237162E-04   2.3704487E+05   -1.7948109E+00
   2.3344474E-04   2.3509300E+05   -1.7942532E+00
   2.3452281E-04   2.3315781E+05   -1.7936950E+00
   2.3560586E-04   2.3123913E+05   -1.7931364E+00
   2.3669392E-04   2.2933684E+05   -1.7925773E+00
   2.3778699E-04   2.2745078E+05   -1.7920178E+00
   2.3888512E-04   2.2558082E+05   -1.7914579E+00
   2.3998831E-04   2.2372681E+05   -1.7908975E+00
   2.4109661E-04   2.2188860E+05   -1.7903367E+00
   2.4221001E-04   2.2006607E+05   -1.7897755E+00
   2.4332857E-04   2.1825908E+05   -1.7892139E+00
   2.4445228E-04   2.1646748E+05   -1.7886518E+00
   2.4558119E-04   2.1469114E+05   -1.7880894E+00
   2.4671531E-04   2.1292993E+05   -1.7875266E+00
   2.4785467E-04   2.1118372E+05   -1.7869634E+00
   2.4899928E-04   2.0945238E+05   -1.7863998E+00
   2.5014919E-04   2.0773576E+05   -1.7858358E+00
   2.5130440E-04   2.0603375E+05   -1.7852715E+00
   2.5246495E-04   2.0434622E+05   -1.7847067E+00
   2.5363086E-04   2.0267304E+05   -1.7841417E+00
   2.5480216E-04   2.0101408E+05   -1.7835762E+00
   2.5597886E-04   1.9936922E+05   -1.7830104E+00
   2.5716100E-04   1.9773833E+05   -1.7824443E+00
   2.5834859E-04   1.9612130E+05   -1.7818778E+00
   2.5954168E-04   1.9451800E+05   -1.7813110E+00
   2.6074027E-04   1.9292831E+05   -1.7807439E+00
   2.6194439E-04   1.9135211E+05   -1.7801764E+00
   2.6315408E-04   1.8978928E+05   -1.7796087E+00
   2.6436935E-04   1.8823972E+05   -1.7790406E+00
   2.6559024E-04   1.8670329E+05   -1.7784722E+00
   2.6681676E-04   1.8517989E+05   -1.7779035E+00
   2.6804895E-04   1.8366939E+05   -1.7773346E+00
   2.6928683E-04   1.8217170E+05   -1.7767653E+00
   2.7053042E-04   1.8068670E+05   -1.7761957E+00
   2.7177976E-04   1.7921427E+05   -1.7756259E+00
   2.7303487E-04   1.7775430E+05   -1.7750558E+00
   2.7429577E-04   1.7630669E+05   -1.7744855E+00
   2.7556250E-04   1.7487134E+05   -1.7739149E+00
   2.7683507E-04   1.7344812E+05   -1.7733440E+00
   2.7811353E-04   1.7203694E+05   -1.7727729E+00
   2.7939788E-04   1.7063769E+05   -1.7722015E+00
   2.8068817E-04   1.6925026E+05   -1.7716300E+00
   2.8198442E-04   1.6787456E+05   -1.7710582E+00
   2.8328665E-04   1.6651048E+05   -1.7704861E+00
   2.8459490E-04   1.6515792E+05   -1.7699139E+00
   2.8590919E-04   1.6381678E+05   -1.7693414E+00
   2.8722955E-04   1.6248695E+05   -1.7687687E+00
   2.8855600E-04   1.6116835E+05   -1.7681959E+00
   2.8988859E-04   1.5986087E+05   -1.7676228E+00
   2.9122732E-04   1.5856442E+05   -1.7670496E+00
   2.9257224E-04   1.5727889E+05   -1.7664761E+00
   2.9392337E-04   1.5600420E+05   -1.7659025E+00
   2.9528074E-04   1.5474025E+05   -1.7653288E+00
   2.9664438E-04   1.5348695E+05   -1.7647548E+00
   2.9801431E-04   1.5224420E+05   -1.7641807E+00
   2.9939057E-04   1.5101191E+05   -1.7636065E+00
   3.0077319E-04   1.4978999E+05   -1.7630321E+00
   3.0216219E-04   1.4857835E+05   -1.7624576E+00
   3.0355761E-04   1.4737691E+05   -1.7618829E+00
   3.0495947E-04   1.4618556E+05   -1.7613082E+00
   3.0636780E-04   1.4500423E+05   -1.7607333E+00
   3.0778264E-04   1.4383283E+05   -1.7601582E+00
   3.0920401E-04   1.4267127E+05   -1.7595831E+00
   3.1063195E-04   1.4151946E+05   -1.7590079E+00
   3.1206648E-04   1.4037733E+05   -1.7584326E+00
   3.1350764E-04   1.3924478E+05   -1.7578572E+00
   3.1495545E-04   1.3812174E+05   -1.7572817E+00
   3.1640994E-04   1.3700811E+05   -1.7567061E+00
   3.1787116E-04   1.3590383E+05   -1.7561304E+00
   3.1933912E-04   1.3480880E+05   -1.7555547E+00
   3.2081386E-04   1.3372295E+05   -1.7549789E+00
   3.2229541E-04   1.3264620E+05   -1.7544031E+00
   3.2378381E-04   1.3157847E+05   -1.7538273E+00
   3.2527908E-04   1.3051968E+05   -1.7532513E+00
   3.2678125E-04   1.2946975E+05   -1.7526754E+00
   3.2829036E-04   1.2842861E+05   -1.7520994E+00
   3.2980644E-04   1.2739618E+05   -1.7515234E+00
   3.3132952E-04   1.2637239E+05   -1.7509474E+00
   3.3285963E-04   1.2535715E+05   -1.7503714E+00
   3.3439681E-04   1.2435041E+05   -1.7497953E+00
   3.3594109E-04   1.2335207E+05   -1.7492193E+00
   3.3749250E-04   1.2236207E+05   -1.7486433E+00
   3.3905108E-04   1.2138035E+05   -1.7480673E+00
   3.4061685E-04   1.2040681E+05   -1.7474913E+00
   3.4218986E-04   1.1944141E+05   -1.7469153E+00
   3.4377013E-04   1.1848405E+05   -1.7463394E+00
   3.4535769E-04   1.1753469E+05   -1.7457635E+00
   3.4695259E-04   1.1659324E+05   -1.7451876E+00
   3.4855485E-04   1.1565963E+05   -1.7446118E+00
   3.5016452E-04   1.1473381E+05   -1.7440361E+00
   3.5178161E-04   1.1381570E+05   -1.7434604E+00
   3.5340618E-04   1.1290524E+05   -1.7428848E+00
   3.5503824E-04   1.1200235E+05   -1.7423092E+00
   3.5667785E-04   1.1110699E+05   -1.7417338E+00
   3.5832502E-04   1.1021907E+05   -1.7411584E+00
   3.5997981E-04   1.0933854E+05   -1.7405831E+00
   3.6164223E-04   1.0846532E+05   -1.7400080E+00
   3.6331233E-04   1.0759937E+05   -1.7394329E+00
   3.6499015E-04   1.0674062E+05   -1.7388579E+00
   3.6667571E-04   1.0588900E+05   -1.7382831E+00
   3.6836906E-04   1.0504445E+05   -1.7377084E+00
   3.7007022E-04   1.0420691E+05   -1.7371338E+00
   3.7177925E-04   1.0337632E+05   -1.7365593E+00
   3.7349616E-04   1.0255263E+05   -1.7359850E+00
   3.7522101E-04   1.0173577E+05   -1.7354108E+00
   3.7695382E-04   1.0092568E+05   -1.7348368E+00
   3.7869463E-04   1.0012231E+05   -1.7342630E+00
   3.8044348E-04   9.9325593E+04   -1.7336893E+00
   3.8220041E-04   9.8535478E+04   -1.7331158E+00
   3.8396545E-04   9.7751906E+04   -1.7325424E+00
   3.8573864E-04   9.6974822E+04   -1.7319693E+00
   3.8752002E-04   9.6204169E+04   -1.7313963E+00
   3.8930963E-04   9.5439892E+04   -1.7308235E+00
   3.9110750E-04   9.4681937E+04   -1.7302510E+00
   3.9291368E-04   9.3930249E+04   -1.7296786E+00
   3.9472820E-04   9.3184775E+04   -1.7291064E+00
   3.9655109E-04   9.2445460E+04   -1.7285345E+00
   3.9838241E-04   9.1712253E+04   -1.7279628E+00
   4.0022218E-04   9.0985100E+04   -1.7273913E+00
   4.0207045E-04   9.0263951E+04   -1.7268201E+00
   4.0392725E-04   8.9548753E+04   -1.7262491E+00
   4.0579263E-04   8.8839456E+04   -1.7256784E+00
   4.0766662E-04   8.8136008E+04   -1.7251079E+00
   4.0954927E-04   8.7438361E+04   -1.7245377E+00
   4.1144061E-04   8.6746463E+04   -1.7239677E+00
   4.1334068E-04   8.6060266E+04   -1.7233980E+00
   4.1524953E-04   8.5379722E+04   -1.7228286E+00
   4.1716720E-04   8.4704781E+04   -1.7222595E+00
   4.1909372E-04   8.4035396E+04   -1.7216906E+00
   4.2102914E-04   8.3371519E+04   -1.7211221E+00
   4.2297350E-04   8.2713104E+04   -1.7205539E+00
   4.2492683E-04   8.2060103E+04   -1.7199859E+00
   4.2688919E-04   8.1412470E+04   -1.7194183E+00
   4.2886061E-04   8.0770160E+04   -1.7188510E+00
   4.3084113E-04   8.0133127E+04   -1.7182840E+00
   4.3283080E-04   7.9501326E+04   -1.7177174E+00
   4.3482966E-04   7.8874711E+04   -1.7171511E+00
   4.3683775E-04   7.8253240E+04   -1.7165851E+00
   4.3885511E-04   7.7636868E+04   -1.7160195E+00
   4.4088179E-04   7.7025552E+04   -1.7154542E+00
   4.4291783E-04   7.6419248E+04   -1.7148893E+00
   4.4496327E-04   7.5817913E+04   -1.7143248E+00
   4.4701816E-04   7.5221507E+04   -1.7137606E+00
   4.4908253E-04   7.4629985E+04   -1.7131968E+00
   4.5115644E-04   7.4043307E+04   -1.7126334E+00
   4.5323993E-04   7.3461433E+04   -1.7120704E+00
   4.5533304E-04   7.2884320E+04   -1.7115077E+00
   4.5743582E-04   7.2311928E+04   -1.7109455E+00
   4.5954830E-04   7.1744217E+04   -1.7103837E+00
   4.6167054E-04   7.1181147E+04   -1.7098223E+00
   4.6380259E-04   7.0622679E+04   -1.7092612E+00
   4.6594448E-04   7.0068774E+04   -1.7087007E+00
   4.6809626E-04   6.9519392E+04   -1.7081405E+00
   4.7025797E-04   6.8974496E+04   -1.7075808E+00
   4.7242967E-04   6.8434047E+04   -1.7070215E+00
   4.7461140E-04   6.7898008E+04   -1.7064626E+00
   4.7680321E-04   6.7366341E+04   -1.7059042E+00
   4.7900514E-04   6.6839009E+04   -1.7053462E+00
   4.8121723E-04   6.6315975E+04   -1.7047887E+00
   4.8343954E-04   6.5797204E+04   -1.7042317E+00
   4.8567212E-04   6.5282658E+04   -1.7036751E+00
   4.8791500E-04   6.4772301E+04   -1.7031190E+00
   4.9016825E-04   6.4266100E+04   -1.7025634E+00
   4.9243189E-04   6.3764017E+04   -1.7020083E+00
   4.9470600E-04   6.3266018E+04   -1.7014537E+00
   4.9699060E-04   6.2772070E+04   -1.7008995E+00
   4.9928575E-04   6.2282136E+04   -1.7003459E+00
   5.0159151E-04   6.1796185E+04   -1.6997927E+00
   5.0390791E-04   6.1314181E+04   -1.6992401E+00
   5.0623501E-04   6.0836091E+04   -1.6986880E+00
   5.0857286E-04   6.0361883E+04   -1.6981364E+00
   5.1092150E-04   5.9891523E+04   -1.6975853E+00
   5.1328099E-04   5.9424979E+04   -1.6970348E+00
   5.1565137E-04   5.8962219E+04   -1.6964848E+00
   5.1803270E-04   5.8503211E+04   -1.6959353E+00
   5.2042503E-04   5.8047923E+04   -1.6953864E+00
   5.2282841E-04   5.7596324E+04   -1.6948381E+00
   5.2524289E-04   5.7148383E+04   -1.6942903E+00
   5.2766851E-04   5.6704068E+04   -1.6937430E+00
   5.3010534E-04   5.6263349E+04   -1.6931963E+00
   5.3255342E-04   5.5826197E+04   -1.6926502E+00
   5.3501281E-04   5.5392580E+04   -1.6921047E+00
   5.3748356E-04   5.4962469E+04   -1.6915597E+00
   5.3996571E-04   5.4535835E+04   -1.6910154E+00
   5.4245933E-04   5.4112648E+04   -1.6904716E+00
   5.4496446E-04   5.3692880E+04   -1.6899284E+00
   5.4748117E-04   5.3276501E+04   -1.6893858E+00
   5.5000949E-04   5.2863483E+04   -1.6888439E+00
   5.5254949E-04   5.2453798E+04   -1.6883025E+00
   5.5510123E-04   5.2047418E+04   -1.6877617E+00
   5.5766474E-04   5.1644314E+04   -1.6872216E+00
   5.6024010E-04   5.1244460E+04   -1.6866821E+00
   5.6282734E-04   5.0847829E+04   -1.6861432E+00
   5.6542654E-04   5.0454392E+04   -1.6856050E+00
   5.6803774E-04   5.0064124E+04   -1.6850673E+00
   5.7066099E-04   4.9676997E+04   -1.6845304E+00
   5.7329637E-04   4.9292986E+04   -1.6839940E+00
   5.7594391E-04   4.8912064E+04   -1.6834584E+00
   5.7860368E-04   4.8534205E+04   -1.6829233E+00
   5.8127573E-04   4.8159385E+04   -1.6823890E+00
   5.8396012E-04   4.7787576E+04   -1.6818553E+00
   5.8665691E-04   4.7418754E+04   -1.6813223E+00
   5.8936616E-04   4.7052895E+04   -1.6807899E+00
   5.9208791E-04   4.6689973E+04   -1.6802582E+00
   5.9482223E-04   4.6329963E+04   -1.6797272E+00
   5.9756919E-04   4.5972842E+04   -1.6791969E+00
   6.0032882E-04   4.5618584E+04   -1.6786673E+00
   6.0310120E-04   4.5267167E+04   -1.6781384E+00
   6.0588639E-04   4.4918567E+04   -1.6776101E+00
   6.0868443E-04   4.4572759E+04   -1.6770826E+00
   6.1149540E-04   4.4229721E+04   -1.6765558E+00
   6.1431935E-04   4.3889430E+04   -1.6760297E+00
   6.1715634E-04   4.3551863E+04   -1.6755043E+00
   6.2000644E-04   4.3216996E+04   -1.6749796E+00
   6.2286969E-04   4.2884807E+04   -1.6744557E+00
