#        a       HoverH0(a)       dlogHdloga_of_a(a)
   1.0000000E-04   1.1501304E+06   -1.9031975E+00
   1.0046181E-04   1.1400900E+06   -1.9028373E+00
   1.0092575E-04   1.1301392E+06   -1.9024761E+00
   1.0139184E-04   1.1202771E+06   -1.9021139E+00
   1.0186008E-04   1.1105028E+06   -1.9017507E+00
   1.0233048E-04   1.1008158E+06   -1.9013864E+00
   1.0280305E-04   1.0912150E+06   -1.9010211E+00
   1.0327781E-04   1.0816998E+06   -1.9006549E+00
   1.0375475E-04   1.0722694E+06   -1.9002875E+00
   1.0423390E-04   1.0629230E+06   -1.8999192E+00
   1.0471527E-04   1.0536598E+06   -1.8995499E+00
   1.0519885E-04   1.0444792E+06   -1.8991795E+00
   1.0568467E-04   1.0353803E+06   -1.8988081E+00
   1.0617274E-04   1.0263625E+06   -1.8984357E+00
   1.0666305E-04   1.0174249E+06   -1.8980623E+00
   1.0715563E-04   1.0085669E+06   -1.8976878E+00
   1.0765049E-04   9.9978777E+05   -1.8973124E+00
   1.0814763E-04   9.9108676E+05   -1.8969359E+00
   1.0864707E-04   9.8246318E+05   -1.8965584E+00
   1.0914881E-04   9.7391633E+05   -1.8961798E+00
   1.0965287E-04   9.6544551E+05   -1.8958003E+00
   1.1015926E-04   9.5705005E+05   -1.8954197E+00
   1.1066799E-04   9.4872927E+05   -1.8950381E+00
   1.1117906E-04   9.4048248E+05   -1.8946555E+00
   1.1169250E-04   9.3230902E+05   -1.8942719E+00
   1.1220831E-04   9.2420823E+05   -1.8938872E+00
   1.1272650E-04   9.1617945E+05   -1.8935015E+00
   1.1324708E-04   9.0822204E+05   -1.8931148E+00
   1.1377007E-04   9.0033534E+05   -1.8927271E+00
   1.1429547E-04   8.9251874E+05   -1.8923384E+00
   1.1482330E-04   8.8477158E+05   -1.8919486E+00
   1.1535356E-04   8.7709324E+05   -1.8915578E+00
   1.1588628E-04   8.6948310E+05   -1.8911660E+00
   1.1642145E-04   8.6194056E+05   -1.8907732E+00
   1.1695910E-04   8.5446499E+05   -1.8903793E+00
   1.1749923E-04   8.4705579E+05   -1.8899844E+00
   1.1804185E-04   8.3971237E+05   -1.8895886E+00
   1.1858698E-04   8.3243414E+05   -1.8891916E+00
   1.1913463E-04   8.2522049E+05   -1.8887937E+00
   1.1968481E-04   8.1807087E+05   -1.8883948E+00
   1.2023752E-04   8.1098467E+05   -1.8879948E+00
   1.2079279E-04   8.0396135E+05   -1.8875938E+00
   1.2135063E-04   7.9700032E+05   -1.8871918E+00
   1.2191104E-04   7.9010103E+05   -1.8867888E+00
   1.2247403E-04   7.8326292E+05   -1.8863847E+00
   1.2303963E-04   7.7648544E+05   -1.8859797E+00
   1.2360784E-04   7.6976804E+05   -1.8855736E+00
   1.2417868E-04   7.6311019E+05   -1.8851665E+00
   1.2475215E-04   7.5651133E+05   -1.8847584E+00
   1.2532826E-04   7.4997096E+05   -1.8843493E+00
   1.2590704E-04   7.4348853E+05   -1.8839392E+00
   1.2648850E-04   7.3706352E+05   -1.8835280E+00
   1.2707263E-04   7.3069543E+05   -1.8831158E+00
   1.2765947E-04   7.2438373E+05   -1.8827027E+00
   1.2824901E-04   7.1812792E+05   -1.8822885E+00
   1.2884128E-04   7.1192750E+05   -1.8818733E+00
   1.2943628E-04   7.0578197E+05   -1.8814571E+00
   1.3003403E-04   6.9969082E+05   -1.8810398E+00
   1.3063454E-04   6.9365358E+05   -1.8806216E+00
   1.3123783E-04   6.8766976E+05   -1.8802024E+00
   1.3184390E-04   6.8173888E+05   -1.8797821E+00
   1.3245277E-04   6.7586046E+05   -1.8793609E+00
   1.3306445E-04   6.7003403E+05   -1.8789386E+00
   1.3367895E-04   6.6425912E+05   -1.8785154E+00
   1.3429630E-04   6.5853527E+05   -1.8780911E+00
   1.3491649E-04   6.5286202E+05   -1.8776658E+00
   1.3553955E-04   6.4723891E+05   -1.8772396E+00
   1.3616548E-04   6.4166550E+05   -1.8768123E+00
   1.3679431E-04   6.3614134E+05   -1.8763840E+00
   1.3742604E-04   6.3066597E+05   -1.8759548E+00
   1.3806069E-04   6.2523898E+05   -1.8755245E+00
   1.3869827E-04   6.1985991E+05   -1.8750932E+00
   1.3933879E-04   6.1452835E+05   -1.8746610E+00
   1.3998227E-04   6.0924385E+05   -1.8742277E+00
   1.4062872E-04   6.0400601E+05   -1.8737935E+00
   1.4127816E-04   5.9881440E+05   -1.8733582E+00
   1.4193060E-04   5.9366860E+05   -1.8729220E+00
   1.4258605E-04   5.8856821E+05   -1.8724848E+00
   1.4324453E-04   5.8351281E+05   -1.8720466E+00
   1.4390605E-04   5.7850200E+05   -1.8716074E+00
   1.4457062E-04   5.7353539E+05   -1.8711672E+00
   1.4523826E-04   5.6861257E+05   -1.8707260E+00
   1.4590899E-04   5.6373315E+05   -1.8702839E+00
   1.4658281E-04   5.5889674E+05   -1.8698408E+00
   1.4725974E-04   5.5410296E+05   -1.8693966E+00
   1.4793981E-04   5.4935142E+05   -1.8689516E+00
   1.4862301E-04   5.4464174E+05   -1.8685055E+00
   1.4930936E-04   5.3997356E+05   -1.8680585E+00
   1.4999889E-04   5.3534648E+05   -1.8676104E+00
   1.5069160E-04   5.3076016E+05   -1.8671615E+00
   1.5138751E-04   5.2621421E+05   -1.8667115E+00
   1.5208663E-04   5.2170828E+05   -1.8662606E+00
   1.5278899E-04   5.1724201E+05   -1.8658087E+00
   1.5349458E-04   5.1281505E+05   -1.8653558E+00
   1.5420343E-04   5.0842704E+05   -1.8649020E+00
   1.5491556E-04   5.0407763E+05   -1.8644472E+00
   1.5563098E-04   4.9976648E+05   -1.8639915E+00
   1.5634970E-04   4.9549324E+05   -1.8635347E+00
   1.5707174E-04   4.9125757E+05   -1.8630771E+00
   1.5779711E-04   4.8705914E+05   -1.8626185E+00
   1.5852584E-04   4.8289761E+05   -1.8621589E+00
   1.5925792E-04   4.7877265E+05   -1.8616984E+00
   1.5999339E-04   4.7468394E+05   -1.8612369E+00
   1.6073226E-04   4.7063114E+05   -1.8607745E+00
   1.6147454E-04   4.6661395E+05   -1.8603111E+00
   1.6222024E-04   4.6263203E+05   -1.8598468E+00
   1.6296939E-04   4.5868507E+05   -1.8593816E+00
   1.6372200E-04   4.5477277E+05   -1.8589154E+00
   1.6447809E-04   4.5089480E+05   -1.8584483E+00
   1.6523767E-04   4.4705087E+05   -1.8579802E+00
   1.6600075E-04   4.4324066E+05   -1.8575112E+00
   1.6676736E-04   4.3946387E+05   -1.8570413E+00
   1.6753751E-04   4.3572022E+05   -1.8565704E+00
   1.6831122E-04   4.3200939E+05   -1.8560987E+00
   1.6908849E-04   4.2833109E+05   -1.8556260E+00
   1.6986936E-04   4.2468504E+05   -1.8551523E+00
   1.7065384E-04   4.2107095E+05   -1.8546778E+00
   1.7144193E-04   4.1748853E+05   -1.8542023E+00
   1.7223367E-04   4.1393749E+05   -1.8537260E+00
   1.7302906E-04   4.1041756E+05   -1.8532487E+00
   1.7382813E-04   4.0692846E+05   -1.8527705E+00
   1.7463089E-04   4.0346990E+05   -1.8522914E+00
   1.7543735E-04   4.0004163E+05   -1.8518114E+00
   1.7624754E-04   3.9664337E+05   -1.8513305E+00
   1.7706147E-04   3.9327484E+05   -1.8508487E+00
   1.7787916E-04   3.8993579E+05   -1.8503660E+00
   1.7870062E-04   3.8662595E+05   -1.8498824E+00
   1.7952588E-04   3.8334506E+05   -1.8493979E+00
   1.8035495E-04   3.8009285E+05   -1.8489125E+00
   1.8118785E-04   3.7686909E+05   -1.8484263E+00
   1.8202459E-04   3.7367350E+05   -1.8479391E+00
   1.8286520E-04   3.7050584E+05   -1.8474511E+00
   1.8370969E-04   3.6736587E+05   -1.8469622E+00
   1.8455808E-04   3.6425332E+05   -1.8464724E+00
   1.8541039E-04   3.6116796E+05   -1.8459818E+00
   1.8626663E-04   3.5810955E+05   -1.8454902E+00
   1.8712683E-04   3.5507784E+05   -1.8449979E+00
   1.8799100E-04   3.5207259E+05   -1.8445046E+00
   1.8885917E-04   3.4909358E+05   -1.8440105E+00
   1.8973134E-04   3.4614056E+05   -1.8435155E+00
   1.9060754E-04   3.4321330E+05   -1.8430197E+00
   1.9148778E-04   3.4031157E+05   -1.8425230E+00
   1.9237209E-04   3.3743516E+05   -1.8420255E+00
   1.9326049E-04   3.3458382E+05   -1.8415272E+00
   1.9415299E-04   3.3175734E+05   -1.8410280E+00
   1.9504960E-04   3.2895549E+05   -1.8405279E+00
   1.9595036E-04   3.2617806E+05   -1.8400270E+00
   1.9685528E-04   3.2342482E+05   -1.8395253E+00
   1.9776438E-04   3.2069557E+05   -1.8390228E+00
   1.9867768E-04   3.1799009E+05   -1.8385194E+00
   1.9959519E-04   3.1530816E+05   -1.8380152E+00
   2.0051694E-04   3.1264957E+05   -1.8375102E+00
   2.0144295E-04   3.1001413E+05   -1.8370044E+00
   2.0237324E-04   3.0740162E+05   -1.8364978E+00
   2.0330782E-04   3.0481183E+05   -1.8359903E+00
   2.0424671E-04   3.0224457E+05   -1.8354821E+00
   2.0518995E-04   2.9969964E+05   -1.8349730E+00
   2.0613754E-04   2.9717683E+05   -1.8344632E+00
   2.0708950E-04   2.9467595E+05   -1.8339525E+00
   2.0804586E-04   2.9219681E+05   -1.8334411E+00
   2.0900664E-04   2.8973921E+05   -1.8329289E+00
   2.0997185E-04   2.8730295E+05   -1.8324159E+00
   2.1094152E-04   2.8488786E+05   -1.8319021E+00
   2.1191567E-04   2.8249373E+05   -1.8313875E+00
   2.1289432E-04   2.8012039E+05   -1.8308722E+00
   2.1387749E-04   2.7776765E+05   -1.8303561E+00
   2.1486520E-04   2.7543532E+05   -1.8298392E+00
   2.1585747E-04   2.7312323E+05   -1.8293216E+00
   2.1685432E-04   2.7083120E+05   -1.8288032E+00
   2.1785578E-04   2.6855904E+05   -1.8282841E+00
   2.1886186E-04   2.6630658E+05   -1.8277642E+00
   2.1987259E-04   2.6407364E+05   -1.8272435E+00
   2.2088798E-04   2.6186006E+05   -1.8267222E+00
   2.2190807E-04   2.5966566E+05   -1.8262000E+00
   2.2293286E-04   2.5749026E+05   -1.8256772E+00
   2.2396239E-04   2.5533371E+05   -1.8251536E+00
   2.2499667E-04   2.5319583E+05   -1.8246293E+00
   2.2603573E-04   2.5107646E+05   -1.8241043E+00
   2.2707958E-04   2.4897542E+05   -1.8235785E+00
   2.2812826E-04   2.4689257E+05   -1.8230521E+00
   2.2918178E-04   2.4482774E+05   -1.8225249E+00
   2.3024017E-04   2.4278077E+05   -1.8219970E+00
   2.3130344E-04   2.4075149E+05   -1.8214684E+00
   2.3237162E-04   2.3873976E+05   -1.8209391E+00
   2.3344474E-04   2.3674542E+05   -1.8204092E+00
   2.3452281E-04   2.3476831E+05   -1.8198785E+00
   2.3560586E-04   2.3280829E+05   -1.8193472E+00
   2.3669392E-04   2.3086519E+05   -1.8188152E+00
   2.3778699E-04   2.2893887E+05   -1.8182825E+00
   2.3888512E-04   2.2702918E+05   -1.8177491E+00
   2.3998831E-04   2.2513598E+05   -1.8172151E+00
   2.4109661E-04   2.2325911E+05   -1.8166804E+00
   2.4221001E-04   2.2139844E+05   -1.8161450E+00
   2.4332857E-04   2.1955381E+05   -1.8156090E+00
   2.4445228E-04   2.1772509E+05   -1.8150723E+00
   2.4558119E-04   2.1591214E+05   -1.8145350E+00
   2.4671531E-04   2.1411481E+05   -1.8139971E+00
   2.4785467E-04   2.1233297E+05   -1.8134585E+00
   2.4899928E-04   2.1056648E+05   -1.8129193E+00
   2.5014919E-04   2.0881521E+05   -1.8123795E+00
   2.5130440E-04   2.0707902E+05   -1.8118390E+00
   2.5246495E-04   2.0535778E+05   -1.8112979E+00
   2.5363086E-04   2.0365135E+05   -1.8107562E+00
   2.5480216E-04   2.0195960E+05   -1.8102139E+00
   2.5597886E-04   2.0028241E+05   -1.8096711E+00
   2.5716100E-04   1.9861964E+05   -1.8091276E+00
   2.5834859E-04   1.9697118E+05   -1.8085835E+00
   2.5954168E-04   1.9533688E+05   -1.8080388E+00
   2.6074027E-04   1.9371663E+05   -1.8074935E+00
   2.6194439E-04   1.9211030E+05   -1.8069477E+00
   2.6315408E-04   1.9051777E+05   -1.8064013E+00
   2.6436935E-04   1.8893892E+05   -1.8058543E+00
   2.6559024E-04   1.8737363E+05   -1.8053068E+00
   2.6681676E-04   1.8582177E+05   -1.8047587E+00
   2.6804895E-04   1.8428323E+05   -1.8042100E+00
   2.6928683E-04   1.8275790E+05   -1.8036608E+00
   2.7053042E-04   1.8124564E+05   -1.8031110E+00
   2.7177976E-04   1.7974636E+05   -1.8025608E+00
   2.7303487E-04   1.7825993E+05   -1.8020099E+00
   2.7429577E-04   1.7678624E+05   -1.8014586E+00
   2.7556250E-04   1.7532518E+05   -1.8009067E+00
   2.7683507E-04   1.7387663E+05   -1.8003543E+00
   2.7811353E-04   1.7244050E+05   -1.7998014E+00
   2.7939788E-04   1.7101666E+05   -1.7992480E+00
   2.8068817E-04   1.6960501E+05   -1.7986941E+00
   2.8198442E-04   1.6820544E+05   -1.7981397E+00
   2.8328665E-04   1.6681785E+05   -1.7975847E+00
   2.8459490E-04   1.6544213E+05   -1.7970293E+00
   2.8590919E-04   1.6407817E+05   -1.7964735E+00
   2.8722955E-04   1.6272588E+05   -1.7959171E+00
   2.8855600E-04   1.6138514E+05   -1.7953603E+00
   2.8988859E-04   1.6005586E+05   -1.7948030E+00
   2.9122732E-04   1.5873794E+05   -1.7942452E+00
   2.9257224E-04   1.5743128E+05   -1.7936870E+00
   2.9392337E-04   1.5613577E+05   -1.7931284E+00
   2.9528074E-04   1.5485132E+05   -1.7925693E+00
   2.9664438E-04   1.5357783E+05   -1.7920097E+00
   2.9801431E-04   1.5231522E+05   -1.7914497E+00
   2.9939057E-04   1.5106337E+05   -1.7908893E+00
   3.0077319E-04   1.4982219E+05   -1.7903285E+00
   3.0216219E-04   1.4859160E+05   -1.7897672E+00
   3.0355761E-04   1.4737150E+05   -1.7892056E+00
   3.0495947E-04   1.4616179E+05   -1.7886435E+00
   3.0636780E-04   1.4496239E+05   -1.7880810E+00
   3.0778264E-04   1.4377321E+05   -1.7875182E+00
   3.0920401E-04   1.4259415E+05   -1.7869549E+00
   3.1063195E-04   1.4142512E+05   -1.7863913E+00
   3.1206648E-04   1.4026605E+05   -1.7858273E+00
   3.1350764E-04   1.3911683E+05   -1.7852629E+00
   3.1495545E-04   1.3797739E+05   -1.7846981E+00
   3.1640994E-04   1.3684764E+05   -1.7841330E+00
   3.1787116E-04   1.3572749E+05   -1.7835675E+00
   3.1933912E-04   1.3461687E+05   -1.7830017E+00
   3.2081386E-04   1.3351568E+05   -1.7824355E+00
   3.2229541E-04   1.3242384E+05   -1.7818690E+00
   3.2378381E-04   1.3134127E+05   -1.7813021E+00
   3.2527908E-04   1.3026790E+05   -1.7807350E+00
   3.2678125E-04   1.2920363E+05   -1.7801675E+00
   3.2829036E-04   1.2814839E+05   -1.7795997E+00
   3.2980644E-04   1.2710211E+05   -1.7790315E+00
   3.3132952E-04   1.2606470E+05   -1.7784631E+00
   3.3285963E-04   1.2503608E+05   -1.7778944E+00
   3.3439681E-04   1.2401618E+05   -1.7773254E+00
   3.3594109E-04   1.2300492E+05   -1.7767561E+00
   3.3749250E-04   1.2200223E+05   -1.7761865E+00
   3.3905108E-04   1.2100803E+05   -1.7756166E+00
   3.4061685E-04   1.2002225E+05   -1.7750465E+00
   3.4218986E-04   1.1904481E+05   -1.7744761E+00
   3.4377013E-04   1.1807564E+05   -1.7739054E+00
   3.4535769E-04   1.1711466E+05   -1.7733345E+00
   3.4695259E-04   1.1616182E+05   -1.7727634E+00
   3.4855485E-04   1.1521703E+05   -1.7721920E+00
   3.5016452E-04   1.1428023E+05   -1.7716203E+00
   3.5178161E-04   1.1335134E+05   -1.7710485E+00
   3.5340618E-04   1.1243030E+05   -1.7704764E+00
   3.5503824E-04   1.1151703E+05   -1.7699041E+00
   3.5667785E-04   1.1061148E+05   -1.7693316E+00
   3.5832502E-04   1.0971357E+05   -1.7687589E+00
   3.5997981E-04   1.0882323E+05   -1.7681859E+00
   3.6164223E-04   1.0794041E+05   -1.7676128E+00
   3.6331233E-04   1.0706503E+05   -1.7670395E+00
   3.6499015E-04   1.0619703E+05   -1.7664661E+00
   3.6667571E-04   1.0533634E+05   -1.7658924E+00
   3.6836906E-04   1.0448291E+05   -1.7653186E+00
   3.7007022E-04   1.0363667E+05   -1.7647446E+00
   3.7177925E-04   1.0279755E+05   -1.7641705E+00
   3.7349616E-04   1.0196549E+05   -1.7635962E+00
   3.7522101E-04   1.0114044E+05   -1.7630218E+00
   3.7695382E-04   1.0032233E+05   -1.7624472E+00
   3.7869463E-04   9.9511098E+04   -1.7618725E+00
   3.8044348E-04   9.8706690E+04   -1.7612977E+00
   3.8220041E-04   9.7909043E+04   -1.7607227E+00
   3.8396545E-04   9.7118100E+04   -1.7601476E+00
   3.8573864E-04   9.6333801E+04   -1.7595725E+00
   3.8752002E-04   9.5556089E+04   -1.7589972E+00
   3.8930963E-04   9.4784907E+04   -1.7584218E+00
   3.9110750E-04   9.4020197E+04   -1.7578463E+00
   3.9291368E-04   9.3261905E+04   -1.7572708E+00
   3.9472820E-04   9.2509974E+04   -1.7566952E+00
   3.9655109E-04   9.1764349E+04   -1.7561195E+00
   3.9838241E-04   9.1024975E+04   -1.7555437E+00
   4.0022218E-04   9.0291797E+04   -1.7549679E+00
   4.0207045E-04   8.9564764E+04   -1.7543920E+00
   4.0392725E-04   8.8843820E+04   -1.7538161E+00
   4.0579263E-04   8.8128913E+04   -1.7532401E+00
   4.0766662E-04   8.7419990E+04   -1.7526641E+00
   4.0954927E-04   8.6717001E+04   -1.7520881E+00
   4.1144061E-04   8.6019893E+04   -1.7515120E+00
   4.1334068E-04   8.5328615E+04   -1.7509359E+00
   4.1524953E-04   8.4643117E+04   -1.7503598E+00
   4.1716720E-04   8.3963349E+04   -1.7497838E+00
   4.1909372E-04   8.3289262E+04   -1.7492077E+00
   4.2102914E-04   8.2620805E+04   -1.7486316E+00
   4.2297350E-04   8.1957931E+04   -1.7480555E+00
   4.2492683E-04   8.1300591E+04   -1.7474795E+00
   4.2688919E-04   8.0648737E+04   -1.7469035E+00
   4.2886061E-04   8.0002322E+04   -1.7463275E+00
   4.3084113E-04   7.9361299E+04   -1.7457515E+00
   4.3283080E-04   7.8725621E+04   -1.7451756E+00
   4.3482966E-04   7.8095242E+04   -1.7445997E+00
   4.3683775E-04   7.7470116E+04   -1.7440239E+00
   4.3885511E-04   7.6850198E+04   -1.7434482E+00
   4.4088179E-04   7.6235442E+04   -1.7428725E+00
   4.4291783E-04   7.5625805E+04   -1.7422969E+00
   4.4496327E-04   7.5021242E+04   -1.7417214E+00
   4.4701816E-04   7.4421709E+04   -1.7411460E+00
   4.4908253E-04   7.3827163E+04   -1.7405707E+00
   4.5115644E-04   7.3237561E+04   -1.7399954E+00
   4.5323993E-04   7.2652860E+04   -1.7394203E+00
   4.5533304E-04   7.2073019E+04   -1.7388453E+00
   4.5743582E-04   7.1497994E+04   -1.7382704E+00
   4.5954830E-04   7.0927745E+04   -1.7376956E+00
   4.6167054E-04   7.0362231E+04   -1.7371209E+00
   4.6380259E-04   6.9801410E+04   -1.7365464E+00
   4.6594448E-04   6.9245242E+04   -1.7359720E+00
   4.6809626E-04   6.8693688E+04   -1.7353978E+00
   4.7025797E-04   6.8146707E+04   -1.7348237E+00
   4.7242967E-04   6.7604260E+04   -1.7342498E+00
   4.7461140E-04   6.7066309E+04   -1.7336761E+00
   4.7680321E-04   6.6532814E+04   -1.7331025E+00
   4.7900514E-04   6.6003737E+04   -1.7325291E+00
   4.8121723E-04   6.5479041E+04   -1.7319559E+00
   4.8343954E-04   6.4958687E+04   -1.7313828E+00
   4.8567212E-04   6.4442638E+04   -1.7308100E+00
   4.8791500E-04   6.3930858E+04   -1.7302374E+00
   4.9016825E-04   6.3423310E+04   -1.7296649E+00
   4.9243189E-04   6.2919957E+04   -1.7290927E+00
   4.9470600E-04   6.2420763E+04   -1.7285207E+00
   4.9699060E-04   6.1925693E+04   -1.7279490E+00
   4.9928575E-04   6.1434711E+04   -1.7273774E+00
   5.0159151E-04   6.0947782E+04   -1.7268061E+00
   5.0390791E-04   6.0464872E+04   -1.7262351E+00
   5.0623501E-04   5.9985946E+04   -1.7256642E+00
   5.0857286E-04   5.9510969E+04   -1.7250937E+00
   5.1092150E-04   5.9039910E+04   -1.7245234E+00
   5.1328099E-04   5.8572732E+04   -1.7239534E+00
   5.1565137E-04   5.8109404E+04   -1.7233836E+00
   5.1803270E-04   5.7649892E+04   -1.7228141E+00
   5.2042503E-04   5.7194164E+04   -1.7222449E+00
   5.2282841E-04   5.6742187E+04   -1.7216760E+00
   5.2524289E-04   5.6293930E+04   -1.7211074E+00
   5.2766851E-04   5.5849360E+04   -1.7205391E+00
   5.3010534E-04   5.5408446E+04   -1.7199711E+00
   5.3255342E-04   5.4971156E+04   -1.7194034E+00
   5.3501281E-04   5.4537461E+04   -1.7188361E+00
   5.3748356E-04   5.4107328E+04   -1.7182690E+00
   5.3996571E-04   5.3680728E+04   -1.7177023E+00
   5.4245933E-04   5.3257631E+04   -1.7171359E+00
   5.4496446E-04   5.2838006E+04   -1.7165699E+00
   5.4748117E-04   5.2421824E+04   -1.7160042E+00
   5.5000949E-04   5.2009056E+04   -1.7154389E+00
   5.5254949E-04   5.1599672E+04   -1.7148739E+00
   5.5510123E-04   5.1193644E+04   -1.7143093E+00
   5.5766474E-04   5.0790943E+04   -1.7137450E+00
   5.6024010E-04   5.0391540E+04   -1.7131812E+00
   5.6282734E-04   4.9995408E+04   -1.7126177E+00
   5.6542654E-04   4.9602519E+04   -1.7120546E+00
   5.6803774E-04   4.9212845E+04   -1.7114918E+00
   5.7066099E-04   4.8826359E+04   -1.7109295E+00
   5.7329637E-04   4.8443034E+04   -1.7103676E+00
   5.7594391E-04   4.8062842E+04   -1.7098061E+00
   5.7860368E-04   4.7685758E+04   -1.7092450E+00
   5.8127573E-04   4.7311754E+04   -1.7086844E+00
   5.8396012E-04   4.6940805E+04   -1.7081241E+00
   5.8665691E-04   4.6572884E+04   -1.7075643E+00
   5.8936616E-04   4.6207967E+04   -1.7070049E+00
   5.9208791E-04   4.5846026E+04   -1.7064460E+00
   5.9482223E-04   4.5487038E+04   -1.7058875E+00
   5.9756919E-04   4.5130977E+04   -1.7053295E+00
   6.0032882E-04   4.4777818E+04   -1.7047719E+00
   6.0310120E-04   4.4427537E+04   -1.7042148E+00
   6.0588639E-04   4.4080109E+04   -1.7036582E+00
   6.0868443E-04   4.3735510E+04   -1.7031020E+00
   6.1149540E-04   4.3393716E+04   -1.7025463E+00
   6.1431935E-04   4.3054703E+04   -1.7019911E+00
   6.1715634E-04   4.2718449E+04   -1.7014364E+00
   6.2000644E-04   4.2384928E+04   -1.7008821E+00
   6.2286969E-04   4.2054119E+04   -1.7003284E+00
