#        a       HoverH0(a)       dlogHdloga_of_a(a)
   1.0000000E-04   1.1831980E+06   -1.8869174E+00
   1.0046181E-04   1.1729570E+06   -1.8865137E+00
   1.0092575E-04   1.1628069E+06   -1.8861090E+00
   1.0139184E-04   1.1527467E+06   -1.8857032E+00
   1.0186008E-04   1.1427757E+06   -1.8852965E+00
   1.0233048E-04   1.1328931E+06   -1.8848887E+00
   1.0280305E-04   1.1230981E+06   -1.8844799E+00
   1.0327781E-04   1.1133898E+06   -1.8840701E+00
   1.0375475E-04   1.1037676E+06   -1.8836593E+00
   1.0423390E-04   1.0942305E+06   -1.8832474E+00
   1.0471527E-04   1.0847780E+06   -1.8828346E+00
   1.0519885E-04   1.0754092E+06   -1.8824207E+00
   1.0568467E-04   1.0661233E+06   -1.8820059E+00
   1.0617274E-04   1.0569196E+06   -1.8815900E+00
   1.0666305E-04   1.0477973E+06   -1.8811731E+00
   1.0715563E-04   1.0387559E+06   -1.8807552E+00
   1.0765049E-04   1.0297944E+06   -1.8803363E+00
   1.0814763E-04   1.0209122E+06   -1.8799164E+00
   1.0864707E-04   1.0121085E+06   -1.8794954E+00
   1.0914881E-04   1.0033828E+06   -1.8790735E+00
   1.0965287E-04   9.9473416E+05   -1.8786506E+00
   1.1015926E-04   9.8616203E+05   -1.8782267E+00
   1.1066799E-04   9.7766568E+05   -1.8778017E+00
   1.1117906E-04   9.6924443E+05   -1.8773758E+00
   1.1169250E-04   9.6089760E+05   -1.8769488E+00
   1.1220831E-04   9.5262453E+05   -1.8765209E+00
   1.1272650E-04   9.4442455E+05   -1.8760919E+00
   1.1324708E-04   9.3629701E+05   -1.8756620E+00
   1.1377007E-04   9.2824126E+05   -1.8752311E+00
   1.1429547E-04   9.2025665E+05   -1.8747991E+00
   1.1482330E-04   9.1234254E+05   -1.8743662E+00
   1.1535356E-04   9.0449829E+05   -1.8739323E+00
   1.1588628E-04   8.9672328E+05   -1.8734974E+00
   1.1642145E-04   8.8901689E+05   -1.8730615E+00
   1.1695910E-04   8.8137850E+05   -1.8726246E+00
   1.1749923E-04   8.7380750E+05   -1.8721867E+00
   1.1804185E-04   8.6630328E+05   -1.8717478E+00
   1.1858698E-04   8.5886525E+05   -1.8713080E+00
   1.1913463E-04   8.5149281E+05   -1.8708671E+00
   1.1968481E-04   8.4418537E+05   -1.8704253E+00
   1.2023752E-04   8.3694234E+05   -1.8699825E+00
   1.2079279E-04   8.2976316E+05   -1.8695387E+00
   1.2135063E-04   8.2264724E+05   -1.8690939E+00
   1.2191104E-04   8.1559402E+05   -1.8686482E+00
   1.2247403E-04   8.0860294E+05   -1.8682015E+00
   1.2303963E-04   8.0167343E+05   -1.8677538E+00
   1.2360784E-04   7.9480495E+05   -1.8673051E+00
   1.2417868E-04   7.8799695E+05   -1.8668555E+00
   1.2475215E-04   7.8124888E+05   -1.8664049E+00
   1.2532826E-04   7.7456021E+05   -1.8659533E+00
   1.2590704E-04   7.6793040E+05   -1.8655007E+00
   1.2648850E-04   7.6135893E+05   -1.8650472E+00
   1.2707263E-04   7.5484527E+05   -1.8645928E+00
   1.2765947E-04   7.4838891E+05   -1.8641373E+00
   1.2824901E-04   7.4198933E+05   -1.8636810E+00
   1.2884128E-04   7.3564603E+05   -1.8632236E+00
   1.2943628E-04   7.2935849E+05   -1.8627653E+00
   1.3003403E-04   7.2312622E+05   -1.8623061E+00
   1.3063454E-04   7.1694872E+05   -1.8618458E+00
   1.3123783E-04   7.1082550E+05   -1.8613847E+00
   1.3184390E-04   7.0475608E+05   -1.8609226E+00
   1.3245277E-04   6.9873997E+05   -1.8604595E+00
   1.3306445E-04   6.9277669E+05   -1.8599955E+00
   1.3367895E-04   6.8686578E+05   -1.8595306E+00
   1.3429630E-04   6.8100676E+05   -1.8590647E+00
   1.3491649E-04   6.7519917E+05   -1.8585979E+00
   1.3553955E-04   6.6944255E+05   -1.8581302E+00
   1.3616548E-04   6.6373644E+05   -1.8576615E+00
   1.3679431E-04   6.5808039E+05   -1.8571919E+00
   1.3742604E-04   6.5247396E+05   -1.8567213E+00
   1.3806069E-04   6.4691669E+05   -1.8562499E+00
   1.3869827E-04   6.4140814E+05   -1.8557775E+00
   1.3933879E-04   6.3594789E+05   -1.8553042E+00
   1.3998227E-04   6.3053550E+05   -1.8548299E+00
   1.4062872E-04   6.2517053E+05   -1.8543548E+00
   1.4127816E-04   6.1985258E+05   -1.8538787E+00
   1.4193060E-04   6.1458121E+05   -1.8534017E+00
   1.4258605E-04   6.0935601E+05   -1.8529238E+00
   1.4324453E-04   6.0417656E+05   -1.8524450E+00
   1.4390605E-04   5.9904246E+05   -1.8519653E+00
   1.4457062E-04   5.9395331E+05   -1.8514847E+00
   1.4523826E-04   5.8890870E+05   -1.8510032E+00
   1.4590899E-04   5.8390822E+05   -1.8505208E+00
   1.4658281E-04   5.7895150E+05   -1.8500375E+00
   1.4725974E-04   5.7403813E+05   -1.8495533E+00
   1.4793981E-04   5.6916773E+05   -1.8490683E+00
   1.4862301E-04   5.6433992E+05   -1.8485823E+00
   1.4930936E-04   5.5955431E+05   -1.8480954E+00
   1.4999889E-04   5.5481052E+05   -1.8476077E+00
   1.5069160E-04   5.5010819E+05   -1.8471191E+00
   1.5138751E-04   5.4544695E+05   -1.8466296E+00
   1.5208663E-04   5.4082642E+05   -1.8461393E+00
   1.5278899E-04   5.3624625E+05   -1.8456480E+00
   1.5349458E-04   5.3170607E+05   -1.8451560E+00
   1.5420343E-04   5.2720552E+05   -1.8446630E+00
   1.5491556E-04   5.2274426E+05   -1.8441692E+00
   1.5563098E-04   5.1832193E+05   -1.8436745E+00
   1.5634970E-04   5.1393819E+05   -1.8431790E+00
   1.5707174E-04   5.0959268E+05   -1.8426826E+00
   1.5779711E-04   5.0528508E+05   -1.8421854E+00
   1.5852584E-04   5.0101503E+05   -1.8416873E+00
   1.5925792E-04   4.9678221E+05   -1.8411884E+00
   1.5999339E-04   4.9258629E+05   -1.8406886E+00
   1.6073226E-04   4.8842693E+05   -1.8401880E+00
   1.6147454E-04   4.8430381E+05   -1.8396866E+00
   1.6222024E-04   4.8021660E+05   -1.8391843E+00
   1.6296939E-04   4.7616500E+05   -1.8386812E+00
   1.6372200E-04   4.7214867E+05   -1.8381773E+00
   1.6447809E-04   4.6816731E+05   -1.8376726E+00
   1.6523767E-04   4.6422059E+05   -1.8371671E+00
   1.6600075E-04   4.6030823E+05   -1.8366607E+00
   1.6676736E-04   4.5642990E+05   -1.8361535E+00
   1.6753751E-04   4.5258531E+05   -1.8356456E+00
   1.6831122E-04   4.4877415E+05   -1.8351368E+00
   1.6908849E-04   4.4499613E+05   -1.8346272E+00
   1.6986936E-04   4.4125095E+05   -1.8341168E+00
   1.7065384E-04   4.3753832E+05   -1.8336057E+00
   1.7144193E-04   4.3385795E+05   -1.8330937E+00
   1.7223367E-04   4.3020955E+05   -1.8325810E+00
   1.7302906E-04   4.2659285E+05   -1.8320675E+00
   1.7382813E-04   4.2300755E+05   -1.8315532E+00
   1.7463089E-04   4.1945338E+05   -1.8310381E+00
   1.7543735E-04   4.1593005E+05   -1.8305223E+00
   1.7624754E-04   4.1243731E+05   -1.8300057E+00
   1.7706147E-04   4.0897487E+05   -1.8294883E+00
   1.7787916E-04   4.0554246E+05   -1.8289702E+00
   1.7870062E-04   4.0213982E+05   -1.8284513E+00
   1.7952588E-04   3.9876668E+05   -1.8279316E+00
   1.8035495E-04   3.9542279E+05   -1.8274113E+00
   1.8118785E-04   3.9210787E+05   -1.8268901E+00
   1.8202459E-04   3.8882168E+05   -1.8263683E+00
   1.8286520E-04   3.8556396E+05   -1.8258457E+00
   1.8370969E-04   3.8233446E+05   -1.8253224E+00
   1.8455808E-04   3.7913292E+05   -1.8247983E+00
   1.8541039E-04   3.7595910E+05   -1.8242735E+00
   1.8626663E-04   3.7281275E+05   -1.8237480E+00
   1.8712683E-04   3.6969362E+05   -1.8232218E+00
   1.8799100E-04   3.6660148E+05   -1.8226949E+00
   1.8885917E-04   3.6353609E+05   -1.8221673E+00
   1.8973134E-04   3.6049721E+05   -1.8216389E+00
   1.9060754E-04   3.5748460E+05   -1.8211099E+00
   1.9148778E-04   3.5449802E+05   -1.8205802E+00
   1.9237209E-04   3.5153726E+05   -1.8200497E+00
   1.9326049E-04   3.4860208E+05   -1.8195186E+00
   1.9415299E-04   3.4569226E+05   -1.8189869E+00
   1.9504960E-04   3.4280756E+05   -1.8184544E+00
   1.9595036E-04   3.3994777E+05   -1.8179213E+00
   1.9685528E-04   3.3711267E+05   -1.8173875E+00
   1.9776438E-04   3.3430203E+05   -1.8168530E+00
   1.9867768E-04   3.3151564E+05   -1.8163179E+00
   1.9959519E-04   3.2875329E+05   -1.8157821E+00
   2.0051694E-04   3.2601476E+05   -1.8152457E+00
   2.0144295E-04   3.2329984E+05   -1.8147086E+00
   2.0237324E-04   3.2060833E+05   -1.8141709E+00
   2.0330782E-04   3.1794001E+05   -1.8136325E+00
   2.0424671E-04   3.1529468E+05   -1.8130936E+00
   2.0518995E-04   3.1267213E+05   -1.8125539E+00
   2.0613754E-04   3.1007217E+05   -1.8120137E+00
   2.0708950E-04   3.0749460E+05   -1.8114729E+00
   2.0804586E-04   3.0493922E+05   -1.8109314E+00
   2.0900664E-04   3.0240582E+05   -1.8103893E+00
   2.0997185E-04   2.9989422E+05   -1.8098466E+00
   2.1094152E-04   2.9740423E+05   -1.8093034E+00
   2.1191567E-04   2.9493565E+05   -1.8087595E+00
   2.1289432E-04   2.9248829E+05   -1.8082150E+00
   2.1387749E-04   2.9006197E+05   -1.8076700E+00
   2.1486520E-04   2.8765650E+05   -1.8071244E+00
   2.1585747E-04   2.8527169E+05   -1.8065782E+00
   2.1685432E-04   2.8290737E+05   -1.8060314E+00
   2.1785578E-04   2.8056335E+05   -1.8054840E+00
   2.1886186E-04   2.7823945E+05   -1.8049361E+00
   2.1987259E-04   2.7593550E+05   -1.8043877E+00
   2.2088798E-04   2.7365132E+05   -1.8038387E+00
   2.2190807E-04   2.7138674E+05   -1.8032891E+00
   2.2293286E-04   2.6914157E+05   -1.8027390E+00
   2.2396239E-04   2.6691566E+05   -1.8021884E+00
   2.2499667E-04   2.6470883E+05   -1.8016373E+00
   2.2603573E-04   2.6252091E+05   -1.8010856E+00
   2.2707958E-04   2.6035174E+05   -1.8005334E+00
   2.2812826E-04   2.5820115E+05   -1.7999807E+00
   2.2918178E-04   2.5606897E+05   -1.7994274E+00
   2.3024017E-04   2.5395505E+05   -1.7988737E+00
   2.3130344E-04   2.5185923E+05   -1.7983195E+00
   2.3237162E-04   2.4978133E+05   -1.7977648E+00
   2.3344474E-04   2.4772122E+05   -1.7972096E+00
   2.3452281E-04   2.4567872E+05   -1.7966539E+00
   2.3560586E-04   2.4365369E+05   -1.7960977E+00
   2.3669392E-04   2.4164597E+05   -1.7955410E+00
   2.3778699E-04   2.3965541E+05   -1.7949839E+00
   2.3888512E-04   2.3768186E+05   -1.7944263E+00
   2.3998831E-04   2.3572516E+05   -1.7938683E+00
   2.4109661E-04   2.3378518E+05   -1.7933098E+00
   2.4221001E-04   2.3186175E+05   -1.7927509E+00
   2.4332857E-04   2.2995475E+05   -1.7921915E+00
   2.4445228E-04   2.2806402E+05   -1.7916317E+00
   2.4558119E-04   2.2618941E+05   -1.7910715E+00
   2.4671531E-04   2.2433079E+05   -1.7905108E+00
   2.4785467E-04   2.2248803E+05   -1.7899497E+00
   2.4899928E-04   2.2066097E+05   -1.7893882E+00
   2.5014919E-04   2.1884948E+05   -1.7888263E+00
   2.5130440E-04   2.1705342E+05   -1.7882640E+00
   2.5246495E-04   2.1527266E+05   -1.7877013E+00
   2.5363086E-04   2.1350707E+05   -1.7871382E+00
   2.5480216E-04   2.1175650E+05   -1.7865747E+00
   2.5597886E-04   2.1002083E+05   -1.7860109E+00
   2.5716100E-04   2.0829993E+05   -1.7854466E+00
   2.5834859E-04   2.0659367E+05   -1.7848820E+00
   2.5954168E-04   2.0490192E+05   -1.7843170E+00
   2.6074027E-04   2.0322455E+05   -1.7837517E+00
   2.6194439E-04   2.0156144E+05   -1.7831860E+00
   2.6315408E-04   1.9991246E+05   -1.7826200E+00
   2.6436935E-04   1.9827749E+05   -1.7820536E+00
   2.6559024E-04   1.9665640E+05   -1.7814869E+00
   2.6681676E-04   1.9504908E+05   -1.7809199E+00
   2.6804895E-04   1.9345540E+05   -1.7803525E+00
   2.6928683E-04   1.9187524E+05   -1.7797849E+00
   2.7053042E-04   1.9030848E+05   -1.7792169E+00
   2.7177976E-04   1.8875502E+05   -1.7786486E+00
   2.7303487E-04   1.8721472E+05   -1.7780800E+00
   2.7429577E-04   1.8568748E+05   -1.7775111E+00
   2.7556250E-04   1.8417318E+05   -1.7769419E+00
   2.7683507E-04   1.8267171E+05   -1.7763725E+00
   2.7811353E-04   1.8118296E+05   -1.7758027E+00
   2.7939788E-04   1.7970681E+05   -1.7752327E+00
   2.8068817E-04   1.7824316E+05   -1.7746624E+00
   2.8198442E-04   1.7679189E+05   -1.7740919E+00
   2.8328665E-04   1.7535290E+05   -1.7735211E+00
   2.8459490E-04   1.7392608E+05   -1.7729501E+00
   2.8590919E-04   1.7251132E+05   -1.7723788E+00
   2.8722955E-04   1.7110852E+05   -1.7718073E+00
   2.8855600E-04   1.6971758E+05   -1.7712355E+00
   2.8988859E-04   1.6833838E+05   -1.7706636E+00
   2.9122732E-04   1.6697084E+05   -1.7700914E+00
   2.9257224E-04   1.6561484E+05   -1.7695190E+00
   2.9392337E-04   1.6427028E+05   -1.7689464E+00
   2.9528074E-04   1.6293708E+05   -1.7683736E+00
   2.9664438E-04   1.6161512E+05   -1.7678005E+00
   2.9801431E-04   1.6030430E+05   -1.7672274E+00
   2.9939057E-04   1.5900454E+05   -1.7666540E+00
   3.0077319E-04   1.5771574E+05   -1.7660804E+00
   3.0216219E-04   1.5643779E+05   -1.7655067E+00
   3.0355761E-04   1.5517061E+05   -1.7649328E+00
   3.0495947E-04   1.5391410E+05   -1.7643588E+00
   3.0636780E-04   1.5266817E+05   -1.7637846E+00
   3.0778264E-04   1.5143273E+05   -1.7632102E+00
   3.0920401E-04   1.5020768E+05   -1.7626357E+00
   3.1063195E-04   1.4899294E+05   -1.7620611E+00
   3.1206648E-04   1.4778841E+05   -1.7614864E+00
   3.1350764E-04   1.4659400E+05   -1.7609115E+00
   3.1495545E-04   1.4540964E+05   -1.7603365E+00
   3.1640994E-04   1.4423523E+05   -1.7597614E+00
   3.1787116E-04   1.4307068E+05   -1.7591862E+00
   3.1933912E-04   1.4191591E+05   -1.7586109E+00
   3.2081386E-04   1.4077083E+05   -1.7580355E+00
   3.2229541E-04   1.3963536E+05   -1.7574601E+00
   3.2378381E-04   1.3850942E+05   -1.7568845E+00
   3.2527908E-04   1.3739292E+05   -1.7563089E+00
   3.2678125E-04   1.3628579E+05   -1.7557332E+00
   3.2829036E-04   1.3518793E+05   -1.7551574E+00
   3.2980644E-04   1.3409927E+05   -1.7545816E+00
   3.3132952E-04   1.3301973E+05   -1.7540057E+00
   3.3285963E-04   1.3194924E+05   -1.7534298E+00
   3.3439681E-04   1.3088770E+05   -1.7528539E+00
   3.3594109E-04   1.2983505E+05   -1.7522779E+00
   3.3749250E-04   1.2879121E+05   -1.7517019E+00
   3.3905108E-04   1.2775610E+05   -1.7511259E+00
   3.4061685E-04   1.2672965E+05   -1.7505499E+00
   3.4218986E-04   1.2571177E+05   -1.7499738E+00
   3.4377013E-04   1.2470241E+05   -1.7493978E+00
   3.4535769E-04   1.2370147E+05   -1.7488218E+00
   3.4695259E-04   1.2270889E+05   -1.7482457E+00
   3.4855485E-04   1.2172461E+05   -1.7476697E+00
   3.5016452E-04   1.2074853E+05   -1.7470938E+00
   3.5178161E-04   1.1978061E+05   -1.7465178E+00
   3.5340618E-04   1.1882075E+05   -1.7459419E+00
   3.5503824E-04   1.1786890E+05   -1.7453660E+00
   3.5667785E-04   1.1692499E+05   -1.7447902E+00
   3.5832502E-04   1.1598894E+05   -1.7442144E+00
   3.5997981E-04   1.1506070E+05   -1.7436387E+00
   3.6164223E-04   1.1414018E+05   -1.7430631E+00
   3.6331233E-04   1.1322733E+05   -1.7424875E+00
   3.6499015E-04   1.1232207E+05   -1.7419120E+00
   3.6667571E-04   1.1142435E+05   -1.7413366E+00
   3.6836906E-04   1.1053410E+05   -1.7407613E+00
   3.7007022E-04   1.0965125E+05   -1.7401861E+00
   3.7177925E-04   1.0877574E+05   -1.7396110E+00
   3.7349616E-04   1.0790751E+05   -1.7390360E+00
   3.7522101E-04   1.0704649E+05   -1.7384611E+00
   3.7695382E-04   1.0619262E+05   -1.7378863E+00
   3.7869463E-04   1.0534584E+05   -1.7373117E+00
   3.8044348E-04   1.0450610E+05   -1.7367372E+00
   3.8220041E-04   1.0367332E+05   -1.7361628E+00
   3.8396545E-04   1.0284744E+05   -1.7355886E+00
   3.8573864E-04   1.0202842E+05   -1.7350145E+00
   3.8752002E-04   1.0121619E+05   -1.7344406E+00
   3.8930963E-04   1.0041068E+05   -1.7338669E+00
   3.9110750E-04   9.9611856E+04   -1.7332933E+00
   3.9291368E-04   9.8819644E+04   -1.7327199E+00
   3.9472820E-04   9.8033991E+04   -1.7321467E+00
   3.9655109E-04   9.7254842E+04   -1.7315737E+00
   3.9838241E-04   9.6482139E+04   -1.7310008E+00
   4.0022218E-04   9.5715828E+04   -1.7304282E+00
   4.0207045E-04   9.4955855E+04   -1.7298557E+00
   4.0392725E-04   9.4202164E+04   -1.7292835E+00
   4.0579263E-04   9.3454702E+04   -1.7287115E+00
   4.0766662E-04   9.2713414E+04   -1.7281397E+00
   4.0954927E-04   9.1978249E+04   -1.7275682E+00
   4.1144061E-04   9.1249154E+04   -1.7269969E+00
   4.1334068E-04   9.0526076E+04   -1.7264258E+00
   4.1524953E-04   8.9808964E+04   -1.7258550E+00
   4.1716720E-04   8.9097767E+04   -1.7252844E+00
   4.1909372E-04   8.8392435E+04   -1.7247141E+00
   4.2102914E-04   8.7692916E+04   -1.7241440E+00
   4.2297350E-04   8.6999162E+04   -1.7235743E+00
   4.2492683E-04   8.6311123E+04   -1.7230047E+00
   4.2688919E-04   8.5628750E+04   -1.7224355E+00
   4.2886061E-04   8.4951994E+04   -1.7218666E+00
   4.3084113E-04   8.4280808E+04   -1.7212980E+00
   4.3283080E-04   8.3615144E+04   -1.7207296E+00
   4.3482966E-04   8.2954955E+04   -1.7201616E+00
   4.3683775E-04   8.2300193E+04   -1.7195939E+00
   4.3885511E-04   8.1650813E+04   -1.7190265E+00
   4.4088179E-04   8.1006769E+04   -1.7184594E+00
   4.4291783E-04   8.0368014E+04   -1.7178926E+00
   4.4496327E-04   7.9734505E+04   -1.7173262E+00
   4.4701816E-04   7.9106195E+04   -1.7167601E+00
   4.4908253E-04   7.8483041E+04   -1.7161944E+00
   4.5115644E-04   7.7864999E+04   -1.7156290E+00
   4.5323993E-04   7.7252025E+04   -1.7150640E+00
   4.5533304E-04   7.6644077E+04   -1.7144993E+00
   4.5743582E-04   7.6041110E+04   -1.7139350E+00
   4.5954830E-04   7.5443083E+04   -1.7133711E+00
   4.6167054E-04   7.4849954E+04   -1.7128076E+00
   4.6380259E-04   7.4261680E+04   -1.7122444E+00
   4.6594448E-04   7.3678221E+04   -1.7116816E+00
   4.6809626E-04   7.3099536E+04   -1.7111193E+00
   4.7025797E-04   7.2525583E+04   -1.7105573E+00
   4.7242967E-04   7.1956323E+04   -1.7099957E+00
   4.7461140E-04   7.1391717E+04   -1.7094346E+00
   4.7680321E-04   7.0831723E+04   -1.7088739E+00
   4.7900514E-04   7.0276303E+04   -1.7083136E+00
   4.8121723E-04   6.9725419E+04   -1.7077537E+00
   4.8343954E-04   6.9179031E+04   -1.7071942E+00
   4.8567212E-04   6.8637102E+04   -1.7066352E+00
   4.8791500E-04   6.8099594E+04   -1.7060767E+00
   4.9016825E-04   6.7566468E+04   -1.7055186E+00
   4.9243189E-04   6.7037689E+04   -1.7049609E+00
   4.9470600E-04   6.6513219E+04   -1.7044037E+00
   4.9699060E-04   6.5993021E+04   -1.7038470E+00
   4.9928575E-04   6.5477059E+04   -1.7032908E+00
   5.0159151E-04   6.4965298E+04   -1.7027350E+00
   5.0390791E-04   6.4457702E+04   -1.7021797E+00
   5.0623501E-04   6.3954235E+04   -1.7016249E+00
   5.0857286E-04   6.3454863E+04   -1.7010706E+00
   5.1092150E-04   6.2959551E+04   -1.7005168E+00
   5.1328099E-04   6.2468265E+04   -1.6999635E+00
   5.1565137E-04   6.1980970E+04   -1.6994107E+00
   5.1803270E-04   6.1497633E+04   -1.6988584E+00
   5.2042503E-04   6.1018220E+04   -1.6983067E+00
   5.2282841E-04   6.0542699E+04   -1.6977554E+00
   5.2524289E-04   6.0071035E+04   -1.6972047E+00
   5.2766851E-04   5.9603198E+04   -1.6966545E+00
   5.3010534E-04   5.9139153E+04   -1.6961049E+00
   5.3255342E-04   5.8678871E+04   -1.6955558E+00
   5.3501281E-04   5.8222317E+04   -1.6950073E+00
   5.3748356E-04   5.7769462E+04   -1.6944593E+00
   5.3996571E-04   5.7320274E+04   -1.6939119E+00
   5.4245933E-04   5.6874722E+04   -1.6933650E+00
   5.4496446E-04   5.6432775E+04   -1.6928187E+00
   5.4748117E-04   5.5994404E+04   -1.6922730E+00
   5.5000949E-04   5.5559577E+04   -1.6917278E+00
   5.5254949E-04   5.5128266E+04   -1.6911833E+00
   5.5510123E-04   5.4700439E+04   -1.6906393E+00
   5.5766474E-04   5.4276069E+04   -1.6900959E+00
   5.6024010E-04   5.3855126E+04   -1.6895532E+00
   5.6282734E-04   5.3437582E+04   -1.6890110E+00
   5.6542654E-04   5.3023406E+04   -1.6884694E+00
   5.6803774E-04   5.2612573E+04   -1.6879285E+00
   5.7066099E-04   5.2205052E+04   -1.6873881E+00
   5.7329637E-04   5.1800817E+04   -1.6868484E+00
   5.7594391E-04   5.1399839E+04   -1.6863093E+00
   5.7860368E-04   5.1002093E+04   -1.6857709E+00
   5.8127573E-04   5.0607549E+04   -1.6852330E+00
   5.8396012E-04   5.0216182E+04   -1.6846959E+00
   5.8665691E-04   4.9827965E+04   -1.6841593E+00
   5.8936616E-04   4.9442871E+04   -1.6836234E+00
   5.9208791E-04   4.9060875E+04   -1.6830882E+00
   5.9482223E-04   4.8681950E+04   -1.6825536E+00
   5.9756919E-04   4.8306070E+04   -1.6820197E+00
   6.0032882E-04   4.7933211E+04   -1.6814865E+00
   6.0310120E-04   4.7563346E+04   -1.6809539E+00
   6.0588639E-04   4.7196451E+04   -1.6804220E+00
   6.0868443E-04   4.6832500E+04   -1.6798908E+00
   6.1149540E-04   4.6471470E+04   -1.6793602E+00
   6.1431935E-04   4.6113336E+04   -1.6788304E+00
   6.1715634E-04   4.5758074E+04   -1.6783012E+00
   6.2000644E-04   4.5405659E+04   -1.6777728E+00
   6.2286969E-04   4.5056068E+04   -1.6772450E+00
