#        a       HoverH0(a)       dlogHdloga_of_a(a)
   1.0000000E-04   1.1573136E+06   -1.8913110E+00
   1.0046181E-04   1.1472734E+06   -1.8909185E+00
   1.0092575E-04   1.1373224E+06   -1.8905250E+00
   1.0139184E-04   1.1274598E+06   -1.8901305E+00
   1.0186008E-04   1.1176847E+06   -1.8897350E+00
   1.0233048E-04   1.1079964E+06   -1.8893385E+00
   1.0280305E-04   1.0983940E+06   -1.8889410E+00
   1.0327781E-04   1.0888769E+06   -1.8885424E+00
   1.0375475E-04   1.0794442E+06   -1.8881428E+00
   1.0423390E-04   1.0700953E+06   -1.8877422E+00
   1.0471527E-04   1.0608292E+06   -1.8873406E+00
   1.0519885E-04   1.0516453E+06   -1.8869379E+00
   1.0568467E-04   1.0425429E+06   -1.8865343E+00
   1.0617274E-04   1.0335212E+06   -1.8861296E+00
   1.0666305E-04   1.0245795E+06   -1.8857239E+00
   1.0715563E-04   1.0157170E+06   -1.8853172E+00
   1.0765049E-04   1.0069331E+06   -1.8849095E+00
   1.0814763E-04   9.9822700E+05   -1.8845007E+00
   1.0864707E-04   9.8959806E+05   -1.8840910E+00
   1.0914881E-04   9.8104557E+05   -1.8836802E+00
   1.0965287E-04   9.7256883E+05   -1.8832684E+00
   1.1015926E-04   9.6416717E+05   -1.8828556E+00
   1.1066799E-04   9.5583991E+05   -1.8824418E+00
   1.1117906E-04   9.4758637E+05   -1.8820270E+00
   1.1169250E-04   9.3940590E+05   -1.8816112E+00
   1.1220831E-04   9.3129784E+05   -1.8811943E+00
   1.1272650E-04   9.2326153E+05   -1.8807765E+00
   1.1324708E-04   9.1529634E+05   -1.8803576E+00
   1.1377007E-04   9.0740162E+05   -1.8799378E+00
   1.1429547E-04   8.9957674E+05   -1.8795169E+00
   1.1482330E-04   8.9182106E+05   -1.8790950E+00
   1.1535356E-04   8.8413397E+05   -1.8786721E+00
   1.1588628E-04   8.7651485E+05   -1.8782482E+00
   1.1642145E-04   8.6896308E+05   -1.8778233E+00
   1.1695910E-04   8.6147807E+05   -1.8773975E+00
   1.1749923E-04   8.5405921E+05   -1.8769706E+00
   1.1804185E-04   8.4670591E+05   -1.8765427E+00
   1.1858698E-04   8.3941757E+05   -1.8761138E+00
   1.1913463E-04   8.3219362E+05   -1.8756839E+00
   1.1968481E-04   8.2503347E+05   -1.8752530E+00
   1.2023752E-04   8.1793655E+05   -1.8748211E+00
   1.2079279E-04   8.1090230E+05   -1.8743882E+00
   1.2135063E-04   8.0393015E+05   -1.8739544E+00
   1.2191104E-04   7.9701953E+05   -1.8735195E+00
   1.2247403E-04   7.9016991E+05   -1.8730836E+00
   1.2303963E-04   7.8338073E+05   -1.8726468E+00
   1.2360784E-04   7.7665145E+05   -1.8722090E+00
   1.2417868E-04   7.6998152E+05   -1.8717701E+00
   1.2475215E-04   7.6337043E+05   -1.8713303E+00
   1.2532826E-04   7.5681763E+05   -1.8708895E+00
   1.2590704E-04   7.5032260E+05   -1.8704478E+00
   1.2648850E-04   7.4388483E+05   -1.8700050E+00
   1.2707263E-04   7.3750381E+05   -1.8695613E+00
   1.2765947E-04   7.3117901E+05   -1.8691165E+00
   1.2824901E-04   7.2490995E+05   -1.8686708E+00
   1.2884128E-04   7.1869612E+05   -1.8682242E+00
   1.2943628E-04   7.1253701E+05   -1.8677765E+00
   1.3003403E-04   7.0643215E+05   -1.8673279E+00
   1.3063454E-04   7.0038104E+05   -1.8668783E+00
   1.3123783E-04   6.9438320E+05   -1.8664278E+00
   1.3184390E-04   6.8843816E+05   -1.8659762E+00
   1.3245277E-04   6.8254544E+05   -1.8655237E+00
   1.3306445E-04   6.7670457E+05   -1.8650703E+00
   1.3367895E-04   6.7091508E+05   -1.8646158E+00
   1.3429630E-04   6.6517653E+05   -1.8641605E+00
   1.3491649E-04   6.5948843E+05   -1.8637041E+00
   1.3553955E-04   6.5385036E+05   -1.8632468E+00
   1.3616548E-04   6.4826186E+05   -1.8627886E+00
   1.3679431E-04   6.4272248E+05   -1.8623294E+00
   1.3742604E-04   6.3723178E+05   -1.8618692E+00
   1.3806069E-04   6.3178933E+05   -1.8614081E+00
   1.3869827E-04   6.2639470E+05   -1.8609460E+00
   1.3933879E-04   6.2104745E+05   -1.8604830E+00
   1.3998227E-04   6.1574716E+05   -1.8600191E+00
   1.4062872E-04   6.1049341E+05   -1.8595542E+00
   1.4127816E-04   6.0528579E+05   -1.8590884E+00
   1.4193060E-04   6.0012388E+05   -1.8586216E+00
   1.4258605E-04   5.9500727E+05   -1.8581539E+00
   1.4324453E-04   5.8993556E+05   -1.8576852E+00
   1.4390605E-04   5.8490834E+05   -1.8572157E+00
   1.4457062E-04   5.7992522E+05   -1.8567452E+00
   1.4523826E-04   5.7498580E+05   -1.8562738E+00
   1.4590899E-04   5.7008969E+05   -1.8558014E+00
   1.4658281E-04   5.6523651E+05   -1.8553281E+00
   1.4725974E-04   5.6042586E+05   -1.8548539E+00
   1.4793981E-04   5.5565737E+05   -1.8543788E+00
   1.4862301E-04   5.5093066E+05   -1.8539028E+00
   1.4930936E-04   5.4624536E+05   -1.8534259E+00
   1.4999889E-04   5.4160109E+05   -1.8529480E+00
   1.5069160E-04   5.3699749E+05   -1.8524693E+00
   1.5138751E-04   5.3243420E+05   -1.8519896E+00
   1.5208663E-04   5.2791086E+05   -1.8515091E+00
   1.5278899E-04   5.2342710E+05   -1.8510276E+00
   1.5349458E-04   5.1898258E+05   -1.8505452E+00
   1.5420343E-04   5.1457694E+05   -1.8500620E+00
   1.5491556E-04   5.1020984E+05   -1.8495778E+00
   1.5563098E-04   5.0588093E+05   -1.8490928E+00
   1.5634970E-04   5.0158988E+05   -1.8486069E+00
   1.5707174E-04   4.9733633E+05   -1.8481201E+00
   1.5779711E-04   4.9311996E+05   -1.8476324E+00
   1.5852584E-04   4.8894044E+05   -1.8471438E+00
   1.5925792E-04   4.8479744E+05   -1.8466544E+00
   1.5999339E-04   4.8069062E+05   -1.8461641E+00
   1.6073226E-04   4.7661967E+05   -1.8456729E+00
   1.6147454E-04   4.7258427E+05   -1.8451808E+00
   1.6222024E-04   4.6858410E+05   -1.8446879E+00
   1.6296939E-04   4.6461884E+05   -1.8441941E+00
   1.6372200E-04   4.6068819E+05   -1.8436995E+00
   1.6447809E-04   4.5679184E+05   -1.8432040E+00
   1.6523767E-04   4.5292947E+05   -1.8427077E+00
   1.6600075E-04   4.4910079E+05   -1.8422105E+00
   1.6676736E-04   4.4530549E+05   -1.8417124E+00
   1.6753751E-04   4.4154328E+05   -1.8412135E+00
   1.6831122E-04   4.3781387E+05   -1.8407138E+00
   1.6908849E-04   4.3411695E+05   -1.8402133E+00
   1.6986936E-04   4.3045225E+05   -1.8397119E+00
   1.7065384E-04   4.2681946E+05   -1.8392097E+00
   1.7144193E-04   4.2321832E+05   -1.8387066E+00
   1.7223367E-04   4.1964853E+05   -1.8382027E+00
   1.7302906E-04   4.1610983E+05   -1.8376981E+00
   1.7382813E-04   4.1260192E+05   -1.8371925E+00
   1.7463089E-04   4.0912454E+05   -1.8366862E+00
   1.7543735E-04   4.0567741E+05   -1.8361791E+00
   1.7624754E-04   4.0226027E+05   -1.8356712E+00
   1.7706147E-04   3.9887284E+05   -1.8351624E+00
   1.7787916E-04   3.9551487E+05   -1.8346529E+00
   1.7870062E-04   3.9218609E+05   -1.8341425E+00
   1.7952588E-04   3.8888624E+05   -1.8336314E+00
   1.8035495E-04   3.8561506E+05   -1.8331195E+00
   1.8118785E-04   3.8237231E+05   -1.8326068E+00
   1.8202459E-04   3.7915771E+05   -1.8320933E+00
   1.8286520E-04   3.7597104E+05   -1.8315791E+00
   1.8370969E-04   3.7281203E+05   -1.8310640E+00
   1.8455808E-04   3.6968044E+05   -1.8305482E+00
   1.8541039E-04   3.6657603E+05   -1.8300317E+00
   1.8626663E-04   3.6349855E+05   -1.8295143E+00
   1.8712683E-04   3.6044777E+05   -1.8289962E+00
   1.8799100E-04   3.5742345E+05   -1.8284774E+00
   1.8885917E-04   3.5442535E+05   -1.8279578E+00
   1.8973134E-04   3.5145324E+05   -1.8274374E+00
   1.9060754E-04   3.4850689E+05   -1.8269163E+00
   1.9148778E-04   3.4558607E+05   -1.8263945E+00
   1.9237209E-04   3.4269056E+05   -1.8258720E+00
   1.9326049E-04   3.3982012E+05   -1.8253487E+00
   1.9415299E-04   3.3697454E+05   -1.8248246E+00
   1.9504960E-04   3.3415360E+05   -1.8242999E+00
   1.9595036E-04   3.3135707E+05   -1.8237744E+00
   1.9685528E-04   3.2858474E+05   -1.8232482E+00
   1.9776438E-04   3.2583640E+05   -1.8227213E+00
   1.9867768E-04   3.2311183E+05   -1.8221937E+00
   1.9959519E-04   3.2041083E+05   -1.8216654E+00
   2.0051694E-04   3.1773317E+05   -1.8211364E+00
   2.0144295E-04   3.1507866E+05   -1.8206067E+00
   2.0237324E-04   3.1244709E+05   -1.8200764E+00
   2.0330782E-04   3.0983826E+05   -1.8195453E+00
   2.0424671E-04   3.0725196E+05   -1.8190135E+00
   2.0518995E-04   3.0468800E+05   -1.8184811E+00
   2.0613754E-04   3.0214618E+05   -1.8179480E+00
   2.0708950E-04   2.9962629E+05   -1.8174142E+00
   2.0804586E-04   2.9712816E+05   -1.8168798E+00
   2.0900664E-04   2.9465158E+05   -1.8163447E+00
   2.0997185E-04   2.9219636E+05   -1.8158089E+00
   2.1094152E-04   2.8976231E+05   -1.8152725E+00
   2.1191567E-04   2.8734926E+05   -1.8147355E+00
   2.1289432E-04   2.8495700E+05   -1.8141978E+00
   2.1387749E-04   2.8258536E+05   -1.8136595E+00
   2.1486520E-04   2.8023415E+05   -1.8131205E+00
   2.1585747E-04   2.7790320E+05   -1.8125809E+00
   2.1685432E-04   2.7559232E+05   -1.8120407E+00
   2.1785578E-04   2.7330134E+05   -1.8114999E+00
   2.1886186E-04   2.7103007E+05   -1.8109585E+00
   2.1987259E-04   2.6877836E+05   -1.8104164E+00
   2.2088798E-04   2.6654602E+05   -1.8098738E+00
   2.2190807E-04   2.6433288E+05   -1.8093305E+00
   2.2293286E-04   2.6213877E+05   -1.8087867E+00
   2.2396239E-04   2.5996353E+05   -1.8082422E+00
   2.2499667E-04   2.5780698E+05   -1.8076972E+00
   2.2603573E-04   2.5566897E+05   -1.8071516E+00
   2.2707958E-04   2.5354932E+05   -1.8066054E+00
   2.2812826E-04   2.5144788E+05   -1.8060587E+00
   2.2918178E-04   2.4936449E+05   -1.8055114E+00
   2.3024017E-04   2.4729898E+05   -1.8049635E+00
   2.3130344E-04   2.4525120E+05   -1.8044150E+00
   2.3237162E-04   2.4322099E+05   -1.8038661E+00
   2.3344474E-04   2.4120820E+05   -1.8033165E+00
   2.3452281E-04   2.3921267E+05   -1.8027665E+00
   2.3560586E-04   2.3723425E+05   -1.8022159E+00
   2.3669392E-04   2.3527279E+05   -1.8016647E+00
   2.3778699E-04   2.3332814E+05   -1.8011131E+00
   2.3888512E-04   2.3140016E+05   -1.8005609E+00
   2.3998831E-04   2.2948869E+05   -1.8000082E+00
   2.4109661E-04   2.2759358E+05   -1.7994550E+00
   2.4221001E-04   2.2571471E+05   -1.7989013E+00
   2.4332857E-04   2.2385191E+05   -1.7983471E+00
   2.4445228E-04   2.2200506E+05   -1.7977924E+00
   2.4558119E-04   2.2017401E+05   -1.7972372E+00
   2.4671531E-04   2.1835861E+05   -1.7966815E+00
   2.4785467E-04   2.1655874E+05   -1.7961253E+00
   2.4899928E-04   2.1477426E+05   -1.7955687E+00
   2.5014919E-04   2.1300503E+05   -1.7950116E+00
   2.5130440E-04   2.1125091E+05   -1.7944540E+00
   2.5246495E-04   2.0951178E+05   -1.7938960E+00
   2.5363086E-04   2.0778750E+05   -1.7933376E+00
   2.5480216E-04   2.0607794E+05   -1.7927786E+00
   2.5597886E-04   2.0438298E+05   -1.7922193E+00
   2.5716100E-04   2.0270247E+05   -1.7916595E+00
   2.5834859E-04   2.0103631E+05   -1.7910993E+00
   2.5954168E-04   1.9938435E+05   -1.7905386E+00
   2.6074027E-04   1.9774648E+05   -1.7899775E+00
   2.6194439E-04   1.9612257E+05   -1.7894161E+00
   2.6315408E-04   1.9451250E+05   -1.7888542E+00
   2.6436935E-04   1.9291615E+05   -1.7882919E+00
   2.6559024E-04   1.9133339E+05   -1.7877292E+00
   2.6681676E-04   1.8976411E+05   -1.7871661E+00
   2.6804895E-04   1.8820820E+05   -1.7866026E+00
   2.6928683E-04   1.8666552E+05   -1.7860388E+00
   2.7053042E-04   1.8513597E+05   -1.7854745E+00
   2.7177976E-04   1.8361943E+05   -1.7849099E+00
   2.7303487E-04   1.8211579E+05   -1.7843450E+00
   2.7429577E-04   1.8062493E+05   -1.7837797E+00
   2.7556250E-04   1.7914674E+05   -1.7832140E+00
   2.7683507E-04   1.7768111E+05   -1.7826480E+00
   2.7811353E-04   1.7622793E+05   -1.7820816E+00
   2.7939788E-04   1.7478710E+05   -1.7815149E+00
   2.8068817E-04   1.7335849E+05   -1.7809479E+00
   2.8198442E-04   1.7194201E+05   -1.7803805E+00
   2.8328665E-04   1.7053756E+05   -1.7798129E+00
   2.8459490E-04   1.6914501E+05   -1.7792449E+00
   2.8590919E-04   1.6776428E+05   -1.7786766E+00
   2.8722955E-04   1.6639525E+05   -1.7781080E+00
   2.8855600E-04   1.6503783E+05   -1.7775391E+00
   2.8988859E-04   1.6369191E+05   -1.7769700E+00
   2.9122732E-04   1.6235739E+05   -1.7764005E+00
   2.9257224E-04   1.6103418E+05   -1.7758308E+00
   2.9392337E-04   1.5972217E+05   -1.7752608E+00
   2.9528074E-04   1.5842126E+05   -1.7746905E+00
   2.9664438E-04   1.5713136E+05   -1.7741200E+00
   2.9801431E-04   1.5585238E+05   -1.7735492E+00
   2.9939057E-04   1.5458421E+05   -1.7729782E+00
   3.0077319E-04   1.5332677E+05   -1.7724069E+00
   3.0216219E-04   1.5207995E+05   -1.7718354E+00
   3.0355761E-04   1.5084367E+05   -1.7712636E+00
   3.0495947E-04   1.4961784E+05   -1.7706917E+00
   3.0636780E-04   1.4840235E+05   -1.7701195E+00
   3.0778264E-04   1.4719713E+05   -1.7695471E+00
   3.0920401E-04   1.4600208E+05   -1.7689745E+00
   3.1063195E-04   1.4481712E+05   -1.7684016E+00
   3.1206648E-04   1.4364215E+05   -1.7678286E+00
   3.1350764E-04   1.4247710E+05   -1.7672555E+00
   3.1495545E-04   1.4132186E+05   -1.7666821E+00
   3.1640994E-04   1.4017636E+05   -1.7661085E+00
   3.1787116E-04   1.3904052E+05   -1.7655348E+00
   3.1933912E-04   1.3791424E+05   -1.7649609E+00
   3.2081386E-04   1.3679745E+05   -1.7643869E+00
   3.2229541E-04   1.3569006E+05   -1.7638127E+00
   3.2378381E-04   1.3459199E+05   -1.7632383E+00
   3.2527908E-04   1.3350317E+05   -1.7626638E+00
   3.2678125E-04   1.3242350E+05   -1.7620892E+00
   3.2829036E-04   1.3135290E+05   -1.7615145E+00
   3.2980644E-04   1.3029131E+05   -1.7609396E+00
   3.3132952E-04   1.2923865E+05   -1.7603646E+00
   3.3285963E-04   1.2819482E+05   -1.7597895E+00
   3.3439681E-04   1.2715977E+05   -1.7592143E+00
   3.3594109E-04   1.2613340E+05   -1.7586390E+00
   3.3749250E-04   1.2511565E+05   -1.7580636E+00
   3.3905108E-04   1.2410644E+05   -1.7574881E+00
   3.4061685E-04   1.2310570E+05   -1.7569125E+00
   3.4218986E-04   1.2211336E+05   -1.7563369E+00
   3.4377013E-04   1.2112933E+05   -1.7557612E+00
   3.4535769E-04   1.2015355E+05   -1.7551854E+00
   3.4695259E-04   1.1918595E+05   -1.7546096E+00
   3.4855485E-04   1.1822645E+05   -1.7540337E+00
   3.5016452E-04   1.1727499E+05   -1.7534578E+00
   3.5178161E-04   1.1633150E+05   -1.7528819E+00
   3.5340618E-04   1.1539590E+05   -1.7523059E+00
   3.5503824E-04   1.1446813E+05   -1.7517299E+00
   3.5667785E-04   1.1354812E+05   -1.7511538E+00
   3.5832502E-04   1.1263581E+05   -1.7505778E+00
   3.5997981E-04   1.1173112E+05   -1.7500018E+00
   3.6164223E-04   1.1083399E+05   -1.7494257E+00
   3.6331233E-04   1.0994436E+05   -1.7488497E+00
   3.6499015E-04   1.0906215E+05   -1.7482736E+00
   3.6667571E-04   1.0818732E+05   -1.7476976E+00
   3.6836906E-04   1.0731978E+05   -1.7471216E+00
   3.7007022E-04   1.0645949E+05   -1.7465457E+00
   3.7177925E-04   1.0560637E+05   -1.7459697E+00
   3.7349616E-04   1.0476036E+05   -1.7453938E+00
   3.7522101E-04   1.0392141E+05   -1.7448180E+00
   3.7695382E-04   1.0308945E+05   -1.7442422E+00
   3.7869463E-04   1.0226442E+05   -1.7436665E+00
   3.8044348E-04   1.0144627E+05   -1.7430909E+00
   3.8220041E-04   1.0063492E+05   -1.7425153E+00
   3.8396545E-04   9.9830334E+04   -1.7419398E+00
   3.8573864E-04   9.9032440E+04   -1.7413643E+00
   3.8752002E-04   9.8241183E+04   -1.7407890E+00
   3.8930963E-04   9.7456507E+04   -1.7402138E+00
   3.9110750E-04   9.6678354E+04   -1.7396387E+00
   3.9291368E-04   9.5906668E+04   -1.7390636E+00
   3.9472820E-04   9.5141394E+04   -1.7384887E+00
   3.9655109E-04   9.4382477E+04   -1.7379139E+00
   3.9838241E-04   9.3629861E+04   -1.7373393E+00
   4.0022218E-04   9.2883492E+04   -1.7367648E+00
   4.0207045E-04   9.2143317E+04   -1.7361904E+00
   4.0392725E-04   9.1409283E+04   -1.7356161E+00
   4.0579263E-04   9.0681335E+04   -1.7350420E+00
   4.0766662E-04   8.9959423E+04   -1.7344681E+00
   4.0954927E-04   8.9243494E+04   -1.7338943E+00
   4.1144061E-04   8.8533496E+04   -1.7333208E+00
   4.1334068E-04   8.7829379E+04   -1.7327473E+00
   4.1524953E-04   8.7131092E+04   -1.7321741E+00
   4.1716720E-04   8.6438585E+04   -1.7316010E+00
   4.1909372E-04   8.5751809E+04   -1.7310282E+00
   4.2102914E-04   8.5070713E+04   -1.7304555E+00
   4.2297350E-04   8.4395250E+04   -1.7298831E+00
   4.2492683E-04   8.3725371E+04   -1.7293108E+00
   4.2688919E-04   8.3061028E+04   -1.7287388E+00
   4.2886061E-04   8.2402173E+04   -1.7281670E+00
   4.3084113E-04   8.1748760E+04   -1.7275954E+00
   4.3283080E-04   8.1100742E+04   -1.7270241E+00
   4.3482966E-04   8.0458072E+04   -1.7264530E+00
   4.3683775E-04   7.9820705E+04   -1.7258821E+00
   4.3885511E-04   7.9188596E+04   -1.7253115E+00
   4.4088179E-04   7.8561698E+04   -1.7247412E+00
   4.4291783E-04   7.7939968E+04   -1.7241711E+00
   4.4496327E-04   7.7323362E+04   -1.7236013E+00
   4.4701816E-04   7.6711835E+04   -1.7230317E+00
   4.4908253E-04   7.6105344E+04   -1.7224625E+00
   4.5115644E-04   7.5503846E+04   -1.7218935E+00
   4.5323993E-04   7.4907298E+04   -1.7213249E+00
   4.5533304E-04   7.4315658E+04   -1.7207565E+00
   4.5743582E-04   7.3728885E+04   -1.7201884E+00
   4.5954830E-04   7.3146935E+04   -1.7196207E+00
   4.6167054E-04   7.2569769E+04   -1.7190532E+00
   4.6380259E-04   7.1997345E+04   -1.7184861E+00
   4.6594448E-04   7.1429623E+04   -1.7179193E+00
   4.6809626E-04   7.0866562E+04   -1.7173529E+00
   4.7025797E-04   7.0308124E+04   -1.7167868E+00
   4.7242967E-04   6.9754268E+04   -1.7162210E+00
   4.7461140E-04   6.9204955E+04   -1.7156556E+00
   4.7680321E-04   6.8660147E+04   -1.7150905E+00
   4.7900514E-04   6.8119805E+04   -1.7145258E+00
   4.8121723E-04   6.7583891E+04   -1.7139615E+00
   4.8343954E-04   6.7052368E+04   -1.7133976E+00
   4.8567212E-04   6.6525198E+04   -1.7128340E+00
   4.8791500E-04   6.6002344E+04   -1.7122708E+00
   4.9016825E-04   6.5483769E+04   -1.7117080E+00
   4.9243189E-04   6.4969437E+04   -1.7111456E+00
   4.9470600E-04   6.4459311E+04   -1.7105836E+00
   4.9699060E-04   6.3953357E+04   -1.7100220E+00
   4.9928575E-04   6.3451537E+04   -1.7094608E+00
   5.0159151E-04   6.2953819E+04   -1.7089000E+00
   5.0390791E-04   6.2460165E+04   -1.7083397E+00
   5.0623501E-04   6.1970543E+04   -1.7077798E+00
   5.0857286E-04   6.1484917E+04   -1.7072203E+00
   5.1092150E-04   6.1003254E+04   -1.7066613E+00
   5.1328099E-04   6.0525520E+04   -1.7061027E+00
   5.1565137E-04   6.0051682E+04   -1.7055445E+00
   5.1803270E-04   5.9581707E+04   -1.7049868E+00
   5.2042503E-04   5.9115562E+04   -1.7044296E+00
   5.2282841E-04   5.8653214E+04   -1.7038728E+00
   5.2524289E-04   5.8194631E+04   -1.7033165E+00
   5.2766851E-04   5.7739782E+04   -1.7027607E+00
   5.3010534E-04   5.7288634E+04   -1.7022054E+00
   5.3255342E-04   5.6841157E+04   -1.7016506E+00
   5.3501281E-04   5.6397319E+04   -1.7010962E+00
   5.3748356E-04   5.5957090E+04   -1.7005424E+00
   5.3996571E-04   5.5520438E+04   -1.6999890E+00
   5.4245933E-04   5.5087335E+04   -1.6994362E+00
   5.4496446E-04   5.4657749E+04   -1.6988838E+00
   5.4748117E-04   5.4231651E+04   -1.6983320E+00
   5.5000949E-04   5.3809012E+04   -1.6977808E+00
   5.5254949E-04   5.3389802E+04   -1.6972300E+00
   5.5510123E-04   5.2973992E+04   -1.6966798E+00
   5.5766474E-04   5.2561554E+04   -1.6961301E+00
   5.6024010E-04   5.2152458E+04   -1.6955810E+00
   5.6282734E-04   5.1746678E+04   -1.6950324E+00
   5.6542654E-04   5.1344185E+04   -1.6944843E+00
   5.6803774E-04   5.0944951E+04   -1.6939369E+00
   5.7066099E-04   5.0548948E+04   -1.6933900E+00
   5.7329637E-04   5.0156151E+04   -1.6928436E+00
   5.7594391E-04   4.9766530E+04   -1.6922978E+00
   5.7860368E-04   4.9380061E+04   -1.6917527E+00
   5.8127573E-04   4.8996716E+04   -1.6912080E+00
   5.8396012E-04   4.8616468E+04   -1.6906640E+00
   5.8665691E-04   4.8239292E+04   -1.6901206E+00
   5.8936616E-04   4.7865163E+04   -1.6895778E+00
   5.9208791E-04   4.7494054E+04   -1.6890356E+00
   5.9482223E-04   4.7125939E+04   -1.6884939E+00
   5.9756919E-04   4.6760795E+04   -1.6879529E+00
   6.0032882E-04   4.6398595E+04   -1.6874125E+00
   6.0310120E-04   4.6039315E+04   -1.6868728E+00
   6.0588639E-04   4.5682931E+04   -1.6863336E+00
   6.0868443E-04   4.5329418E+04   -1.6857951E+00
   6.1149540E-04   4.4978752E+04   -1.6852573E+00
   6.1431935E-04   4.4630910E+04   -1.6847200E+00
   6.1715634E-04   4.4285867E+04   -1.6841834E+00
   6.2000644E-04   4.3943601E+04   -1.6836475E+00
   6.2286969E-04   4.3604087E+04   -1.6831122E+00
