#        a       HoverH0(a)       dlogHdloga_of_a(a)
   1.0000000E-04   1.1040902E+06   -1.8814821E+00
   1.0046181E-04   1.0945614E+06   -1.8810649E+00
   1.0092575E-04   1.0851169E+06   -1.8806468E+00
   1.0139184E-04   1.0757560E+06   -1.8802276E+00
   1.0186008E-04   1.0664779E+06   -1.8798074E+00
   1.0233048E-04   1.0572819E+06   -1.8793863E+00
   1.0280305E-04   1.0481672E+06   -1.8789641E+00
   1.0327781E-04   1.0391331E+06   -1.8785409E+00
   1.0375475E-04   1.0301789E+06   -1.8781167E+00
   1.0423390E-04   1.0213038E+06   -1.8776915E+00
   1.0471527E-04   1.0125072E+06   -1.8772653E+00
   1.0519885E-04   1.0037883E+06   -1.8768381E+00
   1.0568467E-04   9.9514646E+05   -1.8764099E+00
   1.0617274E-04   9.8658097E+05   -1.8759807E+00
   1.0666305E-04   9.7809114E+05   -1.8755505E+00
   1.0715563E-04   9.6967630E+05   -1.8751193E+00
   1.0765049E-04   9.6133576E+05   -1.8746871E+00
   1.0814763E-04   9.5306887E+05   -1.8742539E+00
   1.0864707E-04   9.4487495E+05   -1.8738197E+00
   1.0914881E-04   9.3675335E+05   -1.8733846E+00
   1.0965287E-04   9.2870343E+05   -1.8729484E+00
   1.1015926E-04   9.2072453E+05   -1.8725113E+00
   1.1066799E-04   9.1281603E+05   -1.8720731E+00
   1.1117906E-04   9.0497728E+05   -1.8716340E+00
   1.1169250E-04   8.9720767E+05   -1.8711939E+00
   1.1220831E-04   8.8950656E+05   -1.8707528E+00
   1.1272650E-04   8.8187336E+05   -1.8703107E+00
   1.1324708E-04   8.7430744E+05   -1.8698677E+00
   1.1377007E-04   8.6680820E+05   -1.8694236E+00
   1.1429547E-04   8.5937505E+05   -1.8689786E+00
   1.1482330E-04   8.5200738E+05   -1.8685326E+00
   1.1535356E-04   8.4470462E+05   -1.8680857E+00
   1.1588628E-04   8.3746618E+05   -1.8676377E+00
   1.1642145E-04   8.3029149E+05   -1.8671888E+00
   1.1695910E-04   8.2317996E+05   -1.8667389E+00
   1.1749923E-04   8.1613104E+05   -1.8662881E+00
   1.1804185E-04   8.0914416E+05   -1.8658362E+00
   1.1858698E-04   8.0221876E+05   -1.8653834E+00
   1.1913463E-04   7.9535430E+05   -1.8649297E+00
   1.1968481E-04   7.8855023E+05   -1.8644750E+00
   1.2023752E-04   7.8180601E+05   -1.8640193E+00
   1.2079279E-04   7.7512110E+05   -1.8635627E+00
   1.2135063E-04   7.6849497E+05   -1.8631051E+00
   1.2191104E-04   7.6192709E+05   -1.8626465E+00
   1.2247403E-04   7.5541693E+05   -1.8621870E+00
   1.2303963E-04   7.4896399E+05   -1.8617266E+00
   1.2360784E-04   7.4256775E+05   -1.8612652E+00
   1.2417868E-04   7.3622770E+05   -1.8608028E+00
   1.2475215E-04   7.2994334E+05   -1.8603395E+00
   1.2532826E-04   7.2371417E+05   -1.8598753E+00
   1.2590704E-04   7.1753969E+05   -1.8594101E+00
   1.2648850E-04   7.1141941E+05   -1.8589440E+00
   1.2707263E-04   7.0535286E+05   -1.8584770E+00
   1.2765947E-04   6.9933954E+05   -1.8580090E+00
   1.2824901E-04   6.9337899E+05   -1.8575400E+00
   1.2884128E-04   6.8747073E+05   -1.8570702E+00
   1.2943628E-04   6.8161429E+05   -1.8565994E+00
   1.3003403E-04   6.7580920E+05   -1.8561277E+00
   1.3063454E-04   6.7005501E+05   -1.8556551E+00
   1.3123783E-04   6.6435127E+05   -1.8551815E+00
   1.3184390E-04   6.5869751E+05   -1.8547071E+00
   1.3245277E-04   6.5309330E+05   -1.8542317E+00
   1.3306445E-04   6.4753819E+05   -1.8537554E+00
   1.3367895E-04   6.4203174E+05   -1.8532782E+00
   1.3429630E-04   6.3657351E+05   -1.8528000E+00
   1.3491649E-04   6.3116308E+05   -1.8523210E+00
   1.3553955E-04   6.2580002E+05   -1.8518411E+00
   1.3616548E-04   6.2048391E+05   -1.8513602E+00
   1.3679431E-04   6.1521431E+05   -1.8508785E+00
   1.3742604E-04   6.0999083E+05   -1.8503959E+00
   1.3806069E-04   6.0481304E+05   -1.8499124E+00
   1.3869827E-04   5.9968054E+05   -1.8494279E+00
   1.3933879E-04   5.9459292E+05   -1.8489426E+00
   1.3998227E-04   5.8954979E+05   -1.8484565E+00
   1.4062872E-04   5.8455073E+05   -1.8479694E+00
   1.4127816E-04   5.7959537E+05   -1.8474814E+00
   1.4193060E-04   5.7468331E+05   -1.8469926E+00
   1.4258605E-04   5.6981417E+05   -1.8465029E+00
   1.4324453E-04   5.6498755E+05   -1.8460123E+00
   1.4390605E-04   5.6020309E+05   -1.8455209E+00
   1.4457062E-04   5.5546040E+05   -1.8450285E+00
   1.4523826E-04   5.5075912E+05   -1.8445354E+00
   1.4590899E-04   5.4609887E+05   -1.8440413E+00
   1.4658281E-04   5.4147928E+05   -1.8435464E+00
   1.4725974E-04   5.3690000E+05   -1.8430507E+00
   1.4793981E-04   5.3236066E+05   -1.8425541E+00
   1.4862301E-04   5.2786091E+05   -1.8420566E+00
   1.4930936E-04   5.2340039E+05   -1.8415584E+00
   1.4999889E-04   5.1897876E+05   -1.8410592E+00
   1.5069160E-04   5.1459566E+05   -1.8405593E+00
   1.5138751E-04   5.1025076E+05   -1.8400584E+00
   1.5208663E-04   5.0594371E+05   -1.8395568E+00
   1.5278899E-04   5.0167418E+05   -1.8390543E+00
   1.5349458E-04   4.9744184E+05   -1.8385510E+00
   1.5420343E-04   4.9324634E+05   -1.8380469E+00
   1.5491556E-04   4.8908737E+05   -1.8375420E+00
   1.5563098E-04   4.8496459E+05   -1.8370362E+00
   1.5634970E-04   4.8087769E+05   -1.8365297E+00
   1.5707174E-04   4.7682634E+05   -1.8360223E+00
   1.5779711E-04   4.7281023E+05   -1.8355141E+00
   1.5852584E-04   4.6882904E+05   -1.8350051E+00
   1.5925792E-04   4.6488247E+05   -1.8344954E+00
   1.5999339E-04   4.6097020E+05   -1.8339848E+00
   1.6073226E-04   4.5709194E+05   -1.8334734E+00
   1.6147454E-04   4.5324737E+05   -1.8329613E+00
   1.6222024E-04   4.4943620E+05   -1.8324483E+00
   1.6296939E-04   4.4565813E+05   -1.8319346E+00
   1.6372200E-04   4.4191287E+05   -1.8314201E+00
   1.6447809E-04   4.3820012E+05   -1.8309049E+00
   1.6523767E-04   4.3451959E+05   -1.8303888E+00
   1.6600075E-04   4.3087101E+05   -1.8298720E+00
   1.6676736E-04   4.2725408E+05   -1.8293545E+00
   1.6753751E-04   4.2366852E+05   -1.8288362E+00
   1.6831122E-04   4.2011405E+05   -1.8283171E+00
   1.6908849E-04   4.1659041E+05   -1.8277973E+00
   1.6986936E-04   4.1309731E+05   -1.8272767E+00
   1.7065384E-04   4.0963448E+05   -1.8267554E+00
   1.7144193E-04   4.0620165E+05   -1.8262334E+00
   1.7223367E-04   4.0279857E+05   -1.8257106E+00
   1.7302906E-04   3.9942495E+05   -1.8251871E+00
   1.7382813E-04   3.9608055E+05   -1.8246628E+00
   1.7463089E-04   3.9276510E+05   -1.8241379E+00
   1.7543735E-04   3.8947835E+05   -1.8236122E+00
   1.7624754E-04   3.8622003E+05   -1.8230858E+00
   1.7706147E-04   3.8298991E+05   -1.8225587E+00
   1.7787916E-04   3.7978772E+05   -1.8220309E+00
   1.7870062E-04   3.7661322E+05   -1.8215024E+00
   1.7952588E-04   3.7346616E+05   -1.8209732E+00
   1.8035495E-04   3.7034631E+05   -1.8204433E+00
   1.8118785E-04   3.6725342E+05   -1.8199127E+00
   1.8202459E-04   3.6418724E+05   -1.8193814E+00
   1.8286520E-04   3.6114755E+05   -1.8188494E+00
   1.8370969E-04   3.5813411E+05   -1.8183168E+00
   1.8455808E-04   3.5514669E+05   -1.8177835E+00
   1.8541039E-04   3.5218505E+05   -1.8172495E+00
   1.8626663E-04   3.4924898E+05   -1.8167149E+00
   1.8712683E-04   3.4633823E+05   -1.8161796E+00
   1.8799100E-04   3.4345258E+05   -1.8156437E+00
   1.8885917E-04   3.4059183E+05   -1.8151071E+00
   1.8973134E-04   3.3775573E+05   -1.8145699E+00
   1.9060754E-04   3.3494408E+05   -1.8140320E+00
   1.9148778E-04   3.3215666E+05   -1.8134935E+00
   1.9237209E-04   3.2939326E+05   -1.8129543E+00
   1.9326049E-04   3.2665366E+05   -1.8124146E+00
   1.9415299E-04   3.2393765E+05   -1.8118742E+00
   1.9504960E-04   3.2124502E+05   -1.8113332E+00
   1.9595036E-04   3.1857557E+05   -1.8107916E+00
   1.9685528E-04   3.1592909E+05   -1.8102493E+00
   1.9776438E-04   3.1330538E+05   -1.8097065E+00
   1.9867768E-04   3.1070423E+05   -1.8091631E+00
   1.9959519E-04   3.0812545E+05   -1.8086191E+00
   2.0051694E-04   3.0556885E+05   -1.8080745E+00
   2.0144295E-04   3.0303421E+05   -1.8075293E+00
   2.0237324E-04   3.0052136E+05   -1.8069835E+00
   2.0330782E-04   2.9803009E+05   -1.8064372E+00
   2.0424671E-04   2.9556022E+05   -1.8058902E+00
   2.0518995E-04   2.9311155E+05   -1.8053428E+00
   2.0613754E-04   2.9068391E+05   -1.8047947E+00
   2.0708950E-04   2.8827710E+05   -1.8042461E+00
   2.0804586E-04   2.8589094E+05   -1.8036970E+00
   2.0900664E-04   2.8352526E+05   -1.8031473E+00
   2.0997185E-04   2.8117986E+05   -1.8025971E+00
   2.1094152E-04   2.7885456E+05   -1.8020463E+00
   2.1191567E-04   2.7654920E+05   -1.8014951E+00
   2.1289432E-04   2.7426360E+05   -1.8009432E+00
   2.1387749E-04   2.7199758E+05   -1.8003909E+00
   2.1486520E-04   2.6975096E+05   -1.7998381E+00
   2.1585747E-04   2.6752359E+05   -1.7992847E+00
   2.1685432E-04   2.6531528E+05   -1.7987309E+00
   2.1785578E-04   2.6312588E+05   -1.7981765E+00
   2.1886186E-04   2.6095520E+05   -1.7976217E+00
   2.1987259E-04   2.5880310E+05   -1.7970664E+00
   2.2088798E-04   2.5666940E+05   -1.7965105E+00
   2.2190807E-04   2.5455395E+05   -1.7959543E+00
   2.2293286E-04   2.5245658E+05   -1.7953975E+00
   2.2396239E-04   2.5037713E+05   -1.7948403E+00
   2.2499667E-04   2.4831545E+05   -1.7942826E+00
   2.2603573E-04   2.4627138E+05   -1.7937244E+00
   2.2707958E-04   2.4424476E+05   -1.7931658E+00
   2.2812826E-04   2.4223544E+05   -1.7926068E+00
   2.2918178E-04   2.4024328E+05   -1.7920473E+00
   2.3024017E-04   2.3826811E+05   -1.7914874E+00
   2.3130344E-04   2.3630979E+05   -1.7909271E+00
   2.3237162E-04   2.3436816E+05   -1.7903663E+00
   2.3344474E-04   2.3244310E+05   -1.7898051E+00
   2.3452281E-04   2.3053444E+05   -1.7892435E+00
   2.3560586E-04   2.2864205E+05   -1.7886815E+00
   2.3669392E-04   2.2676578E+05   -1.7881191E+00
   2.3778699E-04   2.2490549E+05   -1.7875563E+00
   2.3888512E-04   2.2306104E+05   -1.7869931E+00
   2.3998831E-04   2.2123228E+05   -1.7864295E+00
   2.4109661E-04   2.1941910E+05   -1.7858656E+00
   2.4221001E-04   2.1762133E+05   -1.7853013E+00
   2.4332857E-04   2.1583886E+05   -1.7847366E+00
   2.4445228E-04   2.1407155E+05   -1.7841715E+00
   2.4558119E-04   2.1231926E+05   -1.7836061E+00
   2.4671531E-04   2.1058186E+05   -1.7830403E+00
   2.4785467E-04   2.0885922E+05   -1.7824742E+00
   2.4899928E-04   2.0715122E+05   -1.7819078E+00
   2.5014919E-04   2.0545772E+05   -1.7813410E+00
   2.5130440E-04   2.0377860E+05   -1.7807739E+00
   2.5246495E-04   2.0211372E+05   -1.7802065E+00
   2.5363086E-04   2.0046298E+05   -1.7796387E+00
   2.5480216E-04   1.9882624E+05   -1.7790707E+00
   2.5597886E-04   1.9720337E+05   -1.7785023E+00
   2.5716100E-04   1.9559427E+05   -1.7779336E+00
   2.5834859E-04   1.9399880E+05   -1.7773647E+00
   2.5954168E-04   1.9241685E+05   -1.7767954E+00
   2.6074027E-04   1.9084830E+05   -1.7762259E+00
   2.6194439E-04   1.8929304E+05   -1.7756561E+00
   2.6315408E-04   1.8775094E+05   -1.7750860E+00
   2.6436935E-04   1.8622190E+05   -1.7745157E+00
   2.6559024E-04   1.8470579E+05   -1.7739451E+00
   2.6681676E-04   1.8320251E+05   -1.7733743E+00
   2.6804895E-04   1.8171194E+05   -1.7728032E+00
   2.6928683E-04   1.8023398E+05   -1.7722318E+00
   2.7053042E-04   1.7876850E+05   -1.7716603E+00
   2.7177976E-04   1.7731541E+05   -1.7710885E+00
   2.7303487E-04   1.7587459E+05   -1.7705165E+00
   2.7429577E-04   1.7444594E+05   -1.7699442E+00
   2.7556250E-04   1.7302935E+05   -1.7693718E+00
   2.7683507E-04   1.7162472E+05   -1.7687991E+00
   2.7811353E-04   1.7023194E+05   -1.7682263E+00
   2.7939788E-04   1.6885091E+05   -1.7676532E+00
   2.8068817E-04   1.6748152E+05   -1.7670800E+00
   2.8198442E-04   1.6612368E+05   -1.7665066E+00
   2.8328665E-04   1.6477728E+05   -1.7659330E+00
   2.8459490E-04   1.6344223E+05   -1.7653593E+00
   2.8590919E-04   1.6211842E+05   -1.7647853E+00
   2.8722955E-04   1.6080576E+05   -1.7642113E+00
   2.8855600E-04   1.5950415E+05   -1.7636370E+00
   2.8988859E-04   1.5821350E+05   -1.7630627E+00
   2.9122732E-04   1.5693370E+05   -1.7624882E+00
   2.9257224E-04   1.5566467E+05   -1.7619135E+00
   2.9392337E-04   1.5440631E+05   -1.7613387E+00
   2.9528074E-04   1.5315852E+05   -1.7607639E+00
   2.9664438E-04   1.5192123E+05   -1.7601888E+00
   2.9801431E-04   1.5069432E+05   -1.7596137E+00
   2.9939057E-04   1.4947773E+05   -1.7590385E+00
   3.0077319E-04   1.4827134E+05   -1.7584632E+00
   3.0216219E-04   1.4707509E+05   -1.7578878E+00
   3.0355761E-04   1.4588887E+05   -1.7573123E+00
   3.0495947E-04   1.4471260E+05   -1.7567368E+00
   3.0636780E-04   1.4354620E+05   -1.7561611E+00
   3.0778264E-04   1.4238957E+05   -1.7555854E+00
   3.0920401E-04   1.4124264E+05   -1.7550097E+00
   3.1063195E-04   1.4010532E+05   -1.7544338E+00
   3.1206648E-04   1.3897753E+05   -1.7538580E+00
   3.1350764E-04   1.3785918E+05   -1.7532821E+00
   3.1495545E-04   1.3675019E+05   -1.7527061E+00
   3.1640994E-04   1.3565049E+05   -1.7521302E+00
   3.1787116E-04   1.3455998E+05   -1.7515542E+00
   3.1933912E-04   1.3347860E+05   -1.7509781E+00
   3.2081386E-04   1.3240626E+05   -1.7504021E+00
   3.2229541E-04   1.3134288E+05   -1.7498261E+00
   3.2378381E-04   1.3028839E+05   -1.7492501E+00
   3.2527908E-04   1.2924270E+05   -1.7486741E+00
   3.2678125E-04   1.2820575E+05   -1.7480981E+00
   3.2829036E-04   1.2717746E+05   -1.7475221E+00
   3.2980644E-04   1.2615775E+05   -1.7469461E+00
   3.3132952E-04   1.2514654E+05   -1.7463702E+00
   3.3285963E-04   1.2414377E+05   -1.7457943E+00
   3.3439681E-04   1.2314937E+05   -1.7452184E+00
   3.3594109E-04   1.2216325E+05   -1.7446426E+00
   3.3749250E-04   1.2118535E+05   -1.7440669E+00
   3.3905108E-04   1.2021560E+05   -1.7434912E+00
   3.4061685E-04   1.1925392E+05   -1.7429156E+00
   3.4218986E-04   1.1830025E+05   -1.7423401E+00
   3.4377013E-04   1.1735452E+05   -1.7417646E+00
   3.4535769E-04   1.1641666E+05   -1.7411893E+00
   3.4695259E-04   1.1548660E+05   -1.7406140E+00
   3.4855485E-04   1.1456427E+05   -1.7400388E+00
   3.5016452E-04   1.1364961E+05   -1.7394637E+00
   3.5178161E-04   1.1274255E+05   -1.7388888E+00
   3.5340618E-04   1.1184303E+05   -1.7383139E+00
   3.5503824E-04   1.1095097E+05   -1.7377392E+00
   3.5667785E-04   1.1006633E+05   -1.7371646E+00
   3.5832502E-04   1.0918902E+05   -1.7365902E+00
   3.5997981E-04   1.0831900E+05   -1.7360159E+00
   3.6164223E-04   1.0745619E+05   -1.7354417E+00
   3.6331233E-04   1.0660054E+05   -1.7348677E+00
   3.6499015E-04   1.0575198E+05   -1.7342938E+00
   3.6667571E-04   1.0491045E+05   -1.7337201E+00
   3.6836906E-04   1.0407590E+05   -1.7331466E+00
   3.7007022E-04   1.0324825E+05   -1.7325733E+00
   3.7177925E-04   1.0242746E+05   -1.7320001E+00
   3.7349616E-04   1.0161346E+05   -1.7314272E+00
   3.7522101E-04   1.0080620E+05   -1.7308544E+00
   3.7695382E-04   1.0000561E+05   -1.7302818E+00
   3.7869463E-04   9.9211641E+04   -1.7297094E+00
   3.8044348E-04   9.8424237E+04   -1.7291373E+00
   3.8220041E-04   9.7643340E+04   -1.7285654E+00
   3.8396545E-04   9.6868893E+04   -1.7279937E+00
   3.8573864E-04   9.6100842E+04   -1.7274222E+00
   3.8752002E-04   9.5339132E+04   -1.7268509E+00
   3.8930963E-04   9.4583708E+04   -1.7262799E+00
   3.9110750E-04   9.3834516E+04   -1.7257092E+00
   3.9291368E-04   9.3091504E+04   -1.7251387E+00
   3.9472820E-04   9.2354617E+04   -1.7245685E+00
   3.9655109E-04   9.1623804E+04   -1.7239985E+00
   3.9838241E-04   9.0899013E+04   -1.7234288E+00
   4.0022218E-04   9.0180192E+04   -1.7228594E+00
   4.0207045E-04   8.9467290E+04   -1.7222903E+00
   4.0392725E-04   8.8760256E+04   -1.7217214E+00
   4.0579263E-04   8.8059041E+04   -1.7211529E+00
   4.0766662E-04   8.7363594E+04   -1.7205846E+00
   4.0954927E-04   8.6673867E+04   -1.7200167E+00
   4.1144061E-04   8.5989809E+04   -1.7194491E+00
   4.1334068E-04   8.5311373E+04   -1.7188818E+00
   4.1524953E-04   8.4638512E+04   -1.7183148E+00
   4.1716720E-04   8.3971176E+04   -1.7177481E+00
   4.1909372E-04   8.3309320E+04   -1.7171818E+00
   4.2102914E-04   8.2652895E+04   -1.7166159E+00
   4.2297350E-04   8.2001857E+04   -1.7160502E+00
   4.2492683E-04   8.1356159E+04   -1.7154849E+00
   4.2688919E-04   8.0715755E+04   -1.7149200E+00
   4.2886061E-04   8.0080601E+04   -1.7143555E+00
   4.3084113E-04   7.9450652E+04   -1.7137913E+00
   4.3283080E-04   7.8825862E+04   -1.7132275E+00
   4.3482966E-04   7.8206190E+04   -1.7126641E+00
   4.3683775E-04   7.7591589E+04   -1.7121010E+00
   4.3885511E-04   7.6982019E+04   -1.7115384E+00
   4.4088179E-04   7.6377435E+04   -1.7109761E+00
   4.4291783E-04   7.5777796E+04   -1.7104143E+00
   4.4496327E-04   7.5183059E+04   -1.7098529E+00
   4.4701816E-04   7.4593182E+04   -1.7092918E+00
   4.4908253E-04   7.4008125E+04   -1.7087312E+00
   4.5115644E-04   7.3427846E+04   -1.7081711E+00
   4.5323993E-04   7.2852305E+04   -1.7076113E+00
   4.5533304E-04   7.2281462E+04   -1.7070520E+00
   4.5743582E-04   7.1715276E+04   -1.7064931E+00
   4.5954830E-04   7.1153709E+04   -1.7059347E+00
   4.6167054E-04   7.0596720E+04   -1.7053767E+00
   4.6380259E-04   7.0044271E+04   -1.7048192E+00
   4.6594448E-04   6.9496324E+04   -1.7042622E+00
   4.6809626E-04   6.8952841E+04   -1.7037056E+00
   4.7025797E-04   6.8413782E+04   -1.7031495E+00
   4.7242967E-04   6.7879112E+04   -1.7025939E+00
   4.7461140E-04   6.7348793E+04   -1.7020387E+00
   4.7680321E-04   6.6822788E+04   -1.7014841E+00
   4.7900514E-04   6.6301061E+04   -1.7009299E+00
   4.8121723E-04   6.5783575E+04   -1.7003762E+00
   4.8343954E-04   6.5270294E+04   -1.6998231E+00
   4.8567212E-04   6.4761184E+04   -1.6992704E+00
   4.8791500E-04   6.4256207E+04   -1.6987183E+00
   4.9016825E-04   6.3755331E+04   -1.6981667E+00
   4.9243189E-04   6.3258520E+04   -1.6976156E+00
   4.9470600E-04   6.2765739E+04   -1.6970651E+00
   4.9699060E-04   6.2276955E+04   -1.6965151E+00
   4.9928575E-04   6.1792133E+04   -1.6959656E+00
   5.0159151E-04   6.1311242E+04   -1.6954167E+00
   5.0390791E-04   6.0834246E+04   -1.6948683E+00
   5.0623501E-04   6.0361114E+04   -1.6943205E+00
   5.0857286E-04   5.9891812E+04   -1.6937732E+00
   5.1092150E-04   5.9426310E+04   -1.6932265E+00
   5.1328099E-04   5.8964574E+04   -1.6926804E+00
   5.1565137E-04   5.8506572E+04   -1.6921348E+00
   5.1803270E-04   5.8052274E+04   -1.6915898E+00
   5.2042503E-04   5.7601648E+04   -1.6910455E+00
   5.2282841E-04   5.7154664E+04   -1.6905017E+00
   5.2524289E-04   5.6711289E+04   -1.6899585E+00
   5.2766851E-04   5.6271495E+04   -1.6894159E+00
   5.3010534E-04   5.5835252E+04   -1.6888739E+00
   5.3255342E-04   5.5402528E+04   -1.6883325E+00
   5.3501281E-04   5.4973295E+04   -1.6877917E+00
   5.3748356E-04   5.4547523E+04   -1.6872516E+00
   5.3996571E-04   5.4125184E+04   -1.6867120E+00
   5.4245933E-04   5.3706248E+04   -1.6861731E+00
   5.4496446E-04   5.3290687E+04   -1.6856348E+00
   5.4748117E-04   5.2878472E+04   -1.6850972E+00
   5.5000949E-04   5.2469576E+04   -1.6845602E+00
   5.5254949E-04   5.2063971E+04   -1.6840239E+00
   5.5510123E-04   5.1661629E+04   -1.6834882E+00
   5.5766474E-04   5.1262522E+04   -1.6829531E+00
   5.6024010E-04   5.0866624E+04   -1.6824187E+00
   5.6282734E-04   5.0473907E+04   -1.6818850E+00
   5.6542654E-04   5.0084346E+04   -1.6813520E+00
   5.6803774E-04   4.9697913E+04   -1.6808196E+00
   5.7066099E-04   4.9314583E+04   -1.6802879E+00
   5.7329637E-04   4.8934329E+04   -1.6797569E+00
   5.7594391E-04   4.8557126E+04   -1.6792265E+00
   5.7860368E-04   4.8182948E+04   -1.6786969E+00
   5.8127573E-04   4.7811771E+04   -1.6781680E+00
   5.8396012E-04   4.7443568E+04   -1.6776397E+00
   5.8665691E-04   4.7078315E+04   -1.6771122E+00
   5.8936616E-04   4.6715988E+04   -1.6765853E+00
   5.9208791E-04   4.6356562E+04   -1.6760592E+00
   5.9482223E-04   4.6000012E+04   -1.6755338E+00
   5.9756919E-04   4.5646315E+04   -1.6750091E+00
   6.0032882E-04   4.5295448E+04   -1.6744851E+00
   6.0310120E-04   4.4947386E+04   -1.6739619E+00
   6.0588639E-04   4.4602105E+04   -1.6734393E+00
   6.0868443E-04   4.4259584E+04   -1.6729176E+00
   6.1149540E-04   4.3919799E+04   -1.6723965E+00
   6.1431935E-04   4.3582726E+04   -1.6718762E+00
   6.1715634E-04   4.3248345E+04   -1.6713567E+00
   6.2000644E-04   4.2916631E+04   -1.6708379E+00
   6.2286969E-04   4.2587564E+04   -1.6703198E+00
