#        a       HoverH0(a)       dlogHdloga_of_a(a)
   1.0000000E-04   1.1654537E+06   -1.9106576E+00
   1.0046181E-04   1.1552398E+06   -1.9103190E+00
   1.0092575E-04   1.1451172E+06   -1.9099794E+00
   1.0139184E-04   1.1350851E+06   -1.9096388E+00
   1.0186008E-04   1.1251426E+06   -1.9092972E+00
   1.0233048E-04   1.1152890E+06   -1.9089546E+00
   1.0280305E-04   1.1055234E+06   -1.9086109E+00
   1.0327781E-04   1.0958450E+06   -1.9082663E+00
   1.0375475E-04   1.0862531E+06   -1.9079207E+00
   1.0423390E-04   1.0767469E+06   -1.9075740E+00
   1.0471527E-04   1.0673256E+06   -1.9072264E+00
   1.0519885E-04   1.0579884E+06   -1.9068777E+00
   1.0568467E-04   1.0487346E+06   -1.9065281E+00
   1.0617274E-04   1.0395634E+06   -1.9061774E+00
   1.0666305E-04   1.0304741E+06   -1.9058257E+00
   1.0715563E-04   1.0214659E+06   -1.9054730E+00
   1.0765049E-04   1.0125381E+06   -1.9051193E+00
   1.0814763E-04   1.0036900E+06   -1.9047645E+00
   1.0864707E-04   9.9492080E+05   -1.9044088E+00
   1.0914881E-04   9.8622985E+05   -1.9040520E+00
   1.0965287E-04   9.7761643E+05   -1.9036943E+00
   1.1015926E-04   9.6907984E+05   -1.9033355E+00
   1.1066799E-04   9.6061937E+05   -1.9029757E+00
   1.1117906E-04   9.5223436E+05   -1.9026149E+00
   1.1169250E-04   9.4392410E+05   -1.9022530E+00
   1.1220831E-04   9.3568793E+05   -1.9018902E+00
   1.1272650E-04   9.2752518E+05   -1.9015263E+00
   1.1324708E-04   9.1943518E+05   -1.9011614E+00
   1.1377007E-04   9.1141728E+05   -1.9007955E+00
   1.1429547E-04   9.0347083E+05   -1.9004286E+00
   1.1482330E-04   8.9559517E+05   -1.9000607E+00
   1.1535356E-04   8.8778968E+05   -1.8996917E+00
   1.1588628E-04   8.8005371E+05   -1.8993217E+00
   1.1642145E-04   8.7238664E+05   -1.8989507E+00
   1.1695910E-04   8.6478784E+05   -1.8985787E+00
   1.1749923E-04   8.5725671E+05   -1.8982057E+00
   1.1804185E-04   8.4979262E+05   -1.8978316E+00
   1.1858698E-04   8.4239497E+05   -1.8974565E+00
   1.1913463E-04   8.3506317E+05   -1.8970804E+00
   1.1968481E-04   8.2779662E+05   -1.8967033E+00
   1.2023752E-04   8.2059473E+05   -1.8963252E+00
   1.2079279E-04   8.1345691E+05   -1.8959460E+00
   1.2135063E-04   8.0638260E+05   -1.8955658E+00
   1.2191104E-04   7.9937121E+05   -1.8951846E+00
   1.2247403E-04   7.9242217E+05   -1.8948024E+00
   1.2303963E-04   7.8553493E+05   -1.8944191E+00
   1.2360784E-04   7.7870892E+05   -1.8940349E+00
   1.2417868E-04   7.7194360E+05   -1.8936496E+00
   1.2475215E-04   7.6523842E+05   -1.8932633E+00
   1.2532826E-04   7.5859283E+05   -1.8928759E+00
   1.2590704E-04   7.5200629E+05   -1.8924876E+00
   1.2648850E-04   7.4547828E+05   -1.8920982E+00
   1.2707263E-04   7.3900826E+05   -1.8917078E+00
   1.2765947E-04   7.3259572E+05   -1.8913164E+00
   1.2824901E-04   7.2624013E+05   -1.8909239E+00
   1.2884128E-04   7.1994099E+05   -1.8905305E+00
   1.2943628E-04   7.1369778E+05   -1.8901360E+00
   1.3003403E-04   7.0750999E+05   -1.8897405E+00
   1.3063454E-04   7.0137713E+05   -1.8893440E+00
   1.3123783E-04   6.9529870E+05   -1.8889464E+00
   1.3184390E-04   6.8927422E+05   -1.8885478E+00
   1.3245277E-04   6.8330319E+05   -1.8881483E+00
   1.3306445E-04   6.7738514E+05   -1.8877477E+00
   1.3367895E-04   6.7151958E+05   -1.8873460E+00
   1.3429630E-04   6.6570605E+05   -1.8869434E+00
   1.3491649E-04   6.5994407E+05   -1.8865398E+00
   1.3553955E-04   6.5423319E+05   -1.8861351E+00
   1.3616548E-04   6.4857293E+05   -1.8857294E+00
   1.3679431E-04   6.4296285E+05   -1.8853227E+00
   1.3742604E-04   6.3740249E+05   -1.8849150E+00
   1.3806069E-04   6.3189141E+05   -1.8845062E+00
   1.3869827E-04   6.2642916E+05   -1.8840965E+00
   1.3933879E-04   6.2101530E+05   -1.8836857E+00
   1.3998227E-04   6.1564939E+05   -1.8832739E+00
   1.4062872E-04   6.1033101E+05   -1.8828611E+00
   1.4127816E-04   6.0505972E+05   -1.8824473E+00
   1.4193060E-04   5.9983510E+05   -1.8820325E+00
   1.4258605E-04   5.9465674E+05   -1.8816167E+00
   1.4324453E-04   5.8952421E+05   -1.8811998E+00
   1.4390605E-04   5.8443711E+05   -1.8807820E+00
   1.4457062E-04   5.7939502E+05   -1.8803631E+00
   1.4523826E-04   5.7439754E+05   -1.8799433E+00
   1.4590899E-04   5.6944426E+05   -1.8795224E+00
   1.4658281E-04   5.6453480E+05   -1.8791005E+00
   1.4725974E-04   5.5966875E+05   -1.8786777E+00
   1.4793981E-04   5.5484573E+05   -1.8782538E+00
   1.4862301E-04   5.5006535E+05   -1.8778289E+00
   1.4930936E-04   5.4532722E+05   -1.8774030E+00
   1.4999889E-04   5.4063097E+05   -1.8769761E+00
   1.5069160E-04   5.3597621E+05   -1.8765482E+00
   1.5138751E-04   5.3136259E+05   -1.8761193E+00
   1.5208663E-04   5.2678971E+05   -1.8756894E+00
   1.5278899E-04   5.2225723E+05   -1.8752585E+00
   1.5349458E-04   5.1776477E+05   -1.8748267E+00
   1.5420343E-04   5.1331199E+05   -1.8743938E+00
   1.5491556E-04   5.0889851E+05   -1.8739599E+00
   1.5563098E-04   5.0452398E+05   -1.8735250E+00
   1.5634970E-04   5.0018807E+05   -1.8730892E+00
   1.5707174E-04   4.9589041E+05   -1.8726523E+00
   1.5779711E-04   4.9163068E+05   -1.8722145E+00
   1.5852584E-04   4.8740851E+05   -1.8717757E+00
   1.5925792E-04   4.8322359E+05   -1.8713359E+00
   1.5999339E-04   4.7907557E+05   -1.8708951E+00
   1.6073226E-04   4.7496412E+05   -1.8704533E+00
   1.6147454E-04   4.7088891E+05   -1.8700105E+00
   1.6222024E-04   4.6684963E+05   -1.8695668E+00
   1.6296939E-04   4.6284594E+05   -1.8691221E+00
   1.6372200E-04   4.5887753E+05   -1.8686764E+00
   1.6447809E-04   4.5494408E+05   -1.8682297E+00
   1.6523767E-04   4.5104527E+05   -1.8677821E+00
   1.6600075E-04   4.4718080E+05   -1.8673334E+00
   1.6676736E-04   4.4335036E+05   -1.8668838E+00
   1.6753751E-04   4.3955364E+05   -1.8664333E+00
   1.6831122E-04   4.3579034E+05   -1.8659817E+00
   1.6908849E-04   4.3206016E+05   -1.8655292E+00
   1.6986936E-04   4.2836280E+05   -1.8650758E+00
   1.7065384E-04   4.2469797E+05   -1.8646214E+00
   1.7144193E-04   4.2106538E+05   -1.8641660E+00
   1.7223367E-04   4.1746473E+05   -1.8637096E+00
   1.7302906E-04   4.1389575E+05   -1.8632523E+00
   1.7382813E-04   4.1035814E+05   -1.8627941E+00
   1.7463089E-04   4.0685163E+05   -1.8623349E+00
   1.7543735E-04   4.0337594E+05   -1.8618747E+00
   1.7624754E-04   3.9993079E+05   -1.8614136E+00
   1.7706147E-04   3.9651591E+05   -1.8609515E+00
   1.7787916E-04   3.9313102E+05   -1.8604885E+00
   1.7870062E-04   3.8977586E+05   -1.8600245E+00
   1.7952588E-04   3.8645016E+05   -1.8595597E+00
   1.8035495E-04   3.8315366E+05   -1.8590938E+00
   1.8118785E-04   3.7988609E+05   -1.8586270E+00
   1.8202459E-04   3.7664721E+05   -1.8581593E+00
   1.8286520E-04   3.7343674E+05   -1.8576907E+00
   1.8370969E-04   3.7025444E+05   -1.8572211E+00
   1.8455808E-04   3.6710005E+05   -1.8567506E+00
   1.8541039E-04   3.6397332E+05   -1.8562792E+00
   1.8626663E-04   3.6087402E+05   -1.8558068E+00
   1.8712683E-04   3.5780188E+05   -1.8553335E+00
   1.8799100E-04   3.5475667E+05   -1.8548594E+00
   1.8885917E-04   3.5173814E+05   -1.8543842E+00
   1.8973134E-04   3.4874607E+05   -1.8539082E+00
   1.9060754E-04   3.4578020E+05   -1.8534313E+00
   1.9148778E-04   3.4284032E+05   -1.8529534E+00
   1.9237209E-04   3.3992617E+05   -1.8524746E+00
   1.9326049E-04   3.3703754E+05   -1.8519950E+00
   1.9415299E-04   3.3417420E+05   -1.8515144E+00
   1.9504960E-04   3.3133592E+05   -1.8510329E+00
   1.9595036E-04   3.2852247E+05   -1.8505506E+00
   1.9685528E-04   3.2573364E+05   -1.8500673E+00
   1.9776438E-04   3.2296920E+05   -1.8495832E+00
   1.9867768E-04   3.2022894E+05   -1.8490981E+00
   1.9959519E-04   3.1751264E+05   -1.8486122E+00
   2.0051694E-04   3.1482009E+05   -1.8481254E+00
   2.0144295E-04   3.1215107E+05   -1.8476377E+00
   2.0237324E-04   3.0950537E+05   -1.8471491E+00
   2.0330782E-04   3.0688279E+05   -1.8466596E+00
   2.0424671E-04   3.0428312E+05   -1.8461693E+00
   2.0518995E-04   3.0170615E+05   -1.8456781E+00
   2.0613754E-04   2.9915168E+05   -1.8451860E+00
   2.0708950E-04   2.9661952E+05   -1.8446931E+00
   2.0804586E-04   2.9410946E+05   -1.8441993E+00
   2.0900664E-04   2.9162130E+05   -1.8437047E+00
   2.0997185E-04   2.8915485E+05   -1.8432092E+00
   2.1094152E-04   2.8670992E+05   -1.8427128E+00
   2.1191567E-04   2.8428631E+05   -1.8422156E+00
   2.1289432E-04   2.8188383E+05   -1.8417176E+00
   2.1387749E-04   2.7950230E+05   -1.8412187E+00
   2.1486520E-04   2.7714153E+05   -1.8407189E+00
   2.1585747E-04   2.7480133E+05   -1.8402184E+00
   2.1685432E-04   2.7248152E+05   -1.8397170E+00
   2.1785578E-04   2.7018192E+05   -1.8392147E+00
   2.1886186E-04   2.6790234E+05   -1.8387117E+00
   2.1987259E-04   2.6564262E+05   -1.8382078E+00
   2.2088798E-04   2.6340257E+05   -1.8377031E+00
   2.2190807E-04   2.6118201E+05   -1.8371976E+00
   2.2293286E-04   2.5898078E+05   -1.8366912E+00
   2.2396239E-04   2.5679870E+05   -1.8361841E+00
   2.2499667E-04   2.5463561E+05   -1.8356761E+00
   2.2603573E-04   2.5249132E+05   -1.8351674E+00
   2.2707958E-04   2.5036568E+05   -1.8346578E+00
   2.2812826E-04   2.4825851E+05   -1.8341475E+00
   2.2918178E-04   2.4616966E+05   -1.8336363E+00
   2.3024017E-04   2.4409896E+05   -1.8331244E+00
   2.3130344E-04   2.4204625E+05   -1.8326117E+00
   2.3237162E-04   2.4001137E+05   -1.8320982E+00
   2.3344474E-04   2.3799416E+05   -1.8315839E+00
   2.3452281E-04   2.3599447E+05   -1.8310689E+00
   2.3560586E-04   2.3401213E+05   -1.8305530E+00
   2.3669392E-04   2.3204699E+05   -1.8300364E+00
   2.3778699E-04   2.3009891E+05   -1.8295191E+00
   2.3888512E-04   2.2816772E+05   -1.8290010E+00
   2.3998831E-04   2.2625329E+05   -1.8284821E+00
   2.4109661E-04   2.2435545E+05   -1.8279625E+00
   2.4221001E-04   2.2247407E+05   -1.8274421E+00
   2.4332857E-04   2.2060899E+05   -1.8269210E+00
   2.4445228E-04   2.1876007E+05   -1.8263992E+00
   2.4558119E-04   2.1692717E+05   -1.8258766E+00
   2.4671531E-04   2.1511014E+05   -1.8253533E+00
   2.4785467E-04   2.1330885E+05   -1.8248292E+00
   2.4899928E-04   2.1152316E+05   -1.8243044E+00
   2.5014919E-04   2.0975292E+05   -1.8237790E+00
   2.5130440E-04   2.0799800E+05   -1.8232528E+00
   2.5246495E-04   2.0625826E+05   -1.8227258E+00
   2.5363086E-04   2.0453358E+05   -1.8221982E+00
   2.5480216E-04   2.0282380E+05   -1.8216699E+00
   2.5597886E-04   2.0112881E+05   -1.8211409E+00
   2.5716100E-04   1.9944847E+05   -1.8206111E+00
   2.5834859E-04   1.9778265E+05   -1.8200807E+00
   2.5954168E-04   1.9613123E+05   -1.8195496E+00
   2.6074027E-04   1.9449407E+05   -1.8190179E+00
   2.6194439E-04   1.9287105E+05   -1.8184854E+00
   2.6315408E-04   1.9126204E+05   -1.8179523E+00
   2.6436935E-04   1.8966692E+05   -1.8174185E+00
   2.6559024E-04   1.8808557E+05   -1.8168840E+00
   2.6681676E-04   1.8651786E+05   -1.8163489E+00
   2.6804895E-04   1.8496367E+05   -1.8158131E+00
   2.6928683E-04   1.8342289E+05   -1.8152767E+00
   2.7053042E-04   1.8189539E+05   -1.8147396E+00
   2.7177976E-04   1.8038106E+05   -1.8142019E+00
   2.7303487E-04   1.7887979E+05   -1.8136636E+00
   2.7429577E-04   1.7739144E+05   -1.8131246E+00
   2.7556250E-04   1.7591592E+05   -1.8125850E+00
   2.7683507E-04   1.7445310E+05   -1.8120447E+00
   2.7811353E-04   1.7300288E+05   -1.8115039E+00
   2.7939788E-04   1.7156514E+05   -1.8109624E+00
   2.8068817E-04   1.7013978E+05   -1.8104203E+00
   2.8198442E-04   1.6872668E+05   -1.8098776E+00
   2.8328665E-04   1.6732573E+05   -1.8093344E+00
   2.8459490E-04   1.6593683E+05   -1.8087905E+00
   2.8590919E-04   1.6455988E+05   -1.8082460E+00
   2.8722955E-04   1.6319475E+05   -1.8077010E+00
   2.8855600E-04   1.6184136E+05   -1.8071553E+00
   2.8988859E-04   1.6049960E+05   -1.8066091E+00
   2.9122732E-04   1.5916936E+05   -1.8060623E+00
   2.9257224E-04   1.5785055E+05   -1.8055150E+00
   2.9392337E-04   1.5654305E+05   -1.8049671E+00
   2.9528074E-04   1.5524678E+05   -1.8044186E+00
   2.9664438E-04   1.5396164E+05   -1.8038696E+00
   2.9801431E-04   1.5268751E+05   -1.8033200E+00
   2.9939057E-04   1.5142432E+05   -1.8027699E+00
   3.0077319E-04   1.5017196E+05   -1.8022193E+00
   3.0216219E-04   1.4893033E+05   -1.8016681E+00
   3.0355761E-04   1.4769934E+05   -1.8011164E+00
   3.0495947E-04   1.4647890E+05   -1.8005642E+00
   3.0636780E-04   1.4526892E+05   -1.8000115E+00
   3.0778264E-04   1.4406930E+05   -1.7994582E+00
   3.0920401E-04   1.4287994E+05   -1.7989045E+00
   3.1063195E-04   1.4170077E+05   -1.7983502E+00
   3.1206648E-04   1.4053169E+05   -1.7977955E+00
   3.1350764E-04   1.3937261E+05   -1.7972403E+00
   3.1495545E-04   1.3822345E+05   -1.7966846E+00
   3.1640994E-04   1.3708411E+05   -1.7961284E+00
   3.1787116E-04   1.3595451E+05   -1.7955717E+00
   3.1933912E-04   1.3483456E+05   -1.7950146E+00
   3.2081386E-04   1.3372418E+05   -1.7944570E+00
   3.2229541E-04   1.3262329E+05   -1.7938989E+00
   3.2378381E-04   1.3153180E+05   -1.7933404E+00
   3.2527908E-04   1.3044963E+05   -1.7927814E+00
   3.2678125E-04   1.2937670E+05   -1.7922220E+00
   3.2829036E-04   1.2831292E+05   -1.7916622E+00
   3.2980644E-04   1.2725821E+05   -1.7911019E+00
   3.3132952E-04   1.2621251E+05   -1.7905412E+00
   3.3285963E-04   1.2517571E+05   -1.7899801E+00
   3.3439681E-04   1.2414776E+05   -1.7894186E+00
   3.3594109E-04   1.2312857E+05   -1.7888567E+00
   3.3749250E-04   1.2211806E+05   -1.7882943E+00
   3.3905108E-04   1.2111615E+05   -1.7877316E+00
   3.4061685E-04   1.2012278E+05   -1.7871685E+00
   3.4218986E-04   1.1913787E+05   -1.7866049E+00
   3.4377013E-04   1.1816133E+05   -1.7860410E+00
   3.4535769E-04   1.1719311E+05   -1.7854768E+00
   3.4695259E-04   1.1623312E+05   -1.7849121E+00
   3.4855485E-04   1.1528130E+05   -1.7843471E+00
   3.5016452E-04   1.1433757E+05   -1.7837818E+00
   3.5178161E-04   1.1340186E+05   -1.7832160E+00
   3.5340618E-04   1.1247410E+05   -1.7826500E+00
   3.5503824E-04   1.1155422E+05   -1.7820836E+00
   3.5667785E-04   1.1064215E+05   -1.7815168E+00
   3.5832502E-04   1.0973783E+05   -1.7809497E+00
   3.5997981E-04   1.0884118E+05   -1.7803823E+00
   3.6164223E-04   1.0795215E+05   -1.7798146E+00
   3.6331233E-04   1.0707065E+05   -1.7792466E+00
   3.6499015E-04   1.0619663E+05   -1.7786783E+00
   3.6667571E-04   1.0533002E+05   -1.7781096E+00
   3.6836906E-04   1.0447076E+05   -1.7775407E+00
   3.7007022E-04   1.0361877E+05   -1.7769715E+00
   3.7177925E-04   1.0277401E+05   -1.7764020E+00
   3.7349616E-04   1.0193640E+05   -1.7758322E+00
   3.7522101E-04   1.0110588E+05   -1.7752621E+00
   3.7695382E-04   1.0028239E+05   -1.7746918E+00
   3.7869463E-04   9.9465872E+04   -1.7741212E+00
   3.8044348E-04   9.8656260E+04   -1.7735504E+00
   3.8220041E-04   9.7853495E+04   -1.7729793E+00
   3.8396545E-04   9.7057518E+04   -1.7724079E+00
   3.8573864E-04   9.6268270E+04   -1.7718364E+00
   3.8752002E-04   9.5485690E+04   -1.7712646E+00
   3.8930963E-04   9.4709722E+04   -1.7706926E+00
   3.9110750E-04   9.3940308E+04   -1.7701203E+00
   3.9291368E-04   9.3177390E+04   -1.7695479E+00
   3.9472820E-04   9.2420911E+04   -1.7689752E+00
   3.9655109E-04   9.1670816E+04   -1.7684023E+00
   3.9838241E-04   9.0927049E+04   -1.7678293E+00
   4.0022218E-04   9.0189555E+04   -1.7672560E+00
   4.0207045E-04   8.9458279E+04   -1.7666826E+00
   4.0392725E-04   8.8733167E+04   -1.7661090E+00
   4.0579263E-04   8.8014164E+04   -1.7655352E+00
   4.0766662E-04   8.7301219E+04   -1.7649612E+00
   4.0954927E-04   8.6594278E+04   -1.7643871E+00
   4.1144061E-04   8.5893288E+04   -1.7638129E+00
   4.1334068E-04   8.5198199E+04   -1.7632385E+00
   4.1524953E-04   8.4508958E+04   -1.7626639E+00
   4.1716720E-04   8.3825515E+04   -1.7620892E+00
   4.1909372E-04   8.3147819E+04   -1.7615144E+00
   4.2102914E-04   8.2475821E+04   -1.7609395E+00
   4.2297350E-04   8.1809470E+04   -1.7603644E+00
   4.2492683E-04   8.1148719E+04   -1.7597892E+00
   4.2688919E-04   8.0493517E+04   -1.7592140E+00
   4.2886061E-04   7.9843817E+04   -1.7586386E+00
   4.3084113E-04   7.9199571E+04   -1.7580631E+00
   4.3283080E-04   7.8560732E+04   -1.7574876E+00
   4.3482966E-04   7.7927253E+04   -1.7569120E+00
   4.3683775E-04   7.7299086E+04   -1.7563363E+00
   4.3885511E-04   7.6676187E+04   -1.7557605E+00
   4.4088179E-04   7.6058508E+04   -1.7551847E+00
   4.4291783E-04   7.5446006E+04   -1.7546088E+00
   4.4496327E-04   7.4838635E+04   -1.7540328E+00
   4.4701816E-04   7.4236350E+04   -1.7534568E+00
   4.4908253E-04   7.3639108E+04   -1.7528808E+00
   4.5115644E-04   7.3046865E+04   -1.7523048E+00
   4.5323993E-04   7.2459577E+04   -1.7517287E+00
   4.5533304E-04   7.1877202E+04   -1.7511526E+00
   4.5743582E-04   7.1299697E+04   -1.7505765E+00
   4.5954830E-04   7.0727019E+04   -1.7500003E+00
   4.6167054E-04   7.0159127E+04   -1.7494242E+00
   4.6380259E-04   6.9595980E+04   -1.7488481E+00
   4.6594448E-04   6.9037537E+04   -1.7482720E+00
   4.6809626E-04   6.8483756E+04   -1.7476959E+00
   4.7025797E-04   6.7934597E+04   -1.7471198E+00
   4.7242967E-04   6.7390021E+04   -1.7465438E+00
   4.7461140E-04   6.6849988E+04   -1.7459678E+00
   4.7680321E-04   6.6314459E+04   -1.7453918E+00
   4.7900514E-04   6.5783394E+04   -1.7448159E+00
   4.8121723E-04   6.5256755E+04   -1.7442401E+00
   4.8343954E-04   6.4734504E+04   -1.7436643E+00
   4.8567212E-04   6.4216603E+04   -1.7430885E+00
   4.8791500E-04   6.3703015E+04   -1.7425129E+00
   4.9016825E-04   6.3193701E+04   -1.7419373E+00
   4.9243189E-04   6.2688626E+04   -1.7413618E+00
   4.9470600E-04   6.2187752E+04   -1.7407864E+00
   4.9699060E-04   6.1691044E+04   -1.7402111E+00
   4.9928575E-04   6.1198466E+04   -1.7396359E+00
   5.0159151E-04   6.0709981E+04   -1.7390608E+00
   5.0390791E-04   6.0225555E+04   -1.7384858E+00
   5.0623501E-04   5.9745152E+04   -1.7379109E+00
   5.0857286E-04   5.9268739E+04   -1.7373362E+00
   5.1092150E-04   5.8796280E+04   -1.7367616E+00
   5.1328099E-04   5.8327742E+04   -1.7361871E+00
   5.1565137E-04   5.7863091E+04   -1.7356128E+00
   5.1803270E-04   5.7402293E+04   -1.7350386E+00
   5.2042503E-04   5.6945316E+04   -1.7344646E+00
   5.2282841E-04   5.6492126E+04   -1.7338907E+00
   5.2524289E-04   5.6042690E+04   -1.7333170E+00
   5.2766851E-04   5.5596977E+04   -1.7327435E+00
   5.3010534E-04   5.5154955E+04   -1.7321702E+00
   5.3255342E-04   5.4716591E+04   -1.7315970E+00
   5.3501281E-04   5.4281855E+04   -1.7310241E+00
   5.3748356E-04   5.3850714E+04   -1.7304513E+00
   5.3996571E-04   5.3423140E+04   -1.7298788E+00
   5.4245933E-04   5.2999100E+04   -1.7293065E+00
   5.4496446E-04   5.2578564E+04   -1.7287343E+00
   5.4748117E-04   5.2161503E+04   -1.7281624E+00
   5.5000949E-04   5.1747886E+04   -1.7275908E+00
   5.5254949E-04   5.1337685E+04   -1.7270193E+00
   5.5510123E-04   5.0930869E+04   -1.7264482E+00
   5.5766474E-04   5.0527409E+04   -1.7258772E+00
   5.6024010E-04   5.0127278E+04   -1.7253065E+00
   5.6282734E-04   4.9730446E+04   -1.7247361E+00
   5.6542654E-04   4.9336885E+04   -1.7241659E+00
   5.6803774E-04   4.8946567E+04   -1.7235960E+00
   5.7066099E-04   4.8559465E+04   -1.7230264E+00
   5.7329637E-04   4.8175550E+04   -1.7224570E+00
   5.7594391E-04   4.7794796E+04   -1.7218880E+00
   5.7860368E-04   4.7417176E+04   -1.7213192E+00
   5.8127573E-04   4.7042663E+04   -1.7207507E+00
   5.8396012E-04   4.6671229E+04   -1.7201826E+00
   5.8665691E-04   4.6302850E+04   -1.7196147E+00
   5.8936616E-04   4.5937498E+04   -1.7190472E+00
   5.9208791E-04   4.5575149E+04   -1.7184800E+00
   5.9482223E-04   4.5215775E+04   -1.7179131E+00
   5.9756919E-04   4.4859353E+04   -1.7173465E+00
   6.0032882E-04   4.4505856E+04   -1.7167803E+00
   6.0310120E-04   4.4155260E+04   -1.7162144E+00
   6.0588639E-04   4.3807540E+04   -1.7156489E+00
   6.0868443E-04   4.3462672E+04   -1.7150838E+00
   6.1149540E-04   4.3120630E+04   -1.7145190E+00
   6.1431935E-04   4.2781392E+04   -1.7139545E+00
   6.1715634E-04   4.2444933E+04   -1.7133905E+00
   6.2000644E-04   4.2111230E+04   -1.7128268E+00
   6.2286969E-04   4.1780258E+04   -1.7122635E+00
