#        a       HoverH0(a)       dlogHdloga_of_a(a)
   1.0000000E-04   1.1590981E+06   -1.9025857E+00
   1.0046181E-04   1.1489826E+06   -1.9022238E+00
   1.0092575E-04   1.1389574E+06   -1.9018609E+00
   1.0139184E-04   1.1290215E+06   -1.9014969E+00
   1.0186008E-04   1.1191742E+06   -1.9011320E+00
   1.0233048E-04   1.1094146E+06   -1.9007660E+00
   1.0280305E-04   1.0997420E+06   -1.9003990E+00
   1.0327781E-04   1.0901556E+06   -1.9000310E+00
   1.0375475E-04   1.0806546E+06   -1.8996619E+00
   1.0423390E-04   1.0712382E+06   -1.8992919E+00
   1.0471527E-04   1.0619056E+06   -1.8989208E+00
   1.0519885E-04   1.0526562E+06   -1.8985487E+00
   1.0568467E-04   1.0434891E+06   -1.8981756E+00
   1.0617274E-04   1.0344037E+06   -1.8978014E+00
   1.0666305E-04   1.0253991E+06   -1.8974263E+00
   1.0715563E-04   1.0164747E+06   -1.8970501E+00
   1.0765049E-04   1.0076296E+06   -1.8966729E+00
   1.0814763E-04   9.9886334E+05   -1.8962947E+00
   1.0864707E-04   9.9017502E+05   -1.8959155E+00
   1.0914881E-04   9.8156399E+05   -1.8955352E+00
   1.0965287E-04   9.7302956E+05   -1.8951539E+00
   1.1015926E-04   9.6457103E+05   -1.8947716E+00
   1.1066799E-04   9.5618771E+05   -1.8943883E+00
   1.1117906E-04   9.4787893E+05   -1.8940039E+00
   1.1169250E-04   9.3964401E+05   -1.8936185E+00
   1.1220831E-04   9.3148230E+05   -1.8932322E+00
   1.1272650E-04   9.2339312E+05   -1.8928447E+00
   1.1324708E-04   9.1537582E+05   -1.8924563E+00
   1.1377007E-04   9.0742977E+05   -1.8920668E+00
   1.1429547E-04   8.9955431E+05   -1.8916764E+00
   1.1482330E-04   8.9174880E+05   -1.8912849E+00
   1.1535356E-04   8.8401262E+05   -1.8908924E+00
   1.1588628E-04   8.7634514E+05   -1.8904988E+00
   1.1642145E-04   8.6874574E+05   -1.8901042E+00
   1.1695910E-04   8.6121381E+05   -1.8897087E+00
   1.1749923E-04   8.5374873E+05   -1.8893121E+00
   1.1804185E-04   8.4634992E+05   -1.8889144E+00
   1.1858698E-04   8.3901676E+05   -1.8885158E+00
   1.1913463E-04   8.3174867E+05   -1.8881161E+00
   1.1968481E-04   8.2454506E+05   -1.8877155E+00
   1.2023752E-04   8.1740535E+05   -1.8873138E+00
   1.2079279E-04   8.1032896E+05   -1.8869111E+00
   1.2135063E-04   8.0331533E+05   -1.8865073E+00
   1.2191104E-04   7.9636389E+05   -1.8861026E+00
   1.2247403E-04   7.8947408E+05   -1.8856968E+00
   1.2303963E-04   7.8264533E+05   -1.8852900E+00
   1.2360784E-04   7.7587711E+05   -1.8848822E+00
   1.2417868E-04   7.6916887E+05   -1.8844734E+00
   1.2475215E-04   7.6252007E+05   -1.8840636E+00
   1.2532826E-04   7.5593017E+05   -1.8836527E+00
   1.2590704E-04   7.4939864E+05   -1.8832409E+00
   1.2648850E-04   7.4292495E+05   -1.8828280E+00
   1.2707263E-04   7.3650859E+05   -1.8824141E+00
   1.2765947E-04   7.3014904E+05   -1.8819992E+00
   1.2824901E-04   7.2384580E+05   -1.8815833E+00
   1.2884128E-04   7.1759834E+05   -1.8811664E+00
   1.2943628E-04   7.1140617E+05   -1.8807485E+00
   1.3003403E-04   7.0526880E+05   -1.8803296E+00
   1.3063454E-04   6.9918572E+05   -1.8799096E+00
   1.3123783E-04   6.9315645E+05   -1.8794887E+00
   1.3184390E-04   6.8718051E+05   -1.8790667E+00
   1.3245277E-04   6.8125742E+05   -1.8786438E+00
   1.3306445E-04   6.7538669E+05   -1.8782198E+00
   1.3367895E-04   6.6956787E+05   -1.8777949E+00
   1.3429630E-04   6.6380048E+05   -1.8773689E+00
   1.3491649E-04   6.5808406E+05   -1.8769419E+00
   1.3553955E-04   6.5241816E+05   -1.8765140E+00
   1.3616548E-04   6.4680231E+05   -1.8760850E+00
   1.3679431E-04   6.4123608E+05   -1.8756550E+00
   1.3742604E-04   6.3571900E+05   -1.8752241E+00
   1.3806069E-04   6.3025065E+05   -1.8747921E+00
   1.3869827E-04   6.2483058E+05   -1.8743592E+00
   1.3933879E-04   6.1945835E+05   -1.8739252E+00
   1.3998227E-04   6.1413355E+05   -1.8734903E+00
   1.4062872E-04   6.0885574E+05   -1.8730544E+00
   1.4127816E-04   6.0362450E+05   -1.8726174E+00
   1.4193060E-04   5.9843941E+05   -1.8721795E+00
   1.4258605E-04   5.9330006E+05   -1.8717406E+00
   1.4324453E-04   5.8820604E+05   -1.8713007E+00
   1.4390605E-04   5.8315694E+05   -1.8708599E+00
   1.4457062E-04   5.7815235E+05   -1.8704180E+00
   1.4523826E-04   5.7319189E+05   -1.8699752E+00
   1.4590899E-04   5.6827514E+05   -1.8695314E+00
   1.4658281E-04   5.6340172E+05   -1.8690866E+00
   1.4725974E-04   5.5857124E+05   -1.8686408E+00
   1.4793981E-04   5.5378332E+05   -1.8681941E+00
   1.4862301E-04   5.4903756E+05   -1.8677464E+00
   1.4930936E-04   5.4433360E+05   -1.8672977E+00
   1.4999889E-04   5.3967106E+05   -1.8668480E+00
   1.5069160E-04   5.3504957E+05   -1.8663974E+00
   1.5138751E-04   5.3046875E+05   -1.8659458E+00
   1.5208663E-04   5.2592825E+05   -1.8654932E+00
   1.5278899E-04   5.2142770E+05   -1.8650397E+00
   1.5349458E-04   5.1696675E+05   -1.8645852E+00
   1.5420343E-04   5.1254504E+05   -1.8641297E+00
   1.5491556E-04   5.0816221E+05   -1.8636733E+00
   1.5563098E-04   5.0381792E+05   -1.8632159E+00
   1.5634970E-04   4.9951182E+05   -1.8627576E+00
   1.5707174E-04   4.9524358E+05   -1.8622983E+00
   1.5779711E-04   4.9101285E+05   -1.8618381E+00
   1.5852584E-04   4.8681929E+05   -1.8613769E+00
   1.5925792E-04   4.8266257E+05   -1.8609148E+00
   1.5999339E-04   4.7854237E+05   -1.8604517E+00
   1.6073226E-04   4.7445835E+05   -1.8599877E+00
   1.6147454E-04   4.7041019E+05   -1.8595227E+00
   1.6222024E-04   4.6639757E+05   -1.8590568E+00
   1.6296939E-04   4.6242018E+05   -1.8585900E+00
   1.6372200E-04   4.5847769E+05   -1.8581222E+00
   1.6447809E-04   4.5456979E+05   -1.8576535E+00
   1.6523767E-04   4.5069618E+05   -1.8571839E+00
   1.6600075E-04   4.4685654E+05   -1.8567133E+00
   1.6676736E-04   4.4305058E+05   -1.8562418E+00
   1.6753751E-04   4.3927799E+05   -1.8557694E+00
   1.6831122E-04   4.3553847E+05   -1.8552960E+00
   1.6908849E-04   4.3183172E+05   -1.8548218E+00
   1.6986936E-04   4.2815746E+05   -1.8543466E+00
   1.7065384E-04   4.2451540E+05   -1.8538705E+00
   1.7144193E-04   4.2090523E+05   -1.8533935E+00
   1.7223367E-04   4.1732669E+05   -1.8529156E+00
   1.7302906E-04   4.1377949E+05   -1.8524368E+00
   1.7382813E-04   4.1026334E+05   -1.8519570E+00
   1.7463089E-04   4.0677797E+05   -1.8514764E+00
   1.7543735E-04   4.0332310E+05   -1.8509949E+00
   1.7624754E-04   3.9989847E+05   -1.8505124E+00
   1.7706147E-04   3.9650380E+05   -1.8500291E+00
   1.7787916E-04   3.9313882E+05   -1.8495449E+00
   1.7870062E-04   3.8980326E+05   -1.8490598E+00
   1.7952588E-04   3.8649687E+05   -1.8485738E+00
   1.8035495E-04   3.8321939E+05   -1.8480869E+00
   1.8118785E-04   3.7997055E+05   -1.8475992E+00
   1.8202459E-04   3.7675010E+05   -1.8471105E+00
   1.8286520E-04   3.7355779E+05   -1.8466210E+00
   1.8370969E-04   3.7039337E+05   -1.8461306E+00
   1.8455808E-04   3.6725658E+05   -1.8456394E+00
   1.8541039E-04   3.6414718E+05   -1.8451473E+00
   1.8626663E-04   3.6106493E+05   -1.8446543E+00
   1.8712683E-04   3.5800958E+05   -1.8441604E+00
   1.8799100E-04   3.5498089E+05   -1.8436657E+00
   1.8885917E-04   3.5197863E+05   -1.8431702E+00
   1.8973134E-04   3.4900256E+05   -1.8426737E+00
   1.9060754E-04   3.4605244E+05   -1.8421765E+00
   1.9148778E-04   3.4312805E+05   -1.8416784E+00
   1.9237209E-04   3.4022915E+05   -1.8411794E+00
   1.9326049E-04   3.3735551E+05   -1.8406796E+00
   1.9415299E-04   3.3450693E+05   -1.8401790E+00
   1.9504960E-04   3.3168316E+05   -1.8396776E+00
   1.9595036E-04   3.2888398E+05   -1.8391753E+00
   1.9685528E-04   3.2610919E+05   -1.8386722E+00
   1.9776438E-04   3.2335856E+05   -1.8381682E+00
   1.9867768E-04   3.2063187E+05   -1.8376635E+00
   1.9959519E-04   3.1792892E+05   -1.8371579E+00
   2.0051694E-04   3.1524948E+05   -1.8366515E+00
   2.0144295E-04   3.1259336E+05   -1.8361443E+00
   2.0237324E-04   3.0996034E+05   -1.8356363E+00
   2.0330782E-04   3.0735022E+05   -1.8351275E+00
   2.0424671E-04   3.0476279E+05   -1.8346179E+00
   2.0518995E-04   3.0219786E+05   -1.8341075E+00
   2.0613754E-04   2.9965522E+05   -1.8335963E+00
   2.0708950E-04   2.9713467E+05   -1.8330843E+00
   2.0804586E-04   2.9463602E+05   -1.8325715E+00
   2.0900664E-04   2.9215908E+05   -1.8320580E+00
   2.0997185E-04   2.8970364E+05   -1.8315437E+00
   2.1094152E-04   2.8726952E+05   -1.8310286E+00
   2.1191567E-04   2.8485652E+05   -1.8305127E+00
   2.1289432E-04   2.8246447E+05   -1.8299961E+00
   2.1387749E-04   2.8009317E+05   -1.8294787E+00
   2.1486520E-04   2.7774245E+05   -1.8289605E+00
   2.1585747E-04   2.7541210E+05   -1.8284416E+00
   2.1685432E-04   2.7310197E+05   -1.8279219E+00
   2.1785578E-04   2.7081186E+05   -1.8274015E+00
   2.1886186E-04   2.6854160E+05   -1.8268804E+00
   2.1987259E-04   2.6629101E+05   -1.8263585E+00
   2.2088798E-04   2.6405992E+05   -1.8258358E+00
   2.2190807E-04   2.6184815E+05   -1.8253125E+00
   2.2293286E-04   2.5965553E+05   -1.8247884E+00
   2.2396239E-04   2.5748190E+05   -1.8242636E+00
   2.2499667E-04   2.5532708E+05   -1.8237380E+00
   2.2603573E-04   2.5319091E+05   -1.8232118E+00
   2.2707958E-04   2.5107321E+05   -1.8226848E+00
   2.2812826E-04   2.4897384E+05   -1.8221572E+00
   2.2918178E-04   2.4689262E+05   -1.8216288E+00
   2.3024017E-04   2.4482939E+05   -1.8210998E+00
   2.3130344E-04   2.4278400E+05   -1.8205700E+00
   2.3237162E-04   2.4075628E+05   -1.8200395E+00
   2.3344474E-04   2.3874609E+05   -1.8195084E+00
   2.3452281E-04   2.3675325E+05   -1.8189766E+00
   2.3560586E-04   2.3477763E+05   -1.8184441E+00
   2.3669392E-04   2.3281907E+05   -1.8179109E+00
   2.3778699E-04   2.3087741E+05   -1.8173771E+00
   2.3888512E-04   2.2895251E+05   -1.8168426E+00
   2.3998831E-04   2.2704421E+05   -1.8163075E+00
   2.4109661E-04   2.2515238E+05   -1.8157716E+00
   2.4221001E-04   2.2327686E+05   -1.8152352E+00
   2.4332857E-04   2.2141751E+05   -1.8146981E+00
   2.4445228E-04   2.1957419E+05   -1.8141603E+00
   2.4558119E-04   2.1774675E+05   -1.8136219E+00
   2.4671531E-04   2.1593506E+05   -1.8130829E+00
   2.4785467E-04   2.1413898E+05   -1.8125433E+00
   2.4899928E-04   2.1235837E+05   -1.8120030E+00
   2.5014919E-04   2.1059308E+05   -1.8114621E+00
   2.5130440E-04   2.0884299E+05   -1.8109206E+00
   2.5246495E-04   2.0710796E+05   -1.8103785E+00
   2.5363086E-04   2.0538786E+05   -1.8098358E+00
   2.5480216E-04   2.0368255E+05   -1.8092925E+00
   2.5597886E-04   2.0199191E+05   -1.8087486E+00
   2.5716100E-04   2.0031580E+05   -1.8082041E+00
   2.5834859E-04   1.9865410E+05   -1.8076590E+00
   2.5954168E-04   1.9700668E+05   -1.8071133E+00
   2.6074027E-04   1.9537342E+05   -1.8065671E+00
   2.6194439E-04   1.9375418E+05   -1.8060203E+00
   2.6315408E-04   1.9214884E+05   -1.8054729E+00
   2.6436935E-04   1.9055729E+05   -1.8049250E+00
   2.6559024E-04   1.8897940E+05   -1.8043765E+00
   2.6681676E-04   1.8741505E+05   -1.8038275E+00
   2.6804895E-04   1.8586412E+05   -1.8032779E+00
   2.6928683E-04   1.8432648E+05   -1.8027278E+00
   2.7053042E-04   1.8280204E+05   -1.8021771E+00
   2.7177976E-04   1.8129066E+05   -1.8016259E+00
   2.7303487E-04   1.7979223E+05   -1.8010742E+00
   2.7429577E-04   1.7830664E+05   -1.8005220E+00
   2.7556250E-04   1.7683378E+05   -1.7999692E+00
   2.7683507E-04   1.7537353E+05   -1.7994159E+00
   2.7811353E-04   1.7392578E+05   -1.7988622E+00
   2.7939788E-04   1.7249043E+05   -1.7983079E+00
   2.8068817E-04   1.7106735E+05   -1.7977531E+00
   2.8198442E-04   1.6965646E+05   -1.7971979E+00
   2.8328665E-04   1.6825762E+05   -1.7966422E+00
   2.8459490E-04   1.6687075E+05   -1.7960860E+00
   2.8590919E-04   1.6549574E+05   -1.7955293E+00
   2.8722955E-04   1.6413247E+05   -1.7949721E+00
   2.8855600E-04   1.6278086E+05   -1.7944145E+00
   2.8988859E-04   1.6144079E+05   -1.7938564E+00
   2.9122732E-04   1.6011216E+05   -1.7932979E+00
   2.9257224E-04   1.5879488E+05   -1.7927389E+00
   2.9392337E-04   1.5748884E+05   -1.7921795E+00
   2.9528074E-04   1.5619394E+05   -1.7916197E+00
   2.9664438E-04   1.5491009E+05   -1.7910594E+00
   2.9801431E-04   1.5363719E+05   -1.7904987E+00
   2.9939057E-04   1.5237515E+05   -1.7899376E+00
   3.0077319E-04   1.5112386E+05   -1.7893760E+00
   3.0216219E-04   1.4988323E+05   -1.7888141E+00
   3.0355761E-04   1.4865318E+05   -1.7882518E+00
   3.0495947E-04   1.4743360E+05   -1.7876890E+00
   3.0636780E-04   1.4622441E+05   -1.7871259E+00
   3.0778264E-04   1.4502551E+05   -1.7865623E+00
   3.0920401E-04   1.4383681E+05   -1.7859984E+00
   3.1063195E-04   1.4265823E+05   -1.7854342E+00
   3.1206648E-04   1.4148967E+05   -1.7848695E+00
   3.1350764E-04   1.4033105E+05   -1.7843045E+00
   3.1495545E-04   1.3918228E+05   -1.7837391E+00
   3.1640994E-04   1.3804327E+05   -1.7831734E+00
   3.1787116E-04   1.3691394E+05   -1.7826074E+00
   3.1933912E-04   1.3579421E+05   -1.7820409E+00
   3.2081386E-04   1.3468398E+05   -1.7814742E+00
   3.2229541E-04   1.3358318E+05   -1.7809071E+00
   3.2378381E-04   1.3249173E+05   -1.7803397E+00
   3.2527908E-04   1.3140953E+05   -1.7797720E+00
   3.2678125E-04   1.3033652E+05   -1.7792040E+00
   3.2829036E-04   1.2927260E+05   -1.7786357E+00
   3.2980644E-04   1.2821771E+05   -1.7780670E+00
   3.3132952E-04   1.2717176E+05   -1.7774981E+00
   3.3285963E-04   1.2613467E+05   -1.7769289E+00
   3.3439681E-04   1.2510636E+05   -1.7763594E+00
   3.3594109E-04   1.2408677E+05   -1.7757896E+00
   3.3749250E-04   1.2307580E+05   -1.7752195E+00
   3.3905108E-04   1.2207340E+05   -1.7746492E+00
   3.4061685E-04   1.2107948E+05   -1.7740786E+00
   3.4218986E-04   1.2009396E+05   -1.7735078E+00
   3.4377013E-04   1.1911678E+05   -1.7729367E+00
   3.4535769E-04   1.1814787E+05   -1.7723654E+00
   3.4695259E-04   1.1718714E+05   -1.7717938E+00
   3.4855485E-04   1.1623453E+05   -1.7712221E+00
   3.5016452E-04   1.1528997E+05   -1.7706500E+00
   3.5178161E-04   1.1435338E+05   -1.7700778E+00
   3.5340618E-04   1.1342471E+05   -1.7695054E+00
   3.5503824E-04   1.1250387E+05   -1.7689327E+00
   3.5667785E-04   1.1159080E+05   -1.7683599E+00
   3.5832502E-04   1.1068544E+05   -1.7677868E+00
   3.5997981E-04   1.0978771E+05   -1.7672136E+00
   3.6164223E-04   1.0889754E+05   -1.7666402E+00
   3.6331233E-04   1.0801489E+05   -1.7660666E+00
   3.6499015E-04   1.0713967E+05   -1.7654928E+00
   3.6667571E-04   1.0627182E+05   -1.7649189E+00
   3.6836906E-04   1.0541128E+05   -1.7643448E+00
   3.7007022E-04   1.0455798E+05   -1.7637705E+00
   3.7177925E-04   1.0371187E+05   -1.7631962E+00
   3.7349616E-04   1.0287288E+05   -1.7626216E+00
   3.7522101E-04   1.0204094E+05   -1.7620470E+00
   3.7695382E-04   1.0121600E+05   -1.7614722E+00
   3.7869463E-04   1.0039800E+05   -1.7608973E+00
   3.8044348E-04   9.9586865E+04   -1.7603222E+00
   3.8220041E-04   9.8782550E+04   -1.7597471E+00
   3.8396545E-04   9.7984990E+04   -1.7591718E+00
   3.8573864E-04   9.7194127E+04   -1.7585965E+00
   3.8752002E-04   9.6409904E+04   -1.7580211E+00
   3.8930963E-04   9.5632261E+04   -1.7574455E+00
   3.9110750E-04   9.4861142E+04   -1.7568699E+00
   3.9291368E-04   9.4096491E+04   -1.7562943E+00
   3.9472820E-04   9.3338251E+04   -1.7557185E+00
   3.9655109E-04   9.2586366E+04   -1.7551427E+00
   3.9838241E-04   9.1840782E+04   -1.7545668E+00
   4.0022218E-04   9.1101444E+04   -1.7539909E+00
   4.0207045E-04   9.0368298E+04   -1.7534150E+00
   4.0392725E-04   8.9641289E+04   -1.7528390E+00
   4.0579263E-04   8.8920365E+04   -1.7522630E+00
   4.0766662E-04   8.8205474E+04   -1.7516869E+00
   4.0954927E-04   8.7496562E+04   -1.7511109E+00
   4.1144061E-04   8.6793577E+04   -1.7505348E+00
   4.1334068E-04   8.6096470E+04   -1.7499587E+00
   4.1524953E-04   8.5405188E+04   -1.7493826E+00
   4.1716720E-04   8.4719681E+04   -1.7488065E+00
   4.1909372E-04   8.4039900E+04   -1.7482305E+00
   4.2102914E-04   8.3365794E+04   -1.7476544E+00
   4.2297350E-04   8.2697315E+04   -1.7470784E+00
   4.2492683E-04   8.2034414E+04   -1.7465024E+00
   4.2688919E-04   8.1377043E+04   -1.7459264E+00
   4.2886061E-04   8.0725154E+04   -1.7453505E+00
   4.3084113E-04   8.0078700E+04   -1.7447746E+00
   4.3283080E-04   7.9437633E+04   -1.7441988E+00
   4.3482966E-04   7.8801907E+04   -1.7436231E+00
   4.3683775E-04   7.8171476E+04   -1.7430474E+00
   4.3885511E-04   7.7546295E+04   -1.7424717E+00
   4.4088179E-04   7.6926317E+04   -1.7418962E+00
   4.4291783E-04   7.6311498E+04   -1.7413208E+00
   4.4496327E-04   7.5701794E+04   -1.7407454E+00
   4.4701816E-04   7.5097160E+04   -1.7401701E+00
   4.4908253E-04   7.4497553E+04   -1.7395950E+00
   4.5115644E-04   7.3902929E+04   -1.7390199E+00
   4.5323993E-04   7.3313246E+04   -1.7384450E+00
   4.5533304E-04   7.2728461E+04   -1.7378702E+00
   4.5743582E-04   7.2148531E+04   -1.7372955E+00
   4.5954830E-04   7.1573415E+04   -1.7367209E+00
   4.6167054E-04   7.1003071E+04   -1.7361465E+00
   4.6380259E-04   7.0437459E+04   -1.7355722E+00
   4.6594448E-04   6.9876537E+04   -1.7349981E+00
   4.6809626E-04   6.9320265E+04   -1.7344241E+00
   4.7025797E-04   6.8768604E+04   -1.7338503E+00
   4.7242967E-04   6.8221513E+04   -1.7332767E+00
   4.7461140E-04   6.7678953E+04   -1.7327033E+00
   4.7680321E-04   6.7140885E+04   -1.7321300E+00
   4.7900514E-04   6.6607271E+04   -1.7315569E+00
   4.8121723E-04   6.6078073E+04   -1.7309840E+00
   4.8343954E-04   6.5553252E+04   -1.7304113E+00
   4.8567212E-04   6.5032772E+04   -1.7298388E+00
   4.8791500E-04   6.4516593E+04   -1.7292665E+00
   4.9016825E-04   6.4004681E+04   -1.7286945E+00
   4.9243189E-04   6.3496998E+04   -1.7281227E+00
   4.9470600E-04   6.2993507E+04   -1.7275511E+00
   4.9699060E-04   6.2494174E+04   -1.7269797E+00
   4.9928575E-04   6.1998961E+04   -1.7264086E+00
   5.0159151E-04   6.1507835E+04   -1.7258377E+00
   5.0390791E-04   6.1020760E+04   -1.7252670E+00
   5.0623501E-04   6.0537700E+04   -1.7246967E+00
   5.0857286E-04   6.0058623E+04   -1.7241266E+00
   5.1092150E-04   5.9583493E+04   -1.7235567E+00
   5.1328099E-04   5.9112278E+04   -1.7229872E+00
   5.1565137E-04   5.8644943E+04   -1.7224179E+00
   5.1803270E-04   5.8181455E+04   -1.7218489E+00
   5.2042503E-04   5.7721782E+04   -1.7212802E+00
   5.2282841E-04   5.7265890E+04   -1.7207118E+00
   5.2524289E-04   5.6813748E+04   -1.7201437E+00
   5.2766851E-04   5.6365323E+04   -1.7195759E+00
   5.3010534E-04   5.5920583E+04   -1.7190085E+00
   5.3255342E-04   5.5479498E+04   -1.7184413E+00
   5.3501281E-04   5.5042036E+04   -1.7178745E+00
   5.3748356E-04   5.4608165E+04   -1.7173080E+00
   5.3996571E-04   5.4177856E+04   -1.7167419E+00
   5.4245933E-04   5.3751078E+04   -1.7161761E+00
   5.4496446E-04   5.3327801E+04   -1.7156107E+00
   5.4748117E-04   5.2907995E+04   -1.7150456E+00
   5.5000949E-04   5.2491631E+04   -1.7144809E+00
   5.5254949E-04   5.2078678E+04   -1.7139165E+00
   5.5510123E-04   5.1669109E+04   -1.7133525E+00
   5.5766474E-04   5.1262893E+04   -1.7127889E+00
   5.6024010E-04   5.0860004E+04   -1.7122257E+00
   5.6282734E-04   5.0460411E+04   -1.7116629E+00
   5.6542654E-04   5.0064088E+04   -1.7111004E+00
   5.6803774E-04   4.9671006E+04   -1.7105384E+00
   5.7066099E-04   4.9281139E+04   -1.7099768E+00
   5.7329637E-04   4.8894457E+04   -1.7094156E+00
   5.7594391E-04   4.8510935E+04   -1.7088548E+00
   5.7860368E-04   4.8130546E+04   -1.7082944E+00
   5.8127573E-04   4.7753263E+04   -1.7077345E+00
   5.8396012E-04   4.7379060E+04   -1.7071750E+00
   5.8665691E-04   4.7007910E+04   -1.7066159E+00
   5.8936616E-04   4.6639787E+04   -1.7060573E+00
   5.9208791E-04   4.6274666E+04   -1.7054991E+00
   5.9482223E-04   4.5912522E+04   -1.7049414E+00
   5.9756919E-04   4.5553329E+04   -1.7043842E+00
   6.0032882E-04   4.5197062E+04   -1.7038274E+00
   6.0310120E-04   4.4843696E+04   -1.7032711E+00
   6.0588639E-04   4.4493207E+04   -1.7027152E+00
   6.0868443E-04   4.4145570E+04   -1.7021599E+00
   6.1149540E-04   4.3800762E+04   -1.7016050E+00
   6.1431935E-04   4.3458757E+04   -1.7010506E+00
   6.1715634E-04   4.3119534E+04   -1.7004968E+00
   6.2000644E-04   4.2783067E+04   -1.6999434E+00
   6.2286969E-04   4.2449334E+04   -1.6993905E+00
