#        a       HoverH0(a)       dlogHdloga_of_a(a)
   1.0000000E-04   1.0326207E+06   -1.8878363E+00
   1.0046181E-04   1.0236787E+06   -1.8874350E+00
   1.0092575E-04   1.0148161E+06   -1.8870326E+00
   1.0139184E-04   1.0060320E+06   -1.8866291E+00
   1.0186008E-04   9.9732576E+05   -1.8862247E+00
   1.0233048E-04   9.8869675E+05   -1.8858192E+00
   1.0280305E-04   9.8014423E+05   -1.8854128E+00
   1.0327781E-04   9.7166752E+05   -1.8850053E+00
   1.0375475E-04   9.6326592E+05   -1.8845968E+00
   1.0423390E-04   9.5493877E+05   -1.8841873E+00
   1.0471527E-04   9.4668540E+05   -1.8837767E+00
   1.0519885E-04   9.3850513E+05   -1.8833652E+00
   1.0568467E-04   9.3039731E+05   -1.8829526E+00
   1.0617274E-04   9.2236130E+05   -1.8825391E+00
   1.0666305E-04   9.1439644E+05   -1.8821245E+00
   1.0715563E-04   9.0650209E+05   -1.8817089E+00
   1.0765049E-04   8.9867762E+05   -1.8812923E+00
   1.0814763E-04   8.9092240E+05   -1.8808747E+00
   1.0864707E-04   8.8323580E+05   -1.8804561E+00
   1.0914881E-04   8.7561722E+05   -1.8800364E+00
   1.0965287E-04   8.6806602E+05   -1.8796158E+00
   1.1015926E-04   8.6058162E+05   -1.8791942E+00
   1.1066799E-04   8.5316341E+05   -1.8787715E+00
   1.1117906E-04   8.4581079E+05   -1.8783479E+00
   1.1169250E-04   8.3852318E+05   -1.8779232E+00
   1.1220831E-04   8.3129998E+05   -1.8774976E+00
   1.1272650E-04   8.2414063E+05   -1.8770709E+00
   1.1324708E-04   8.1704454E+05   -1.8766432E+00
   1.1377007E-04   8.1001115E+05   -1.8762146E+00
   1.1429547E-04   8.0303990E+05   -1.8757849E+00
   1.1482330E-04   7.9613021E+05   -1.8753543E+00
   1.1535356E-04   7.8928155E+05   -1.8749226E+00
   1.1588628E-04   7.8249337E+05   -1.8744900E+00
   1.1642145E-04   7.7576511E+05   -1.8740563E+00
   1.1695910E-04   7.6909624E+05   -1.8736217E+00
   1.1749923E-04   7.6248624E+05   -1.8731861E+00
   1.1804185E-04   7.5593456E+05   -1.8727495E+00
   1.1858698E-04   7.4944068E+05   -1.8723119E+00
   1.1913463E-04   7.4300409E+05   -1.8718733E+00
   1.1968481E-04   7.3662427E+05   -1.8714337E+00
   1.2023752E-04   7.3030071E+05   -1.8709932E+00
   1.2079279E-04   7.2403291E+05   -1.8705516E+00
   1.2135063E-04   7.1782037E+05   -1.8701091E+00
   1.2191104E-04   7.1166258E+05   -1.8696656E+00
   1.2247403E-04   7.0555906E+05   -1.8692211E+00
   1.2303963E-04   6.9950933E+05   -1.8687756E+00
   1.2360784E-04   6.9351289E+05   -1.8683292E+00
   1.2417868E-04   6.8756926E+05   -1.8678818E+00
   1.2475215E-04   6.8167799E+05   -1.8674334E+00
   1.2532826E-04   6.7583859E+05   -1.8669840E+00
   1.2590704E-04   6.7005060E+05   -1.8665337E+00
   1.2648850E-04   6.6431356E+05   -1.8660824E+00
   1.2707263E-04   6.5862701E+05   -1.8656301E+00
   1.2765947E-04   6.5299050E+05   -1.8651769E+00
   1.2824901E-04   6.4740358E+05   -1.8647227E+00
   1.2884128E-04   6.4186581E+05   -1.8642675E+00
   1.2943628E-04   6.3637674E+05   -1.8638114E+00
   1.3003403E-04   6.3093594E+05   -1.8633544E+00
   1.3063454E-04   6.2554298E+05   -1.8628963E+00
   1.3123783E-04   6.2019742E+05   -1.8624373E+00
   1.3184390E-04   6.1489885E+05   -1.8619774E+00
   1.3245277E-04   6.0964683E+05   -1.8615165E+00
   1.3306445E-04   6.0444096E+05   -1.8610547E+00
   1.3367895E-04   5.9928082E+05   -1.8605919E+00
   1.3429630E-04   5.9416600E+05   -1.8601282E+00
   1.3491649E-04   5.8909609E+05   -1.8596635E+00
   1.3553955E-04   5.8407070E+05   -1.8591979E+00
   1.3616548E-04   5.7908942E+05   -1.8587314E+00
   1.3679431E-04   5.7415186E+05   -1.8582639E+00
   1.3742604E-04   5.6925763E+05   -1.8577955E+00
   1.3806069E-04   5.6440634E+05   -1.8573261E+00
   1.3869827E-04   5.5959760E+05   -1.8568558E+00
   1.3933879E-04   5.5483103E+05   -1.8563846E+00
   1.3998227E-04   5.5010626E+05   -1.8559125E+00
   1.4062872E-04   5.4542291E+05   -1.8554394E+00
   1.4127816E-04   5.4078062E+05   -1.8549655E+00
   1.4193060E-04   5.3617901E+05   -1.8544906E+00
   1.4258605E-04   5.3161771E+05   -1.8540148E+00
   1.4324453E-04   5.2709638E+05   -1.8535381E+00
   1.4390605E-04   5.2261465E+05   -1.8530604E+00
   1.4457062E-04   5.1817217E+05   -1.8525819E+00
   1.4523826E-04   5.1376859E+05   -1.8521024E+00
   1.4590899E-04   5.0940356E+05   -1.8516221E+00
   1.4658281E-04   5.0507673E+05   -1.8511409E+00
   1.4725974E-04   5.0078776E+05   -1.8506587E+00
   1.4793981E-04   4.9653632E+05   -1.8501757E+00
   1.4862301E-04   4.9232207E+05   -1.8496917E+00
   1.4930936E-04   4.8814467E+05   -1.8492069E+00
   1.4999889E-04   4.8400380E+05   -1.8487212E+00
   1.5069160E-04   4.7989914E+05   -1.8482346E+00
   1.5138751E-04   4.7583035E+05   -1.8477471E+00
   1.5208663E-04   4.7179712E+05   -1.8472588E+00
   1.5278899E-04   4.6779913E+05   -1.8467695E+00
   1.5349458E-04   4.6383606E+05   -1.8462794E+00
   1.5420343E-04   4.5990761E+05   -1.8457884E+00
   1.5491556E-04   4.5601346E+05   -1.8452966E+00
   1.5563098E-04   4.5215332E+05   -1.8448039E+00
   1.5634970E-04   4.4832686E+05   -1.8443103E+00
   1.5707174E-04   4.4453380E+05   -1.8438159E+00
   1.5779711E-04   4.4077384E+05   -1.8433206E+00
   1.5852584E-04   4.3704667E+05   -1.8428244E+00
   1.5925792E-04   4.3335202E+05   -1.8423275E+00
   1.5999339E-04   4.2968958E+05   -1.8418296E+00
   1.6073226E-04   4.2605907E+05   -1.8413309E+00
   1.6147454E-04   4.2246021E+05   -1.8408314E+00
   1.6222024E-04   4.1889272E+05   -1.8403311E+00
   1.6296939E-04   4.1535631E+05   -1.8398299E+00
   1.6372200E-04   4.1185070E+05   -1.8393278E+00
   1.6447809E-04   4.0837563E+05   -1.8388250E+00
   1.6523767E-04   4.0493082E+05   -1.8383213E+00
   1.6600075E-04   4.0151600E+05   -1.8378168E+00
   1.6676736E-04   3.9813090E+05   -1.8373115E+00
   1.6753751E-04   3.9477526E+05   -1.8368054E+00
   1.6831122E-04   3.9144882E+05   -1.8362985E+00
   1.6908849E-04   3.8815132E+05   -1.8357907E+00
   1.6986936E-04   3.8488249E+05   -1.8352822E+00
   1.7065384E-04   3.8164209E+05   -1.8347728E+00
   1.7144193E-04   3.7842986E+05   -1.8342627E+00
   1.7223367E-04   3.7524554E+05   -1.8337517E+00
   1.7302906E-04   3.7208890E+05   -1.8332400E+00
   1.7382813E-04   3.6895969E+05   -1.8327275E+00
   1.7463089E-04   3.6585765E+05   -1.8322142E+00
   1.7543735E-04   3.6278255E+05   -1.8317001E+00
   1.7624754E-04   3.5973416E+05   -1.8311853E+00
   1.7706147E-04   3.5671222E+05   -1.8306697E+00
   1.7787916E-04   3.5371651E+05   -1.8301533E+00
   1.7870062E-04   3.5074680E+05   -1.8296361E+00
   1.7952588E-04   3.4780285E+05   -1.8291182E+00
   1.8035495E-04   3.4488443E+05   -1.8285995E+00
   1.8118785E-04   3.4199131E+05   -1.8280801E+00
   1.8202459E-04   3.3912328E+05   -1.8275600E+00
   1.8286520E-04   3.3628011E+05   -1.8270390E+00
   1.8370969E-04   3.3346157E+05   -1.8265174E+00
   1.8455808E-04   3.3066746E+05   -1.8259950E+00
   1.8541039E-04   3.2789754E+05   -1.8254719E+00
   1.8626663E-04   3.2515161E+05   -1.8249480E+00
   1.8712683E-04   3.2242946E+05   -1.8244235E+00
   1.8799100E-04   3.1973087E+05   -1.8238982E+00
   1.8885917E-04   3.1705563E+05   -1.8233721E+00
   1.8973134E-04   3.1440355E+05   -1.8228454E+00
   1.9060754E-04   3.1177440E+05   -1.8223180E+00
   1.9148778E-04   3.0916799E+05   -1.8217899E+00
   1.9237209E-04   3.0658411E+05   -1.8212610E+00
   1.9326049E-04   3.0402257E+05   -1.8207315E+00
   1.9415299E-04   3.0148317E+05   -1.8202013E+00
   1.9504960E-04   2.9896571E+05   -1.8196704E+00
   1.9595036E-04   2.9647000E+05   -1.8191388E+00
   1.9685528E-04   2.9399584E+05   -1.8186065E+00
   1.9776438E-04   2.9154305E+05   -1.8180736E+00
   1.9867768E-04   2.8911143E+05   -1.8175400E+00
   1.9959519E-04   2.8670079E+05   -1.8170057E+00
   2.0051694E-04   2.8431096E+05   -1.8164707E+00
   2.0144295E-04   2.8194174E+05   -1.8159352E+00
   2.0237324E-04   2.7959295E+05   -1.8153989E+00
   2.0330782E-04   2.7726442E+05   -1.8148620E+00
   2.0424671E-04   2.7495596E+05   -1.8143245E+00
   2.0518995E-04   2.7266740E+05   -1.8137863E+00
   2.0613754E-04   2.7039856E+05   -1.8132475E+00
   2.0708950E-04   2.6814926E+05   -1.8127081E+00
   2.0804586E-04   2.6591933E+05   -1.8121680E+00
   2.0900664E-04   2.6370861E+05   -1.8116273E+00
   2.0997185E-04   2.6151691E+05   -1.8110861E+00
   2.1094152E-04   2.5934408E+05   -1.8105441E+00
   2.1191567E-04   2.5718994E+05   -1.8100016E+00
   2.1289432E-04   2.5505433E+05   -1.8094585E+00
   2.1387749E-04   2.5293709E+05   -1.8089148E+00
   2.1486520E-04   2.5083806E+05   -1.8083705E+00
   2.1585747E-04   2.4875706E+05   -1.8078257E+00
   2.1685432E-04   2.4669396E+05   -1.8072802E+00
   2.1785578E-04   2.4464857E+05   -1.8067342E+00
   2.1886186E-04   2.4262076E+05   -1.8061875E+00
   2.1987259E-04   2.4061036E+05   -1.8056404E+00
   2.2088798E-04   2.3861722E+05   -1.8050926E+00
   2.2190807E-04   2.3664119E+05   -1.8045443E+00
   2.2293286E-04   2.3468212E+05   -1.8039955E+00
   2.2396239E-04   2.3273985E+05   -1.8034461E+00
   2.2499667E-04   2.3081424E+05   -1.8028961E+00
   2.2603573E-04   2.2890515E+05   -1.8023457E+00
   2.2707958E-04   2.2701242E+05   -1.8017947E+00
   2.2812826E-04   2.2513591E+05   -1.8012431E+00
   2.2918178E-04   2.2327548E+05   -1.8006911E+00
   2.3024017E-04   2.2143099E+05   -1.8001385E+00
   2.3130344E-04   2.1960230E+05   -1.7995854E+00
   2.3237162E-04   2.1778926E+05   -1.7990318E+00
   2.3344474E-04   2.1599175E+05   -1.7984778E+00
   2.3452281E-04   2.1420961E+05   -1.7979232E+00
   2.3560586E-04   2.1244273E+05   -1.7973681E+00
   2.3669392E-04   2.1069095E+05   -1.7968125E+00
   2.3778699E-04   2.0895416E+05   -1.7962565E+00
   2.3888512E-04   2.0723221E+05   -1.7957000E+00
   2.3998831E-04   2.0552499E+05   -1.7951430E+00
   2.4109661E-04   2.0383235E+05   -1.7945856E+00
   2.4221001E-04   2.0215417E+05   -1.7940277E+00
   2.4332857E-04   2.0049032E+05   -1.7934693E+00
   2.4445228E-04   1.9884068E+05   -1.7929105E+00
   2.4558119E-04   1.9720511E+05   -1.7923512E+00
   2.4671531E-04   1.9558351E+05   -1.7917915E+00
   2.4785467E-04   1.9397574E+05   -1.7912314E+00
   2.4899928E-04   1.9238169E+05   -1.7906709E+00
   2.5014919E-04   1.9080122E+05   -1.7901099E+00
   2.5130440E-04   1.8923423E+05   -1.7895485E+00
   2.5246495E-04   1.8768060E+05   -1.7889867E+00
   2.5363086E-04   1.8614020E+05   -1.7884246E+00
   2.5480216E-04   1.8461293E+05   -1.7878620E+00
   2.5597886E-04   1.8309866E+05   -1.7872990E+00
   2.5716100E-04   1.8159728E+05   -1.7867356E+00
   2.5834859E-04   1.8010868E+05   -1.7861718E+00
   2.5954168E-04   1.7863275E+05   -1.7856077E+00
   2.6074027E-04   1.7716937E+05   -1.7850432E+00
   2.6194439E-04   1.7571844E+05   -1.7844783E+00
   2.6315408E-04   1.7427984E+05   -1.7839131E+00
   2.6436935E-04   1.7285347E+05   -1.7833475E+00
   2.6559024E-04   1.7143922E+05   -1.7827816E+00
   2.6681676E-04   1.7003699E+05   -1.7822153E+00
   2.6804895E-04   1.6864667E+05   -1.7816487E+00
   2.6928683E-04   1.6726815E+05   -1.7810818E+00
   2.7053042E-04   1.6590133E+05   -1.7805145E+00
   2.7177976E-04   1.6454612E+05   -1.7799469E+00
   2.7303487E-04   1.6320240E+05   -1.7793790E+00
   2.7429577E-04   1.6187007E+05   -1.7788108E+00
   2.7556250E-04   1.6054904E+05   -1.7782423E+00
   2.7683507E-04   1.5923922E+05   -1.7776735E+00
   2.7811353E-04   1.5794049E+05   -1.7771044E+00
   2.7939788E-04   1.5665276E+05   -1.7765350E+00
   2.8068817E-04   1.5537594E+05   -1.7759653E+00
   2.8198442E-04   1.5410994E+05   -1.7753954E+00
   2.8328665E-04   1.5285465E+05   -1.7748252E+00
   2.8459490E-04   1.5160998E+05   -1.7742547E+00
   2.8590919E-04   1.5037584E+05   -1.7736840E+00
   2.8722955E-04   1.4915215E+05   -1.7731130E+00
   2.8855600E-04   1.4793880E+05   -1.7725418E+00
   2.8988859E-04   1.4673570E+05   -1.7719704E+00
   2.9122732E-04   1.4554277E+05   -1.7713987E+00
   2.9257224E-04   1.4435993E+05   -1.7708268E+00
   2.9392337E-04   1.4318707E+05   -1.7702547E+00
   2.9528074E-04   1.4202411E+05   -1.7696823E+00
   2.9664438E-04   1.4087098E+05   -1.7691098E+00
   2.9801431E-04   1.3972757E+05   -1.7685370E+00
   2.9939057E-04   1.3859381E+05   -1.7679641E+00
   3.0077319E-04   1.3746962E+05   -1.7673909E+00
   3.0216219E-04   1.3635490E+05   -1.7668176E+00
   3.0355761E-04   1.3524958E+05   -1.7662441E+00
   3.0495947E-04   1.3415357E+05   -1.7656704E+00
   3.0636780E-04   1.3306680E+05   -1.7650966E+00
   3.0778264E-04   1.3198918E+05   -1.7645226E+00
   3.0920401E-04   1.3092063E+05   -1.7639484E+00
   3.1063195E-04   1.2986107E+05   -1.7633741E+00
   3.1206648E-04   1.2881044E+05   -1.7627997E+00
   3.1350764E-04   1.2776864E+05   -1.7622251E+00
   3.1495545E-04   1.2673560E+05   -1.7616504E+00
   3.1640994E-04   1.2571125E+05   -1.7610755E+00
   3.1787116E-04   1.2469551E+05   -1.7605006E+00
   3.1933912E-04   1.2368830E+05   -1.7599255E+00
   3.2081386E-04   1.2268955E+05   -1.7593503E+00
   3.2229541E-04   1.2169919E+05   -1.7587751E+00
   3.2378381E-04   1.2071715E+05   -1.7581997E+00
   3.2527908E-04   1.1974334E+05   -1.7576242E+00
   3.2678125E-04   1.1877771E+05   -1.7570487E+00
   3.2829036E-04   1.1782018E+05   -1.7564731E+00
   3.2980644E-04   1.1687067E+05   -1.7558974E+00
   3.3132952E-04   1.1592913E+05   -1.7553217E+00
   3.3285963E-04   1.1499547E+05   -1.7547459E+00
   3.3439681E-04   1.1406964E+05   -1.7541700E+00
   3.3594109E-04   1.1315156E+05   -1.7535941E+00
   3.3749250E-04   1.1224117E+05   -1.7530182E+00
   3.3905108E-04   1.1133840E+05   -1.7524422E+00
   3.4061685E-04   1.1044318E+05   -1.7518662E+00
   3.4218986E-04   1.0955545E+05   -1.7512902E+00
   3.4377013E-04   1.0867515E+05   -1.7507142E+00
   3.4535769E-04   1.0780220E+05   -1.7501381E+00
   3.4695259E-04   1.0693656E+05   -1.7495621E+00
   3.4855485E-04   1.0607814E+05   -1.7489860E+00
   3.5016452E-04   1.0522689E+05   -1.7484100E+00
   3.5178161E-04   1.0438275E+05   -1.7478340E+00
   3.5340618E-04   1.0354566E+05   -1.7472580E+00
   3.5503824E-04   1.0271556E+05   -1.7466821E+00
   3.5667785E-04   1.0189238E+05   -1.7461061E+00
   3.5832502E-04   1.0107606E+05   -1.7455303E+00
   3.5997981E-04   1.0026655E+05   -1.7449544E+00
   3.6164223E-04   9.9463788E+04   -1.7443786E+00
   3.6331233E-04   9.8667715E+04   -1.7438029E+00
   3.6499015E-04   9.7878273E+04   -1.7432272E+00
   3.6667571E-04   9.7095404E+04   -1.7426516E+00
   3.6836906E-04   9.6319053E+04   -1.7420761E+00
   3.7007022E-04   9.5549162E+04   -1.7415007E+00
   3.7177925E-04   9.4785676E+04   -1.7409254E+00
   3.7349616E-04   9.4028541E+04   -1.7403501E+00
   3.7522101E-04   9.3277700E+04   -1.7397750E+00
   3.7695382E-04   9.2533101E+04   -1.7391999E+00
   3.7869463E-04   9.1794688E+04   -1.7386250E+00
   3.8044348E-04   9.1062409E+04   -1.7380502E+00
   3.8220041E-04   9.0336211E+04   -1.7374755E+00
   3.8396545E-04   8.9616042E+04   -1.7369010E+00
   3.8573864E-04   8.8901849E+04   -1.7363266E+00
   3.8752002E-04   8.8193581E+04   -1.7357523E+00
   3.8930963E-04   8.7491188E+04   -1.7351782E+00
   3.9110750E-04   8.6794617E+04   -1.7346042E+00
   3.9291368E-04   8.6103821E+04   -1.7340304E+00
   3.9472820E-04   8.5418748E+04   -1.7334568E+00
   3.9655109E-04   8.4739350E+04   -1.7328834E+00
   3.9838241E-04   8.4065577E+04   -1.7323101E+00
   4.0022218E-04   8.3397382E+04   -1.7317370E+00
   4.0207045E-04   8.2734717E+04   -1.7311641E+00
   4.0392725E-04   8.2077534E+04   -1.7305914E+00
   4.0579263E-04   8.1425786E+04   -1.7300189E+00
   4.0766662E-04   8.0779426E+04   -1.7294466E+00
   4.0954927E-04   8.0138408E+04   -1.7288746E+00
   4.1144061E-04   7.9502687E+04   -1.7283027E+00
   4.1334068E-04   7.8872216E+04   -1.7277311E+00
   4.1524953E-04   7.8246951E+04   -1.7271597E+00
   4.1716720E-04   7.7626847E+04   -1.7265886E+00
   4.1909372E-04   7.7011860E+04   -1.7260177E+00
   4.2102914E-04   7.6401946E+04   -1.7254470E+00
   4.2297350E-04   7.5797062E+04   -1.7248766E+00
   4.2492683E-04   7.5197164E+04   -1.7243065E+00
   4.2688919E-04   7.4602211E+04   -1.7237366E+00
   4.2886061E-04   7.4012158E+04   -1.7231670E+00
   4.3084113E-04   7.3426966E+04   -1.7225977E+00
   4.3283080E-04   7.2846591E+04   -1.7220287E+00
   4.3482966E-04   7.2270993E+04   -1.7214600E+00
   4.3683775E-04   7.1700131E+04   -1.7208916E+00
   4.3885511E-04   7.1133964E+04   -1.7203234E+00
   4.4088179E-04   7.0572453E+04   -1.7197556E+00
   4.4291783E-04   7.0015557E+04   -1.7191881E+00
   4.4496327E-04   6.9463237E+04   -1.7186209E+00
   4.4701816E-04   6.8915454E+04   -1.7180541E+00
   4.4908253E-04   6.8372170E+04   -1.7174876E+00
   4.5115644E-04   6.7833345E+04   -1.7169214E+00
   4.5323993E-04   6.7298943E+04   -1.7163556E+00
   4.5533304E-04   6.6768924E+04   -1.7157901E+00
   4.5743582E-04   6.6243253E+04   -1.7152249E+00
   4.5954830E-04   6.5721891E+04   -1.7146602E+00
   4.6167054E-04   6.5204802E+04   -1.7140958E+00
   4.6380259E-04   6.4691949E+04   -1.7135317E+00
   4.6594448E-04   6.4183297E+04   -1.7129681E+00
   4.6809626E-04   6.3678809E+04   -1.7124048E+00
   4.7025797E-04   6.3178451E+04   -1.7118419E+00
   4.7242967E-04   6.2682187E+04   -1.7112794E+00
   4.7461140E-04   6.2189982E+04   -1.7107174E+00
   4.7680321E-04   6.1701802E+04   -1.7101557E+00
   4.7900514E-04   6.1217612E+04   -1.7095944E+00
   4.8121723E-04   6.0737379E+04   -1.7090336E+00
   4.8343954E-04   6.0261069E+04   -1.7084731E+00
   4.8567212E-04   5.9788649E+04   -1.7079131E+00
   4.8791500E-04   5.9320085E+04   -1.7073536E+00
   4.9016825E-04   5.8855345E+04   -1.7067944E+00
   4.9243189E-04   5.8394396E+04   -1.7062357E+00
   4.9470600E-04   5.7937206E+04   -1.7056775E+00
   4.9699060E-04   5.7483744E+04   -1.7051197E+00
   4.9928575E-04   5.7033978E+04   -1.7045624E+00
   5.0159151E-04   5.6587875E+04   -1.7040055E+00
   5.0390791E-04   5.6145406E+04   -1.7034491E+00
   5.0623501E-04   5.5706539E+04   -1.7028932E+00
   5.0857286E-04   5.5271245E+04   -1.7023378E+00
   5.1092150E-04   5.4839492E+04   -1.7017829E+00
   5.1328099E-04   5.4411251E+04   -1.7012284E+00
   5.1565137E-04   5.3986492E+04   -1.7006745E+00
   5.1803270E-04   5.3565185E+04   -1.7001210E+00
   5.2042503E-04   5.3147302E+04   -1.6995681E+00
   5.2282841E-04   5.2732813E+04   -1.6990156E+00
   5.2524289E-04   5.2321689E+04   -1.6984637E+00
   5.2766851E-04   5.1913903E+04   -1.6979123E+00
   5.3010534E-04   5.1509426E+04   -1.6973615E+00
   5.3255342E-04   5.1108230E+04   -1.6968111E+00
   5.3501281E-04   5.0710287E+04   -1.6962613E+00
   5.3748356E-04   5.0315570E+04   -1.6957121E+00
   5.3996571E-04   4.9924052E+04   -1.6951634E+00
   5.4245933E-04   4.9535705E+04   -1.6946152E+00
   5.4496446E-04   4.9150504E+04   -1.6940676E+00
   5.4748117E-04   4.8768421E+04   -1.6935206E+00
   5.5000949E-04   4.8389430E+04   -1.6929741E+00
   5.5254949E-04   4.8013505E+04   -1.6924283E+00
   5.5510123E-04   4.7640620E+04   -1.6918829E+00
   5.5766474E-04   4.7270750E+04   -1.6913382E+00
   5.6024010E-04   4.6903869E+04   -1.6907941E+00
   5.6282734E-04   4.6539952E+04   -1.6902505E+00
   5.6542654E-04   4.6178974E+04   -1.6897076E+00
   5.6803774E-04   4.5820911E+04   -1.6891652E+00
   5.7066099E-04   4.5465738E+04   -1.6886235E+00
   5.7329637E-04   4.5113430E+04   -1.6880823E+00
   5.7594391E-04   4.4763963E+04   -1.6875418E+00
   5.7860368E-04   4.4417315E+04   -1.6870019E+00
   5.8127573E-04   4.4073460E+04   -1.6864627E+00
   5.8396012E-04   4.3732376E+04   -1.6859240E+00
   5.8665691E-04   4.3394040E+04   -1.6853860E+00
   5.8936616E-04   4.3058427E+04   -1.6848486E+00
   5.9208791E-04   4.2725516E+04   -1.6843119E+00
   5.9482223E-04   4.2395283E+04   -1.6837758E+00
   5.9756919E-04   4.2067707E+04   -1.6832404E+00
   6.0032882E-04   4.1742765E+04   -1.6827056E+00
   6.0310120E-04   4.1420435E+04   -1.6821715E+00
   6.0588639E-04   4.1100694E+04   -1.6816381E+00
   6.0868443E-04   4.0783522E+04   -1.6811053E+00
   6.1149540E-04   4.0468897E+04   -1.6805732E+00
   6.1431935E-04   4.0156798E+04   -1.6800418E+00
   6.1715634E-04   3.9847203E+04   -1.6795111E+00
   6.2000644E-04   3.9540092E+04   -1.6789810E+00
   6.2286969E-04   3.9235443E+04   -1.6784517E+00
