#        a       HoverH0(a)       dlogHdloga_of_a(a)
   1.0000000E-04   1.0877696E+06   -1.8823556E+00
   1.0046181E-04   1.0783773E+06   -1.8819406E+00
   1.0092575E-04   1.0690682E+06   -1.8815245E+00
   1.0139184E-04   1.0598414E+06   -1.8811075E+00
   1.0186008E-04   1.0506963E+06   -1.8806894E+00
   1.0233048E-04   1.0416321E+06   -1.8802704E+00
   1.0280305E-04   1.0326481E+06   -1.8798503E+00
   1.0327781E-04   1.0237436E+06   -1.8794292E+00
   1.0375475E-04   1.0149178E+06   -1.8790071E+00
   1.0423390E-04   1.0061701E+06   -1.8785841E+00
   1.0471527E-04   9.9749973E+05   -1.8781600E+00
   1.0519885E-04   9.8890600E+05   -1.8777349E+00
   1.0568467E-04   9.8038823E+05   -1.8773088E+00
   1.0617274E-04   9.7194574E+05   -1.8768817E+00
   1.0666305E-04   9.6357785E+05   -1.8764536E+00
   1.0715563E-04   9.5528389E+05   -1.8760245E+00
   1.0765049E-04   9.4706319E+05   -1.8755944E+00
   1.0814763E-04   9.3891510E+05   -1.8751633E+00
   1.0864707E-04   9.3083897E+05   -1.8747312E+00
   1.0914881E-04   9.2283414E+05   -1.8742981E+00
   1.0965287E-04   9.1489997E+05   -1.8738640E+00
   1.1015926E-04   9.0703584E+05   -1.8734290E+00
   1.1066799E-04   8.9924110E+05   -1.8729929E+00
   1.1117906E-04   8.9151515E+05   -1.8725559E+00
   1.1169250E-04   8.8385735E+05   -1.8721178E+00
   1.1220831E-04   8.7626711E+05   -1.8716788E+00
   1.1272650E-04   8.6874380E+05   -1.8712388E+00
   1.1324708E-04   8.6128684E+05   -1.8707978E+00
   1.1377007E-04   8.5389562E+05   -1.8703558E+00
   1.1429547E-04   8.4656955E+05   -1.8699129E+00
   1.1482330E-04   8.3930806E+05   -1.8694689E+00
   1.1535356E-04   8.3211055E+05   -1.8690240E+00
   1.1588628E-04   8.2497646E+05   -1.8685781E+00
   1.1642145E-04   8.1790522E+05   -1.8681312E+00
   1.1695910E-04   8.1089626E+05   -1.8676834E+00
   1.1749923E-04   8.0394902E+05   -1.8672346E+00
   1.1804185E-04   7.9706295E+05   -1.8667848E+00
   1.1858698E-04   7.9023750E+05   -1.8663340E+00
   1.1913463E-04   7.8347213E+05   -1.8658823E+00
   1.1968481E-04   7.7676629E+05   -1.8654296E+00
   1.2023752E-04   7.7011946E+05   -1.8649760E+00
   1.2079279E-04   7.6353111E+05   -1.8645213E+00
   1.2135063E-04   7.5700071E+05   -1.8640658E+00
   1.2191104E-04   7.5052774E+05   -1.8636092E+00
   1.2247403E-04   7.4411168E+05   -1.8631517E+00
   1.2303963E-04   7.3775203E+05   -1.8626933E+00
   1.2360784E-04   7.3144828E+05   -1.8622339E+00
   1.2417868E-04   7.2519993E+05   -1.8617735E+00
   1.2475215E-04   7.1900648E+05   -1.8613122E+00
   1.2532826E-04   7.1286744E+05   -1.8608500E+00
   1.2590704E-04   7.0678232E+05   -1.8603868E+00
   1.2648850E-04   7.0075065E+05   -1.8599226E+00
   1.2707263E-04   6.9477193E+05   -1.8594576E+00
   1.2765947E-04   6.8884571E+05   -1.8589915E+00
   1.2824901E-04   6.8297150E+05   -1.8585246E+00
   1.2884128E-04   6.7714885E+05   -1.8580567E+00
   1.2943628E-04   6.7137728E+05   -1.8575879E+00
   1.3003403E-04   6.6565634E+05   -1.8571181E+00
   1.3063454E-04   6.5998559E+05   -1.8566474E+00
   1.3123783E-04   6.5436456E+05   -1.8561758E+00
   1.3184390E-04   6.4879282E+05   -1.8557033E+00
   1.3245277E-04   6.4326992E+05   -1.8552298E+00
   1.3306445E-04   6.3779543E+05   -1.8547554E+00
   1.3367895E-04   6.3236891E+05   -1.8542801E+00
   1.3429630E-04   6.2698994E+05   -1.8538039E+00
   1.3491649E-04   6.2165809E+05   -1.8533268E+00
   1.3553955E-04   6.1637293E+05   -1.8528488E+00
   1.3616548E-04   6.1113406E+05   -1.8523699E+00
   1.3679431E-04   6.0594105E+05   -1.8518900E+00
   1.3742604E-04   6.0079349E+05   -1.8514093E+00
   1.3806069E-04   5.9569099E+05   -1.8509276E+00
   1.3869827E-04   5.9063314E+05   -1.8504451E+00
   1.3933879E-04   5.8561953E+05   -1.8499617E+00
   1.3998227E-04   5.8064977E+05   -1.8494773E+00
   1.4062872E-04   5.7572348E+05   -1.8489921E+00
   1.4127816E-04   5.7084026E+05   -1.8485060E+00
   1.4193060E-04   5.6599972E+05   -1.8480190E+00
   1.4258605E-04   5.6120149E+05   -1.8475312E+00
   1.4324453E-04   5.5644519E+05   -1.8470424E+00
   1.4390605E-04   5.5173045E+05   -1.8465528E+00
   1.4457062E-04   5.4705689E+05   -1.8460623E+00
   1.4523826E-04   5.4242414E+05   -1.8455710E+00
   1.4590899E-04   5.3783185E+05   -1.8450787E+00
   1.4658281E-04   5.3327964E+05   -1.8445856E+00
   1.4725974E-04   5.2876717E+05   -1.8440917E+00
   1.4793981E-04   5.2429408E+05   -1.8435969E+00
   1.4862301E-04   5.1986001E+05   -1.8431012E+00
   1.4930936E-04   5.1546462E+05   -1.8426047E+00
   1.4999889E-04   5.1110756E+05   -1.8421073E+00
   1.5069160E-04   5.0678849E+05   -1.8416091E+00
   1.5138751E-04   5.0250707E+05   -1.8411101E+00
   1.5208663E-04   4.9826298E+05   -1.8406102E+00
   1.5278899E-04   4.9405586E+05   -1.8401095E+00
   1.5349458E-04   4.8988540E+05   -1.8396079E+00
   1.5420343E-04   4.8575127E+05   -1.8391055E+00
   1.5491556E-04   4.8165314E+05   -1.8386023E+00
   1.5563098E-04   4.7759070E+05   -1.8380983E+00
   1.5634970E-04   4.7356362E+05   -1.8375934E+00
   1.5707174E-04   4.6957159E+05   -1.8370878E+00
   1.5779711E-04   4.6561429E+05   -1.8365813E+00
   1.5852584E-04   4.6169143E+05   -1.8360740E+00
   1.5925792E-04   4.5780268E+05   -1.8355659E+00
   1.5999339E-04   4.5394775E+05   -1.8350570E+00
   1.6073226E-04   4.5012634E+05   -1.8345473E+00
   1.6147454E-04   4.4633815E+05   -1.8340368E+00
   1.6222024E-04   4.4258288E+05   -1.8335255E+00
   1.6296939E-04   4.3886025E+05   -1.8330135E+00
   1.6372200E-04   4.3516995E+05   -1.8325006E+00
   1.6447809E-04   4.3151170E+05   -1.8319870E+00
   1.6523767E-04   4.2788522E+05   -1.8314726E+00
   1.6600075E-04   4.2429022E+05   -1.8309574E+00
   1.6676736E-04   4.2072642E+05   -1.8304414E+00
   1.6753751E-04   4.1719356E+05   -1.8299247E+00
   1.6831122E-04   4.1369134E+05   -1.8294072E+00
   1.6908849E-04   4.1021950E+05   -1.8288890E+00
   1.6986936E-04   4.0677777E+05   -1.8283700E+00
   1.7065384E-04   4.0336588E+05   -1.8278502E+00
   1.7144193E-04   3.9998357E+05   -1.8273297E+00
   1.7223367E-04   3.9663057E+05   -1.8268085E+00
   1.7302906E-04   3.9330663E+05   -1.8262865E+00
   1.7382813E-04   3.9001148E+05   -1.8257638E+00
   1.7463089E-04   3.8674487E+05   -1.8252404E+00
   1.7543735E-04   3.8350654E+05   -1.8247162E+00
   1.7624754E-04   3.8029625E+05   -1.8241913E+00
   1.7706147E-04   3.7711375E+05   -1.8236657E+00
   1.7787916E-04   3.7395878E+05   -1.8231394E+00
   1.7870062E-04   3.7083111E+05   -1.8226124E+00
   1.7952588E-04   3.6773049E+05   -1.8220846E+00
   1.8035495E-04   3.6465668E+05   -1.8215562E+00
   1.8118785E-04   3.6160945E+05   -1.8210271E+00
   1.8202459E-04   3.5858855E+05   -1.8204972E+00
   1.8286520E-04   3.5559376E+05   -1.8199667E+00
   1.8370969E-04   3.5262485E+05   -1.8194355E+00
   1.8455808E-04   3.4968158E+05   -1.8189036E+00
   1.8541039E-04   3.4676373E+05   -1.8183711E+00
   1.8626663E-04   3.4387106E+05   -1.8178378E+00
   1.8712683E-04   3.4100337E+05   -1.8173039E+00
   1.8799100E-04   3.3816043E+05   -1.8167694E+00
   1.8885917E-04   3.3534201E+05   -1.8162341E+00
   1.8973134E-04   3.3254790E+05   -1.8156983E+00
   1.9060754E-04   3.2977789E+05   -1.8151617E+00
   1.9148778E-04   3.2703176E+05   -1.8146246E+00
   1.9237209E-04   3.2430930E+05   -1.8140868E+00
   1.9326049E-04   3.2161030E+05   -1.8135483E+00
   1.9415299E-04   3.1893456E+05   -1.8130092E+00
   1.9504960E-04   3.1628186E+05   -1.8124695E+00
   1.9595036E-04   3.1365201E+05   -1.8119292E+00
   1.9685528E-04   3.1104480E+05   -1.8113883E+00
   1.9776438E-04   3.0846003E+05   -1.8108467E+00
   1.9867768E-04   3.0589751E+05   -1.8103045E+00
   1.9959519E-04   3.0335703E+05   -1.8097618E+00
   2.0051694E-04   3.0083840E+05   -1.8092184E+00
   2.0144295E-04   2.9834143E+05   -1.8086745E+00
   2.0237324E-04   2.9586593E+05   -1.8081299E+00
   2.0330782E-04   2.9341170E+05   -1.8075848E+00
   2.0424671E-04   2.9097857E+05   -1.8070391E+00
   2.0518995E-04   2.8856633E+05   -1.8064928E+00
   2.0613754E-04   2.8617482E+05   -1.8059459E+00
   2.0708950E-04   2.8380384E+05   -1.8053985E+00
   2.0804586E-04   2.8145321E+05   -1.8048505E+00
   2.0900664E-04   2.7912276E+05   -1.8043020E+00
   2.0997185E-04   2.7681230E+05   -1.8037529E+00
   2.1094152E-04   2.7452167E+05   -1.8032033E+00
   2.1191567E-04   2.7225068E+05   -1.8026531E+00
   2.1289432E-04   2.6999916E+05   -1.8021024E+00
   2.1387749E-04   2.6776694E+05   -1.8015512E+00
   2.1486520E-04   2.6555385E+05   -1.8009994E+00
   2.1585747E-04   2.6335972E+05   -1.8004471E+00
   2.1685432E-04   2.6118439E+05   -1.7998943E+00
   2.1785578E-04   2.5902768E+05   -1.7993410E+00
   2.1886186E-04   2.5688944E+05   -1.7987872E+00
   2.1987259E-04   2.5476949E+05   -1.7982329E+00
   2.2088798E-04   2.5266769E+05   -1.7976782E+00
   2.2190807E-04   2.5058387E+05   -1.7971229E+00
   2.2293286E-04   2.4851787E+05   -1.7965671E+00
   2.2396239E-04   2.4646954E+05   -1.7960109E+00
   2.2499667E-04   2.4443872E+05   -1.7954541E+00
   2.2603573E-04   2.4242525E+05   -1.7948970E+00
   2.2707958E-04   2.4042898E+05   -1.7943393E+00
   2.2812826E-04   2.3844977E+05   -1.7937812E+00
   2.2918178E-04   2.3648745E+05   -1.7932227E+00
   2.3024017E-04   2.3454189E+05   -1.7926637E+00
   2.3130344E-04   2.3261293E+05   -1.7921042E+00
   2.3237162E-04   2.3070044E+05   -1.7915444E+00
   2.3344474E-04   2.2880425E+05   -1.7909841E+00
   2.3452281E-04   2.2692424E+05   -1.7904233E+00
   2.3560586E-04   2.2506026E+05   -1.7898622E+00
   2.3669392E-04   2.2321217E+05   -1.7893006E+00
   2.3778699E-04   2.2137982E+05   -1.7887387E+00
   2.3888512E-04   2.1956309E+05   -1.7881763E+00
   2.3998831E-04   2.1776183E+05   -1.7876136E+00
   2.4109661E-04   2.1597591E+05   -1.7870504E+00
   2.4221001E-04   2.1420518E+05   -1.7864869E+00
   2.4332857E-04   2.1244953E+05   -1.7859230E+00
   2.4445228E-04   2.1070882E+05   -1.7853587E+00
   2.4558119E-04   2.0898291E+05   -1.7847940E+00
   2.4671531E-04   2.0727168E+05   -1.7842290E+00
   2.4785467E-04   2.0557499E+05   -1.7836636E+00
   2.4899928E-04   2.0389273E+05   -1.7830979E+00
   2.5014919E-04   2.0222476E+05   -1.7825318E+00
   2.5130440E-04   2.0057096E+05   -1.7819654E+00
   2.5246495E-04   1.9893120E+05   -1.7813986E+00
   2.5363086E-04   1.9730536E+05   -1.7808316E+00
   2.5480216E-04   1.9569333E+05   -1.7802642E+00
   2.5597886E-04   1.9409497E+05   -1.7796964E+00
   2.5716100E-04   1.9251017E+05   -1.7791284E+00
   2.5834859E-04   1.9093880E+05   -1.7785601E+00
   2.5954168E-04   1.8938077E+05   -1.7779915E+00
   2.6074027E-04   1.8783593E+05   -1.7774225E+00
   2.6194439E-04   1.8630419E+05   -1.7768533E+00
   2.6315408E-04   1.8478542E+05   -1.7762838E+00
   2.6436935E-04   1.8327952E+05   -1.7757140E+00
   2.6559024E-04   1.8178636E+05   -1.7751440E+00
   2.6681676E-04   1.8030584E+05   -1.7745737E+00
   2.6804895E-04   1.7883786E+05   -1.7740031E+00
   2.6928683E-04   1.7738228E+05   -1.7734323E+00
   2.7053042E-04   1.7593902E+05   -1.7728612E+00
   2.7177976E-04   1.7450796E+05   -1.7722899E+00
   2.7303487E-04   1.7308900E+05   -1.7717184E+00
   2.7429577E-04   1.7168203E+05   -1.7711466E+00
   2.7556250E-04   1.7028694E+05   -1.7705746E+00
   2.7683507E-04   1.6890363E+05   -1.7700024E+00
   2.7811353E-04   1.6753201E+05   -1.7694300E+00
   2.7939788E-04   1.6617196E+05   -1.7688573E+00
   2.8068817E-04   1.6482338E+05   -1.7682845E+00
   2.8198442E-04   1.6348618E+05   -1.7677115E+00
   2.8328665E-04   1.6216026E+05   -1.7671383E+00
   2.8459490E-04   1.6084552E+05   -1.7665649E+00
   2.8590919E-04   1.5954186E+05   -1.7659913E+00
   2.8722955E-04   1.5824918E+05   -1.7654176E+00
   2.8855600E-04   1.5696739E+05   -1.7648437E+00
   2.8988859E-04   1.5569640E+05   -1.7642696E+00
   2.9122732E-04   1.5443610E+05   -1.7636954E+00
   2.9257224E-04   1.5318641E+05   -1.7631210E+00
   2.9392337E-04   1.5194724E+05   -1.7625465E+00
   2.9528074E-04   1.5071849E+05   -1.7619719E+00
   2.9664438E-04   1.4950007E+05   -1.7613971E+00
   2.9801431E-04   1.4829190E+05   -1.7608223E+00
   2.9939057E-04   1.4709388E+05   -1.7602473E+00
   3.0077319E-04   1.4590592E+05   -1.7596722E+00
   3.0216219E-04   1.4472794E+05   -1.7590969E+00
   3.0355761E-04   1.4355985E+05   -1.7585216E+00
   3.0495947E-04   1.4240157E+05   -1.7579463E+00
   3.0636780E-04   1.4125301E+05   -1.7573708E+00
   3.0778264E-04   1.4011408E+05   -1.7567952E+00
   3.0920401E-04   1.3898470E+05   -1.7562196E+00
   3.1063195E-04   1.3786480E+05   -1.7556439E+00
   3.1206648E-04   1.3675428E+05   -1.7550681E+00
   3.1350764E-04   1.3565306E+05   -1.7544923E+00
   3.1495545E-04   1.3456107E+05   -1.7539165E+00
   3.1640994E-04   1.3347823E+05   -1.7533405E+00
   3.1787116E-04   1.3240445E+05   -1.7527646E+00
   3.1933912E-04   1.3133965E+05   -1.7521886E+00
   3.2081386E-04   1.3028377E+05   -1.7516126E+00
   3.2229541E-04   1.2923671E+05   -1.7510366E+00
   3.2378381E-04   1.2819842E+05   -1.7504606E+00
   3.2527908E-04   1.2716880E+05   -1.7498846E+00
   3.2678125E-04   1.2614778E+05   -1.7493086E+00
   3.2829036E-04   1.2513530E+05   -1.7487325E+00
   3.2980644E-04   1.2413127E+05   -1.7481565E+00
   3.3132952E-04   1.2313562E+05   -1.7475805E+00
   3.3285963E-04   1.2214828E+05   -1.7470046E+00
   3.3439681E-04   1.2116919E+05   -1.7464286E+00
   3.3594109E-04   1.2019825E+05   -1.7458527E+00
   3.3749250E-04   1.1923542E+05   -1.7452769E+00
   3.3905108E-04   1.1828061E+05   -1.7447011E+00
   3.4061685E-04   1.1733376E+05   -1.7441253E+00
   3.4218986E-04   1.1639480E+05   -1.7435497E+00
   3.4377013E-04   1.1546366E+05   -1.7429740E+00
   3.4535769E-04   1.1454027E+05   -1.7423985E+00
   3.4695259E-04   1.1362456E+05   -1.7418230E+00
   3.4855485E-04   1.1271648E+05   -1.7412477E+00
   3.5016452E-04   1.1181595E+05   -1.7406724E+00
   3.5178161E-04   1.1092291E+05   -1.7400972E+00
   3.5340618E-04   1.1003729E+05   -1.7395221E+00
   3.5503824E-04   1.0915903E+05   -1.7389471E+00
   3.5667785E-04   1.0828807E+05   -1.7383723E+00
   3.5832502E-04   1.0742434E+05   -1.7377975E+00
   3.5997981E-04   1.0656779E+05   -1.7372229E+00
   3.6164223E-04   1.0571834E+05   -1.7366484E+00
   3.6331233E-04   1.0487594E+05   -1.7360741E+00
   3.6499015E-04   1.0404053E+05   -1.7354999E+00
   3.6667571E-04   1.0321205E+05   -1.7349259E+00
   3.6836906E-04   1.0239043E+05   -1.7343520E+00
   3.7007022E-04   1.0157563E+05   -1.7337783E+00
   3.7177925E-04   1.0076757E+05   -1.7332048E+00
   3.7349616E-04   9.9966212E+04   -1.7326314E+00
   3.7522101E-04   9.9171484E+04   -1.7320582E+00
   3.7695382E-04   9.8383334E+04   -1.7314853E+00
   3.7869463E-04   9.7601705E+04   -1.7309125E+00
   3.8044348E-04   9.6826542E+04   -1.7303399E+00
   3.8220041E-04   9.6057789E+04   -1.7297675E+00
   3.8396545E-04   9.5295390E+04   -1.7291953E+00
   3.8573864E-04   9.4539292E+04   -1.7286233E+00
   3.8752002E-04   9.3789439E+04   -1.7280516E+00
   3.8930963E-04   9.3045780E+04   -1.7274801E+00
   3.9110750E-04   9.2308259E+04   -1.7269088E+00
   3.9291368E-04   9.1576826E+04   -1.7263378E+00
   3.9472820E-04   9.0851428E+04   -1.7257670E+00
   3.9655109E-04   9.0132012E+04   -1.7251965E+00
   3.9838241E-04   8.9418528E+04   -1.7246263E+00
   4.0022218E-04   8.8710925E+04   -1.7240563E+00
   4.0207045E-04   8.8009153E+04   -1.7234865E+00
   4.0392725E-04   8.7313162E+04   -1.7229171E+00
   4.0579263E-04   8.6622901E+04   -1.7223479E+00
   4.0766662E-04   8.5938323E+04   -1.7217791E+00
   4.0954927E-04   8.5259379E+04   -1.7212105E+00
   4.1144061E-04   8.4586020E+04   -1.7206422E+00
   4.1334068E-04   8.3918199E+04   -1.7200742E+00
   4.1524953E-04   8.3255868E+04   -1.7195066E+00
   4.1716720E-04   8.2598980E+04   -1.7189392E+00
   4.1909372E-04   8.1947490E+04   -1.7183722E+00
   4.2102914E-04   8.1301350E+04   -1.7178055E+00
   4.2297350E-04   8.0660516E+04   -1.7172392E+00
   4.2492683E-04   8.0024941E+04   -1.7166732E+00
   4.2688919E-04   7.9394582E+04   -1.7161075E+00
   4.2886061E-04   7.8769393E+04   -1.7155422E+00
   4.3084113E-04   7.8149331E+04   -1.7149772E+00
   4.3283080E-04   7.7534352E+04   -1.7144126E+00
   4.3482966E-04   7.6924412E+04   -1.7138484E+00
   4.3683775E-04   7.6319469E+04   -1.7132846E+00
   4.3885511E-04   7.5719479E+04   -1.7127211E+00
   4.4088179E-04   7.5124402E+04   -1.7121580E+00
   4.4291783E-04   7.4534194E+04   -1.7115953E+00
   4.4496327E-04   7.3948815E+04   -1.7110330E+00
   4.4701816E-04   7.3368223E+04   -1.7104712E+00
   4.4908253E-04   7.2792379E+04   -1.7099097E+00
   4.5115644E-04   7.2221240E+04   -1.7093486E+00
   4.5323993E-04   7.1654768E+04   -1.7087880E+00
   4.5533304E-04   7.1092923E+04   -1.7082277E+00
   4.5743582E-04   7.0535665E+04   -1.7076679E+00
   4.5954830E-04   6.9982956E+04   -1.7071086E+00
   4.6167054E-04   6.9434757E+04   -1.7065497E+00
   4.6380259E-04   6.8891029E+04   -1.7059912E+00
   4.6594448E-04   6.8351734E+04   -1.7054332E+00
   4.6809626E-04   6.7816836E+04   -1.7048756E+00
   4.7025797E-04   6.7286296E+04   -1.7043185E+00
   4.7242967E-04   6.6760079E+04   -1.7037619E+00
   4.7461140E-04   6.6238146E+04   -1.7032057E+00
   4.7680321E-04   6.5720462E+04   -1.7026501E+00
   4.7900514E-04   6.5206991E+04   -1.7020949E+00
   4.8121723E-04   6.4697697E+04   -1.7015402E+00
   4.8343954E-04   6.4192545E+04   -1.7009859E+00
   4.8567212E-04   6.3691500E+04   -1.7004322E+00
   4.8791500E-04   6.3194526E+04   -1.6998790E+00
   4.9016825E-04   6.2701590E+04   -1.6993263E+00
   4.9243189E-04   6.2212658E+04   -1.6987741E+00
   4.9470600E-04   6.1727695E+04   -1.6982225E+00
   4.9699060E-04   6.1246668E+04   -1.6976713E+00
   4.9928575E-04   6.0769544E+04   -1.6971207E+00
   5.0159151E-04   6.0296290E+04   -1.6965706E+00
   5.0390791E-04   5.9826872E+04   -1.6960211E+00
   5.0623501E-04   5.9361260E+04   -1.6954721E+00
   5.0857286E-04   5.8899420E+04   -1.6949237E+00
   5.1092150E-04   5.8441321E+04   -1.6943758E+00
   5.1328099E-04   5.7986931E+04   -1.6938285E+00
   5.1565137E-04   5.7536219E+04   -1.6932817E+00
   5.1803270E-04   5.7089154E+04   -1.6927355E+00
   5.2042503E-04   5.6645706E+04   -1.6921899E+00
   5.2282841E-04   5.6205843E+04   -1.6916449E+00
   5.2524289E-04   5.5769535E+04   -1.6911004E+00
   5.2766851E-04   5.5336754E+04   -1.6905566E+00
   5.3010534E-04   5.4907468E+04   -1.6900133E+00
   5.3255342E-04   5.4481649E+04   -1.6894707E+00
   5.3501281E-04   5.4059267E+04   -1.6889286E+00
   5.3748356E-04   5.3640294E+04   -1.6883871E+00
   5.3996571E-04   5.3224700E+04   -1.6878463E+00
   5.4245933E-04   5.2812458E+04   -1.6873061E+00
   5.4496446E-04   5.2403540E+04   -1.6867665E+00
   5.4748117E-04   5.1997917E+04   -1.6862275E+00
   5.5000949E-04   5.1595561E+04   -1.6856892E+00
   5.5254949E-04   5.1196446E+04   -1.6851515E+00
   5.5510123E-04   5.0800544E+04   -1.6846144E+00
   5.5766474E-04   5.0407828E+04   -1.6840780E+00
   5.6024010E-04   5.0018272E+04   -1.6835422E+00
   5.6282734E-04   4.9631848E+04   -1.6830071E+00
   5.6542654E-04   4.9248531E+04   -1.6824727E+00
   5.6803774E-04   4.8868295E+04   -1.6819389E+00
   5.7066099E-04   4.8491114E+04   -1.6814057E+00
   5.7329637E-04   4.8116962E+04   -1.6808733E+00
   5.7594391E-04   4.7745814E+04   -1.6803415E+00
   5.7860368E-04   4.7377645E+04   -1.6798104E+00
   5.8127573E-04   4.7012430E+04   -1.6792800E+00
   5.8396012E-04   4.6650144E+04   -1.6787503E+00
   5.8665691E-04   4.6290763E+04   -1.6782213E+00
   5.8936616E-04   4.5934263E+04   -1.6776930E+00
   5.9208791E-04   4.5580618E+04   -1.6771653E+00
   5.9482223E-04   4.5229807E+04   -1.6766384E+00
   5.9756919E-04   4.4881804E+04   -1.6761122E+00
   6.0032882E-04   4.4536587E+04   -1.6755867E+00
   6.0310120E-04   4.4194131E+04   -1.6750619E+00
   6.0588639E-04   4.3854416E+04   -1.6745379E+00
   6.0868443E-04   4.3517416E+04   -1.6740146E+00
   6.1149540E-04   4.3183110E+04   -1.6734920E+00
   6.1431935E-04   4.2851476E+04   -1.6729701E+00
   6.1715634E-04   4.2522490E+04   -1.6724490E+00
   6.2000644E-04   4.2196132E+04   -1.6719286E+00
   6.2286969E-04   4.1872379E+04   -1.6714090E+00
