#        a       HoverH0(a)       dlogHdloga_of_a(a)
   1.0000000E-04   1.0506818E+06   -1.8602493E+00
   1.0046181E-04   1.0417159E+06   -1.8597849E+00
   1.0092575E-04   1.0328288E+06   -1.8593196E+00
   1.0139184E-04   1.0240197E+06   -1.8588533E+00
   1.0186008E-04   1.0152879E+06   -1.8583860E+00
   1.0233048E-04   1.0066327E+06   -1.8579179E+00
   1.0280305E-04   9.9805350E+05   -1.8574488E+00
   1.0327781E-04   9.8954953E+05   -1.8569788E+00
   1.0375475E-04   9.8112014E+05   -1.8565078E+00
   1.0423390E-04   9.7276467E+05   -1.8560359E+00
   1.0471527E-04   9.6448246E+05   -1.8555631E+00
   1.0519885E-04   9.5627285E+05   -1.8550894E+00
   1.0568467E-04   9.4813518E+05   -1.8546148E+00
   1.0617274E-04   9.4006883E+05   -1.8541392E+00
   1.0666305E-04   9.3207315E+05   -1.8536627E+00
   1.0715563E-04   9.2414750E+05   -1.8531854E+00
   1.0765049E-04   9.1629127E+05   -1.8527071E+00
   1.0814763E-04   9.0850383E+05   -1.8522279E+00
   1.0864707E-04   9.0078456E+05   -1.8517478E+00
   1.0914881E-04   8.9313285E+05   -1.8512668E+00
   1.0965287E-04   8.8554811E+05   -1.8507849E+00
   1.1015926E-04   8.7802973E+05   -1.8503021E+00
   1.1066799E-04   8.7057712E+05   -1.8498184E+00
   1.1117906E-04   8.6318970E+05   -1.8493338E+00
   1.1169250E-04   8.5586687E+05   -1.8488484E+00
   1.1220831E-04   8.4860807E+05   -1.8483620E+00
   1.1272650E-04   8.4141271E+05   -1.8478748E+00
   1.1324708E-04   8.3428024E+05   -1.8473866E+00
   1.1377007E-04   8.2721010E+05   -1.8468977E+00
   1.1429547E-04   8.2020172E+05   -1.8464078E+00
   1.1482330E-04   8.1325455E+05   -1.8459171E+00
   1.1535356E-04   8.0636805E+05   -1.8454254E+00
   1.1588628E-04   7.9954168E+05   -1.8449330E+00
   1.1642145E-04   7.9277490E+05   -1.8444396E+00
   1.1695910E-04   7.8606717E+05   -1.8439454E+00
   1.1749923E-04   7.7941798E+05   -1.8434504E+00
   1.1804185E-04   7.7282679E+05   -1.8429545E+00
   1.1858698E-04   7.6629310E+05   -1.8424577E+00
   1.1913463E-04   7.5981638E+05   -1.8419601E+00
   1.1968481E-04   7.5339613E+05   -1.8414617E+00
   1.2023752E-04   7.4703185E+05   -1.8409624E+00
   1.2079279E-04   7.4072304E+05   -1.8404623E+00
   1.2135063E-04   7.3446920E+05   -1.8399613E+00
   1.2191104E-04   7.2826985E+05   -1.8394595E+00
   1.2247403E-04   7.2212449E+05   -1.8389569E+00
   1.2303963E-04   7.1603265E+05   -1.8384535E+00
   1.2360784E-04   7.0999384E+05   -1.8379492E+00
   1.2417868E-04   7.0400760E+05   -1.8374441E+00
   1.2475215E-04   6.9807346E+05   -1.8369382E+00
   1.2532826E-04   6.9219096E+05   -1.8364315E+00
   1.2590704E-04   6.8635963E+05   -1.8359240E+00
   1.2648850E-04   6.8057901E+05   -1.8354157E+00
   1.2707263E-04   6.7484866E+05   -1.8349066E+00
   1.2765947E-04   6.6916814E+05   -1.8343966E+00
   1.2824901E-04   6.6353699E+05   -1.8338859E+00
   1.2884128E-04   6.5795477E+05   -1.8333744E+00
   1.2943628E-04   6.5242106E+05   -1.8328621E+00
   1.3003403E-04   6.4693542E+05   -1.8323490E+00
   1.3063454E-04   6.4149741E+05   -1.8318352E+00
   1.3123783E-04   6.3610663E+05   -1.8313206E+00
   1.3184390E-04   6.3076264E+05   -1.8308052E+00
   1.3245277E-04   6.2546504E+05   -1.8302890E+00
   1.3306445E-04   6.2021340E+05   -1.8297721E+00
   1.3367895E-04   6.1500733E+05   -1.8292544E+00
   1.3429630E-04   6.0984641E+05   -1.8287359E+00
   1.3491649E-04   6.0473024E+05   -1.8282167E+00
   1.3553955E-04   5.9965843E+05   -1.8276968E+00
   1.3616548E-04   5.9463058E+05   -1.8271761E+00
   1.3679431E-04   5.8964631E+05   -1.8266546E+00
   1.3742604E-04   5.8470522E+05   -1.8261324E+00
   1.3806069E-04   5.7980693E+05   -1.8256095E+00
   1.3869827E-04   5.7495106E+05   -1.8250859E+00
   1.3933879E-04   5.7013724E+05   -1.8245615E+00
   1.3998227E-04   5.6536508E+05   -1.8240364E+00
   1.4062872E-04   5.6063423E+05   -1.8235106E+00
   1.4127816E-04   5.5594431E+05   -1.8229841E+00
   1.4193060E-04   5.5129497E+05   -1.8224569E+00
   1.4258605E-04   5.4668583E+05   -1.8219290E+00
   1.4324453E-04   5.4211655E+05   -1.8214003E+00
   1.4390605E-04   5.3758677E+05   -1.8208710E+00
   1.4457062E-04   5.3309614E+05   -1.8203410E+00
   1.4523826E-04   5.2864432E+05   -1.8198103E+00
   1.4590899E-04   5.2423095E+05   -1.8192789E+00
   1.4658281E-04   5.1985570E+05   -1.8187468E+00
   1.4725974E-04   5.1551824E+05   -1.8182141E+00
   1.4793981E-04   5.1121821E+05   -1.8176806E+00
   1.4862301E-04   5.0695531E+05   -1.8171466E+00
   1.4930936E-04   5.0272918E+05   -1.8166118E+00
   1.4999889E-04   4.9853952E+05   -1.8160764E+00
   1.5069160E-04   4.9438599E+05   -1.8155404E+00
   1.5138751E-04   4.9026828E+05   -1.8150037E+00
   1.5208663E-04   4.8618607E+05   -1.8144663E+00
   1.5278899E-04   4.8213904E+05   -1.8139283E+00
   1.5349458E-04   4.7812689E+05   -1.8133897E+00
   1.5420343E-04   4.7414930E+05   -1.8128505E+00
   1.5491556E-04   4.7020597E+05   -1.8123106E+00
   1.5563098E-04   4.6629660E+05   -1.8117701E+00
   1.5634970E-04   4.6242088E+05   -1.8112290E+00
   1.5707174E-04   4.5857852E+05   -1.8106873E+00
   1.5779711E-04   4.5476922E+05   -1.8101450E+00
   1.5852584E-04   4.5099269E+05   -1.8096020E+00
   1.5925792E-04   4.4724865E+05   -1.8090585E+00
   1.5999339E-04   4.4353679E+05   -1.8085144E+00
   1.6073226E-04   4.3985685E+05   -1.8079697E+00
   1.6147454E-04   4.3620853E+05   -1.8074244E+00
   1.6222024E-04   4.3259156E+05   -1.8068785E+00
   1.6296939E-04   4.2900566E+05   -1.8063321E+00
   1.6372200E-04   4.2545056E+05   -1.8057851E+00
   1.6447809E-04   4.2192599E+05   -1.8052375E+00
   1.6523767E-04   4.1843166E+05   -1.8046894E+00
   1.6600075E-04   4.1496733E+05   -1.8041407E+00
   1.6676736E-04   4.1153272E+05   -1.8035915E+00
   1.6753751E-04   4.0812757E+05   -1.8030417E+00
   1.6831122E-04   4.0475162E+05   -1.8024914E+00
   1.6908849E-04   4.0140461E+05   -1.8019406E+00
   1.6986936E-04   3.9808630E+05   -1.8013892E+00
   1.7065384E-04   3.9479641E+05   -1.8008373E+00
   1.7144193E-04   3.9153471E+05   -1.8002849E+00
   1.7223367E-04   3.8830095E+05   -1.7997320E+00
   1.7302906E-04   3.8509488E+05   -1.7991786E+00
   1.7382813E-04   3.8191625E+05   -1.7986246E+00
   1.7463089E-04   3.7876483E+05   -1.7980702E+00
   1.7543735E-04   3.7564037E+05   -1.7975153E+00
   1.7624754E-04   3.7254264E+05   -1.7969599E+00
   1.7706147E-04   3.6947140E+05   -1.7964040E+00
   1.7787916E-04   3.6642642E+05   -1.7958476E+00
   1.7870062E-04   3.6340747E+05   -1.7952908E+00
   1.7952588E-04   3.6041431E+05   -1.7947335E+00
   1.8035495E-04   3.5744672E+05   -1.7941757E+00
   1.8118785E-04   3.5450448E+05   -1.7936175E+00
   1.8202459E-04   3.5158737E+05   -1.7930589E+00
   1.8286520E-04   3.4869515E+05   -1.7924998E+00
   1.8370969E-04   3.4582762E+05   -1.7919402E+00
   1.8455808E-04   3.4298455E+05   -1.7913802E+00
   1.8541039E-04   3.4016574E+05   -1.7908198E+00
   1.8626663E-04   3.3737096E+05   -1.7902590E+00
   1.8712683E-04   3.3460001E+05   -1.7896978E+00
   1.8799100E-04   3.3185268E+05   -1.7891361E+00
   1.8885917E-04   3.2912876E+05   -1.7885741E+00
   1.8973134E-04   3.2642804E+05   -1.7880116E+00
   1.9060754E-04   3.2375032E+05   -1.7874488E+00
   1.9148778E-04   3.2109540E+05   -1.7868855E+00
   1.9237209E-04   3.1846308E+05   -1.7863219E+00
   1.9326049E-04   3.1585316E+05   -1.7857579E+00
   1.9415299E-04   3.1326544E+05   -1.7851935E+00
   1.9504960E-04   3.1069973E+05   -1.7846288E+00
   1.9595036E-04   3.0815584E+05   -1.7840637E+00
   1.9685528E-04   3.0563357E+05   -1.7834982E+00
   1.9776438E-04   3.0313273E+05   -1.7829324E+00
   1.9867768E-04   3.0065315E+05   -1.7823662E+00
   1.9959519E-04   2.9819462E+05   -1.7817998E+00
   2.0051694E-04   2.9575697E+05   -1.7812329E+00
   2.0144295E-04   2.9334002E+05   -1.7806658E+00
   2.0237324E-04   2.9094357E+05   -1.7800983E+00
   2.0330782E-04   2.8856746E+05   -1.7795305E+00
   2.0424671E-04   2.8621150E+05   -1.7789624E+00
   2.0518995E-04   2.8387552E+05   -1.7783940E+00
   2.0613754E-04   2.8155934E+05   -1.7778253E+00
   2.0708950E-04   2.7926280E+05   -1.7772564E+00
   2.0804586E-04   2.7698571E+05   -1.7766871E+00
   2.0900664E-04   2.7472791E+05   -1.7761175E+00
   2.0997185E-04   2.7248923E+05   -1.7755477E+00
   2.1094152E-04   2.7026950E+05   -1.7749776E+00
   2.1191567E-04   2.6806856E+05   -1.7744073E+00
   2.1289432E-04   2.6588624E+05   -1.7738366E+00
   2.1387749E-04   2.6372238E+05   -1.7732658E+00
   2.1486520E-04   2.6157682E+05   -1.7726947E+00
   2.1585747E-04   2.5944939E+05   -1.7721233E+00
   2.1685432E-04   2.5733995E+05   -1.7715517E+00
   2.1785578E-04   2.5524833E+05   -1.7709799E+00
   2.1886186E-04   2.5317438E+05   -1.7704079E+00
   2.1987259E-04   2.5111794E+05   -1.7698356E+00
   2.2088798E-04   2.4907886E+05   -1.7692632E+00
   2.2190807E-04   2.4705699E+05   -1.7686905E+00
   2.2293286E-04   2.4505218E+05   -1.7681176E+00
   2.2396239E-04   2.4306428E+05   -1.7675446E+00
   2.2499667E-04   2.4109314E+05   -1.7669713E+00
   2.2603573E-04   2.3913862E+05   -1.7663979E+00
   2.2707958E-04   2.3720057E+05   -1.7658243E+00
   2.2812826E-04   2.3527885E+05   -1.7652506E+00
   2.2918178E-04   2.3337331E+05   -1.7646767E+00
   2.3024017E-04   2.3148382E+05   -1.7641026E+00
   2.3130344E-04   2.2961024E+05   -1.7635284E+00
   2.3237162E-04   2.2775242E+05   -1.7629540E+00
   2.3344474E-04   2.2591023E+05   -1.7623795E+00
   2.3452281E-04   2.2408354E+05   -1.7618048E+00
   2.3560586E-04   2.2227221E+05   -1.7612301E+00
   2.3669392E-04   2.2047610E+05   -1.7606552E+00
   2.3778699E-04   2.1869508E+05   -1.7600802E+00
   2.3888512E-04   2.1692903E+05   -1.7595051E+00
   2.3998831E-04   2.1517781E+05   -1.7589299E+00
   2.4109661E-04   2.1344129E+05   -1.7583546E+00
   2.4221001E-04   2.1171934E+05   -1.7577792E+00
   2.4332857E-04   2.1001185E+05   -1.7572037E+00
   2.4445228E-04   2.0831868E+05   -1.7566282E+00
   2.4558119E-04   2.0663970E+05   -1.7560526E+00
   2.4671531E-04   2.0497481E+05   -1.7554769E+00
   2.4785467E-04   2.0332386E+05   -1.7549011E+00
   2.4899928E-04   2.0168675E+05   -1.7543253E+00
   2.5014919E-04   2.0006335E+05   -1.7537495E+00
   2.5130440E-04   1.9845355E+05   -1.7531736E+00
   2.5246495E-04   1.9685722E+05   -1.7525977E+00
   2.5363086E-04   1.9527424E+05   -1.7520218E+00
   2.5480216E-04   1.9370452E+05   -1.7514458E+00
   2.5597886E-04   1.9214792E+05   -1.7508698E+00
   2.5716100E-04   1.9060433E+05   -1.7502938E+00
   2.5834859E-04   1.8907365E+05   -1.7497178E+00
   2.5954168E-04   1.8755575E+05   -1.7491418E+00
   2.6074027E-04   1.8605054E+05   -1.7485659E+00
   2.6194439E-04   1.8455789E+05   -1.7479899E+00
   2.6315408E-04   1.8307771E+05   -1.7474140E+00
   2.6436935E-04   1.8160988E+05   -1.7468380E+00
   2.6559024E-04   1.8015430E+05   -1.7462621E+00
   2.6681676E-04   1.7871085E+05   -1.7456863E+00
   2.6804895E-04   1.7727945E+05   -1.7451105E+00
   2.6928683E-04   1.7585997E+05   -1.7445347E+00
   2.7053042E-04   1.7445232E+05   -1.7439591E+00
   2.7177976E-04   1.7305640E+05   -1.7433834E+00
   2.7303487E-04   1.7167211E+05   -1.7428079E+00
   2.7429577E-04   1.7029934E+05   -1.7422324E+00
   2.7556250E-04   1.6893799E+05   -1.7416570E+00
   2.7683507E-04   1.6758797E+05   -1.7410817E+00
   2.7811353E-04   1.6624918E+05   -1.7405064E+00
   2.7939788E-04   1.6492152E+05   -1.7399313E+00
   2.8068817E-04   1.6360490E+05   -1.7393563E+00
   2.8198442E-04   1.6229922E+05   -1.7387814E+00
   2.8328665E-04   1.6100438E+05   -1.7382066E+00
   2.8459490E-04   1.5972030E+05   -1.7376320E+00
   2.8590919E-04   1.5844688E+05   -1.7370574E+00
   2.8722955E-04   1.5718403E+05   -1.7364831E+00
   2.8855600E-04   1.5593165E+05   -1.7359088E+00
   2.8988859E-04   1.5468967E+05   -1.7353347E+00
   2.9122732E-04   1.5345798E+05   -1.7347608E+00
   2.9257224E-04   1.5223650E+05   -1.7341870E+00
   2.9392337E-04   1.5102514E+05   -1.7336134E+00
   2.9528074E-04   1.4982382E+05   -1.7330399E+00
   2.9664438E-04   1.4863245E+05   -1.7324666E+00
   2.9801431E-04   1.4745094E+05   -1.7318936E+00
   2.9939057E-04   1.4627920E+05   -1.7313207E+00
   3.0077319E-04   1.4511717E+05   -1.7307480E+00
   3.0216219E-04   1.4396474E+05   -1.7301755E+00
   3.0355761E-04   1.4282184E+05   -1.7296032E+00
   3.0495947E-04   1.4168839E+05   -1.7290311E+00
   3.0636780E-04   1.4056430E+05   -1.7284593E+00
   3.0778264E-04   1.3944950E+05   -1.7278877E+00
   3.0920401E-04   1.3834391E+05   -1.7273163E+00
   3.1063195E-04   1.3724744E+05   -1.7267451E+00
   3.1206648E-04   1.3616002E+05   -1.7261742E+00
   3.1350764E-04   1.3508157E+05   -1.7256036E+00
   3.1495545E-04   1.3401201E+05   -1.7250332E+00
   3.1640994E-04   1.3295128E+05   -1.7244630E+00
   3.1787116E-04   1.3189928E+05   -1.7238932E+00
   3.1933912E-04   1.3085595E+05   -1.7233236E+00
   3.2081386E-04   1.2982122E+05   -1.7227542E+00
   3.2229541E-04   1.2879501E+05   -1.7221852E+00
   3.2378381E-04   1.2777724E+05   -1.7216165E+00
   3.2527908E-04   1.2676785E+05   -1.7210480E+00
   3.2678125E-04   1.2576676E+05   -1.7204799E+00
   3.2829036E-04   1.2477390E+05   -1.7199121E+00
   3.2980644E-04   1.2378920E+05   -1.7193445E+00
   3.3132952E-04   1.2281260E+05   -1.7187773E+00
   3.3285963E-04   1.2184402E+05   -1.7182105E+00
   3.3439681E-04   1.2088339E+05   -1.7176439E+00
   3.3594109E-04   1.1993066E+05   -1.7170777E+00
   3.3749250E-04   1.1898574E+05   -1.7165119E+00
   3.3905108E-04   1.1804857E+05   -1.7159463E+00
   3.4061685E-04   1.1711909E+05   -1.7153812E+00
   3.4218986E-04   1.1619723E+05   -1.7148164E+00
   3.4377013E-04   1.1528293E+05   -1.7142519E+00
   3.4535769E-04   1.1437611E+05   -1.7136879E+00
   3.4695259E-04   1.1347673E+05   -1.7131242E+00
   3.4855485E-04   1.1258471E+05   -1.7125609E+00
   3.5016452E-04   1.1169999E+05   -1.7119980E+00
   3.5178161E-04   1.1082251E+05   -1.7114355E+00
   3.5340618E-04   1.0995221E+05   -1.7108733E+00
   3.5503824E-04   1.0908903E+05   -1.7103116E+00
   3.5667785E-04   1.0823290E+05   -1.7097503E+00
   3.5832502E-04   1.0738377E+05   -1.7091894E+00
   3.5997981E-04   1.0654158E+05   -1.7086289E+00
   3.6164223E-04   1.0570626E+05   -1.7080689E+00
   3.6331233E-04   1.0487777E+05   -1.7075093E+00
   3.6499015E-04   1.0405603E+05   -1.7069501E+00
   3.6667571E-04   1.0324100E+05   -1.7063914E+00
   3.6836906E-04   1.0243262E+05   -1.7058331E+00
   3.7007022E-04   1.0163083E+05   -1.7052753E+00
   3.7177925E-04   1.0083557E+05   -1.7047179E+00
   3.7349616E-04   1.0004680E+05   -1.7041610E+00
   3.7522101E-04   9.9264444E+04   -1.7036045E+00
   3.7695382E-04   9.8488462E+04   -1.7030486E+00
   3.7869463E-04   9.7718797E+04   -1.7024931E+00
   3.8044348E-04   9.6955394E+04   -1.7019381E+00
   3.8220041E-04   9.6198202E+04   -1.7013836E+00
   3.8396545E-04   9.5447166E+04   -1.7008296E+00
   3.8573864E-04   9.4702236E+04   -1.7002761E+00
   3.8752002E-04   9.3963359E+04   -1.6997231E+00
   3.8930963E-04   9.3230484E+04   -1.6991706E+00
   3.9110750E-04   9.2503560E+04   -1.6986186E+00
   3.9291368E-04   9.1782538E+04   -1.6980672E+00
   3.9472820E-04   9.1067367E+04   -1.6975162E+00
   3.9655109E-04   9.0357998E+04   -1.6969658E+00
   3.9838241E-04   8.9654382E+04   -1.6964160E+00
   4.0022218E-04   8.8956470E+04   -1.6958667E+00
   4.0207045E-04   8.8264215E+04   -1.6953179E+00
   4.0392725E-04   8.7577567E+04   -1.6947697E+00
   4.0579263E-04   8.6896482E+04   -1.6942220E+00
   4.0766662E-04   8.6220910E+04   -1.6936749E+00
   4.0954927E-04   8.5550806E+04   -1.6931284E+00
   4.1144061E-04   8.4886123E+04   -1.6925824E+00
   4.1334068E-04   8.4226817E+04   -1.6920370E+00
   4.1524953E-04   8.3572841E+04   -1.6914922E+00
   4.1716720E-04   8.2924151E+04   -1.6909480E+00
   4.1909372E-04   8.2280702E+04   -1.6904044E+00
   4.2102914E-04   8.1642450E+04   -1.6898614E+00
   4.2297350E-04   8.1009352E+04   -1.6893190E+00
   4.2492683E-04   8.0381364E+04   -1.6887771E+00
   4.2688919E-04   7.9758444E+04   -1.6882359E+00
   4.2886061E-04   7.9140548E+04   -1.6876953E+00
   4.3084113E-04   7.8527634E+04   -1.6871554E+00
   4.3283080E-04   7.7919661E+04   -1.6866160E+00
   4.3482966E-04   7.7316587E+04   -1.6860773E+00
   4.3683775E-04   7.6718371E+04   -1.6855392E+00
   4.3885511E-04   7.6124972E+04   -1.6850017E+00
   4.4088179E-04   7.5536350E+04   -1.6844649E+00
   4.4291783E-04   7.4952464E+04   -1.6839288E+00
   4.4496327E-04   7.4373275E+04   -1.6833933E+00
   4.4701816E-04   7.3798744E+04   -1.6828584E+00
   4.4908253E-04   7.3228832E+04   -1.6823242E+00
   4.5115644E-04   7.2663499E+04   -1.6817907E+00
   4.5323993E-04   7.2102708E+04   -1.6812578E+00
   4.5533304E-04   7.1546421E+04   -1.6807256E+00
   4.5743582E-04   7.0994599E+04   -1.6801941E+00
   4.5954830E-04   7.0447206E+04   -1.6796633E+00
   4.6167054E-04   6.9904205E+04   -1.6791332E+00
   4.6380259E-04   6.9365558E+04   -1.6786037E+00
   4.6594448E-04   6.8831229E+04   -1.6780750E+00
   4.6809626E-04   6.8301183E+04   -1.6775469E+00
   4.7025797E-04   6.7775383E+04   -1.6770196E+00
   4.7242967E-04   6.7253794E+04   -1.6764929E+00
   4.7461140E-04   6.6736381E+04   -1.6759670E+00
   4.7680321E-04   6.6223109E+04   -1.6754418E+00
   4.7900514E-04   6.5713944E+04   -1.6749173E+00
   4.8121723E-04   6.5208850E+04   -1.6743935E+00
   4.8343954E-04   6.4707796E+04   -1.6738705E+00
   4.8567212E-04   6.4210746E+04   -1.6733482E+00
   4.8791500E-04   6.3717667E+04   -1.6728266E+00
   4.9016825E-04   6.3228526E+04   -1.6723058E+00
   4.9243189E-04   6.2743291E+04   -1.6717857E+00
   4.9470600E-04   6.2261929E+04   -1.6712664E+00
   4.9699060E-04   6.1784407E+04   -1.6707478E+00
   4.9928575E-04   6.1310695E+04   -1.6702300E+00
   5.0159151E-04   6.0840759E+04   -1.6697129E+00
   5.0390791E-04   6.0374569E+04   -1.6691966E+00
   5.0623501E-04   5.9912094E+04   -1.6686811E+00
   5.0857286E-04   5.9453302E+04   -1.6681663E+00
   5.1092150E-04   5.8998163E+04   -1.6676523E+00
   5.1328099E-04   5.8546648E+04   -1.6671391E+00
   5.1565137E-04   5.8098725E+04   -1.6666267E+00
   5.1803270E-04   5.7654365E+04   -1.6661150E+00
   5.2042503E-04   5.7213538E+04   -1.6656042E+00
   5.2282841E-04   5.6776216E+04   -1.6650941E+00
   5.2524289E-04   5.6342368E+04   -1.6645848E+00
   5.2766851E-04   5.5911967E+04   -1.6640764E+00
   5.3010534E-04   5.5484984E+04   -1.6635687E+00
   5.3255342E-04   5.5061389E+04   -1.6630619E+00
   5.3501281E-04   5.4641157E+04   -1.6625558E+00
   5.3748356E-04   5.4224258E+04   -1.6620506E+00
   5.3996571E-04   5.3810665E+04   -1.6615462E+00
   5.4245933E-04   5.3400350E+04   -1.6610426E+00
   5.4496446E-04   5.2993287E+04   -1.6605398E+00
   5.4748117E-04   5.2589449E+04   -1.6600379E+00
   5.5000949E-04   5.2188809E+04   -1.6595368E+00
   5.5254949E-04   5.1791341E+04   -1.6590365E+00
   5.5510123E-04   5.1397018E+04   -1.6585370E+00
   5.5766474E-04   5.1005815E+04   -1.6580384E+00
   5.6024010E-04   5.0617705E+04   -1.6575407E+00
   5.6282734E-04   5.0232664E+04   -1.6570438E+00
   5.6542654E-04   4.9850665E+04   -1.6565477E+00
   5.6803774E-04   4.9471685E+04   -1.6560525E+00
   5.7066099E-04   4.9095698E+04   -1.6555581E+00
   5.7329637E-04   4.8722678E+04   -1.6550647E+00
   5.7594391E-04   4.8352603E+04   -1.6545720E+00
   5.7860368E-04   4.7985448E+04   -1.6540803E+00
   5.8127573E-04   4.7621189E+04   -1.6535894E+00
   5.8396012E-04   4.7259801E+04   -1.6530993E+00
   5.8665691E-04   4.6901262E+04   -1.6526102E+00
   5.8936616E-04   4.6545547E+04   -1.6521219E+00
   5.9208791E-04   4.6192635E+04   -1.6516345E+00
   5.9482223E-04   4.5842501E+04   -1.6511480E+00
   5.9756919E-04   4.5495122E+04   -1.6506623E+00
   6.0032882E-04   4.5150477E+04   -1.6501776E+00
   6.0310120E-04   4.4808543E+04   -1.6496937E+00
   6.0588639E-04   4.4469298E+04   -1.6492108E+00
   6.0868443E-04   4.4132718E+04   -1.6487287E+00
   6.1149540E-04   4.3798784E+04   -1.6482475E+00
   6.1431935E-04   4.3467473E+04   -1.6477672E+00
   6.1715634E-04   4.3138763E+04   -1.6472879E+00
   6.2000644E-04   4.2812634E+04   -1.6468094E+00
   6.2286969E-04   4.2489063E+04   -1.6463318E+00
