#        a       HoverH0(a)       dlogHdloga_of_a(a)
   1.0000000E-04   1.0274066E+06   -1.8701486E+00
   1.0046181E-04   1.0185929E+06   -1.8697052E+00
   1.0092575E-04   1.0098568E+06   -1.8692608E+00
   1.0139184E-04   1.0011977E+06   -1.8688154E+00
   1.0186008E-04   9.9261494E+05   -1.8683690E+00
   1.0233048E-04   9.8410774E+05   -1.8679217E+00
   1.0280305E-04   9.7567546E+05   -1.8674734E+00
   1.0327781E-04   9.6731744E+05   -1.8670242E+00
   1.0375475E-04   9.5903300E+05   -1.8665739E+00
   1.0423390E-04   9.5082149E+05   -1.8661227E+00
   1.0471527E-04   9.4268224E+05   -1.8656705E+00
   1.0519885E-04   9.3461462E+05   -1.8652174E+00
   1.0568467E-04   9.2661798E+05   -1.8647633E+00
   1.0617274E-04   9.1869169E+05   -1.8643082E+00
   1.0666305E-04   9.1083510E+05   -1.8638522E+00
   1.0715563E-04   9.0304761E+05   -1.8633952E+00
   1.0765049E-04   8.9532859E+05   -1.8629373E+00
   1.0814763E-04   8.8767742E+05   -1.8624784E+00
   1.0864707E-04   8.8009350E+05   -1.8620186E+00
   1.0914881E-04   8.7257622E+05   -1.8615578E+00
   1.0965287E-04   8.6512499E+05   -1.8610960E+00
   1.1015926E-04   8.5773922E+05   -1.8606333E+00
   1.1066799E-04   8.5041831E+05   -1.8601697E+00
   1.1117906E-04   8.4316169E+05   -1.8597051E+00
   1.1169250E-04   8.3596879E+05   -1.8592396E+00
   1.1220831E-04   8.2883902E+05   -1.8587732E+00
   1.1272650E-04   8.2177183E+05   -1.8583058E+00
   1.1324708E-04   8.1476665E+05   -1.8578374E+00
   1.1377007E-04   8.0782294E+05   -1.8573682E+00
   1.1429547E-04   8.0094014E+05   -1.8568980E+00
   1.1482330E-04   7.9411770E+05   -1.8564269E+00
   1.1535356E-04   7.8735509E+05   -1.8559549E+00
   1.1588628E-04   7.8065176E+05   -1.8554819E+00
   1.1642145E-04   7.7400720E+05   -1.8550080E+00
   1.1695910E-04   7.6742086E+05   -1.8545332E+00
   1.1749923E-04   7.6089224E+05   -1.8540575E+00
   1.1804185E-04   7.5442082E+05   -1.8535809E+00
   1.1858698E-04   7.4800607E+05   -1.8531033E+00
   1.1913463E-04   7.4164751E+05   -1.8526249E+00
   1.1968481E-04   7.3534461E+05   -1.8521455E+00
   1.2023752E-04   7.2909690E+05   -1.8516653E+00
   1.2079279E-04   7.2290387E+05   -1.8511841E+00
   1.2135063E-04   7.1676504E+05   -1.8507021E+00
   1.2191104E-04   7.1067991E+05   -1.8502191E+00
   1.2247403E-04   7.0464802E+05   -1.8497353E+00
   1.2303963E-04   6.9866888E+05   -1.8492505E+00
   1.2360784E-04   6.9274203E+05   -1.8487649E+00
   1.2417868E-04   6.8686699E+05   -1.8482784E+00
   1.2475215E-04   6.8104330E+05   -1.8477910E+00
   1.2532826E-04   6.7527051E+05   -1.8473027E+00
   1.2590704E-04   6.6954815E+05   -1.8468136E+00
   1.2648850E-04   6.6387579E+05   -1.8463236E+00
   1.2707263E-04   6.5825297E+05   -1.8458327E+00
   1.2765947E-04   6.5267925E+05   -1.8453409E+00
   1.2824901E-04   6.4715420E+05   -1.8448483E+00
   1.2884128E-04   6.4167737E+05   -1.8443548E+00
   1.2943628E-04   6.3624834E+05   -1.8438605E+00
   1.3003403E-04   6.3086669E+05   -1.8433653E+00
   1.3063454E-04   6.2553198E+05   -1.8428692E+00
   1.3123783E-04   6.2024380E+05   -1.8423723E+00
   1.3184390E-04   6.1500174E+05   -1.8418745E+00
   1.3245277E-04   6.0980537E+05   -1.8413760E+00
   1.3306445E-04   6.0465431E+05   -1.8408765E+00
   1.3367895E-04   5.9954814E+05   -1.8403762E+00
   1.3429630E-04   5.9448646E+05   -1.8398751E+00
   1.3491649E-04   5.8946887E+05   -1.8393732E+00
   1.3553955E-04   5.8449499E+05   -1.8388704E+00
   1.3616548E-04   5.7956442E+05   -1.8383668E+00
   1.3679431E-04   5.7467678E+05   -1.8378624E+00
   1.3742604E-04   5.6983168E+05   -1.8373572E+00
   1.3806069E-04   5.6502875E+05   -1.8368512E+00
   1.3869827E-04   5.6026760E+05   -1.8363443E+00
   1.3933879E-04   5.5554788E+05   -1.8358367E+00
   1.3998227E-04   5.5086920E+05   -1.8353282E+00
   1.4062872E-04   5.4623121E+05   -1.8348189E+00
   1.4127816E-04   5.4163353E+05   -1.8343089E+00
   1.4193060E-04   5.3707582E+05   -1.8337980E+00
   1.4258605E-04   5.3255772E+05   -1.8332864E+00
   1.4324453E-04   5.2807887E+05   -1.8327739E+00
   1.4390605E-04   5.2363892E+05   -1.8322607E+00
   1.4457062E-04   5.1923753E+05   -1.8317467E+00
   1.4523826E-04   5.1487436E+05   -1.8312320E+00
   1.4590899E-04   5.1054907E+05   -1.8307164E+00
   1.4658281E-04   5.0626131E+05   -1.8302001E+00
   1.4725974E-04   5.0201076E+05   -1.8296830E+00
   1.4793981E-04   4.9779708E+05   -1.8291652E+00
   1.4862301E-04   4.9361995E+05   -1.8286466E+00
   1.4930936E-04   4.8947904E+05   -1.8281273E+00
   1.4999889E-04   4.8537403E+05   -1.8276072E+00
   1.5069160E-04   4.8130461E+05   -1.8270864E+00
   1.5138751E-04   4.7727044E+05   -1.8265648E+00
   1.5208663E-04   4.7327123E+05   -1.8260425E+00
   1.5278899E-04   4.6930666E+05   -1.8255195E+00
   1.5349458E-04   4.6537642E+05   -1.8249957E+00
   1.5420343E-04   4.6148021E+05   -1.8244712E+00
   1.5491556E-04   4.5761773E+05   -1.8239460E+00
   1.5563098E-04   4.5378867E+05   -1.8234200E+00
   1.5634970E-04   4.4999274E+05   -1.8228934E+00
   1.5707174E-04   4.4622966E+05   -1.8223660E+00
   1.5779711E-04   4.4249911E+05   -1.8218380E+00
   1.5852584E-04   4.3880082E+05   -1.8213092E+00
   1.5925792E-04   4.3513450E+05   -1.8207798E+00
   1.5999339E-04   4.3149987E+05   -1.8202496E+00
   1.6073226E-04   4.2789664E+05   -1.8197188E+00
   1.6147454E-04   4.2432454E+05   -1.8191873E+00
   1.6222024E-04   4.2078329E+05   -1.8186551E+00
   1.6296939E-04   4.1727262E+05   -1.8181222E+00
   1.6372200E-04   4.1379226E+05   -1.8175887E+00
   1.6447809E-04   4.1034194E+05   -1.8170545E+00
   1.6523767E-04   4.0692138E+05   -1.8165196E+00
   1.6600075E-04   4.0353034E+05   -1.8159841E+00
   1.6676736E-04   4.0016854E+05   -1.8154479E+00
   1.6753751E-04   3.9683573E+05   -1.8149111E+00
   1.6831122E-04   3.9353165E+05   -1.8143737E+00
   1.6908849E-04   3.9025605E+05   -1.8138356E+00
   1.6986936E-04   3.8700867E+05   -1.8132968E+00
   1.7065384E-04   3.8378927E+05   -1.8127575E+00
   1.7144193E-04   3.8059759E+05   -1.8122175E+00
   1.7223367E-04   3.7743340E+05   -1.8116769E+00
   1.7302906E-04   3.7429645E+05   -1.8111357E+00
   1.7382813E-04   3.7118649E+05   -1.8105938E+00
   1.7463089E-04   3.6810330E+05   -1.8100514E+00
   1.7543735E-04   3.6504663E+05   -1.8095084E+00
   1.7624754E-04   3.6201624E+05   -1.8089647E+00
   1.7706147E-04   3.5901191E+05   -1.8084205E+00
   1.7787916E-04   3.5603341E+05   -1.8078757E+00
   1.7870062E-04   3.5308051E+05   -1.8073303E+00
   1.7952588E-04   3.5015297E+05   -1.8067843E+00
   1.8035495E-04   3.4725059E+05   -1.8062378E+00
   1.8118785E-04   3.4437313E+05   -1.8056907E+00
   1.8202459E-04   3.4152037E+05   -1.8051430E+00
   1.8286520E-04   3.3869210E+05   -1.8045948E+00
   1.8370969E-04   3.3588810E+05   -1.8040460E+00
   1.8455808E-04   3.3310816E+05   -1.8034967E+00
   1.8541039E-04   3.3035207E+05   -1.8029468E+00
   1.8626663E-04   3.2761960E+05   -1.8023964E+00
   1.8712683E-04   3.2491057E+05   -1.8018455E+00
   1.8799100E-04   3.2222475E+05   -1.8012940E+00
   1.8885917E-04   3.1956195E+05   -1.8007420E+00
   1.8973134E-04   3.1692195E+05   -1.8001895E+00
   1.9060754E-04   3.1430457E+05   -1.7996365E+00
   1.9148778E-04   3.1170960E+05   -1.7990830E+00
   1.9237209E-04   3.0913684E+05   -1.7985289E+00
   1.9326049E-04   3.0658610E+05   -1.7979744E+00
   1.9415299E-04   3.0405718E+05   -1.7974194E+00
   1.9504960E-04   3.0154990E+05   -1.7968639E+00
   1.9595036E-04   2.9906406E+05   -1.7963079E+00
   1.9685528E-04   2.9659947E+05   -1.7957515E+00
   1.9776438E-04   2.9415594E+05   -1.7951946E+00
   1.9867768E-04   2.9173329E+05   -1.7946372E+00
   1.9959519E-04   2.8933134E+05   -1.7940793E+00
   2.0051694E-04   2.8694991E+05   -1.7935210E+00
   2.0144295E-04   2.8458880E+05   -1.7929623E+00
   2.0237324E-04   2.8224786E+05   -1.7924031E+00
   2.0330782E-04   2.7992688E+05   -1.7918435E+00
   2.0424671E-04   2.7762572E+05   -1.7912834E+00
   2.0518995E-04   2.7534417E+05   -1.7907229E+00
   2.0613754E-04   2.7308209E+05   -1.7901620E+00
   2.0708950E-04   2.7083929E+05   -1.7896007E+00
   2.0804586E-04   2.6861560E+05   -1.7890390E+00
   2.0900664E-04   2.6641086E+05   -1.7884768E+00
   2.0997185E-04   2.6422490E+05   -1.7879143E+00
   2.1094152E-04   2.6205756E+05   -1.7873514E+00
   2.1191567E-04   2.5990867E+05   -1.7867881E+00
   2.1289432E-04   2.5777807E+05   -1.7862244E+00
   2.1387749E-04   2.5566560E+05   -1.7856603E+00
   2.1486520E-04   2.5357110E+05   -1.7850958E+00
   2.1585747E-04   2.5149441E+05   -1.7845310E+00
   2.1685432E-04   2.4943538E+05   -1.7839658E+00
   2.1785578E-04   2.4739385E+05   -1.7834003E+00
   2.1886186E-04   2.4536967E+05   -1.7828344E+00
   2.1987259E-04   2.4336269E+05   -1.7822682E+00
   2.2088798E-04   2.4137276E+05   -1.7817017E+00
   2.2190807E-04   2.3939972E+05   -1.7811348E+00
   2.2293286E-04   2.3744342E+05   -1.7805676E+00
   2.2396239E-04   2.3550373E+05   -1.7800000E+00
   2.2499667E-04   2.3358050E+05   -1.7794322E+00
   2.2603573E-04   2.3167358E+05   -1.7788640E+00
   2.2707958E-04   2.2978283E+05   -1.7782956E+00
   2.2812826E-04   2.2790810E+05   -1.7777268E+00
   2.2918178E-04   2.2604927E+05   -1.7771578E+00
   2.3024017E-04   2.2420618E+05   -1.7765884E+00
   2.3130344E-04   2.2237870E+05   -1.7760188E+00
   2.3237162E-04   2.2056670E+05   -1.7754489E+00
   2.3344474E-04   2.1877004E+05   -1.7748788E+00
   2.3452281E-04   2.1698858E+05   -1.7743084E+00
   2.3560586E-04   2.1522220E+05   -1.7737377E+00
   2.3669392E-04   2.1347076E+05   -1.7731668E+00
   2.3778699E-04   2.1173412E+05   -1.7725956E+00
   2.3888512E-04   2.1001217E+05   -1.7720242E+00
   2.3998831E-04   2.0830477E+05   -1.7714526E+00
   2.4109661E-04   2.0661179E+05   -1.7708807E+00
   2.4221001E-04   2.0493312E+05   -1.7703086E+00
   2.4332857E-04   2.0326861E+05   -1.7697363E+00
   2.4445228E-04   2.0161816E+05   -1.7691638E+00
   2.4558119E-04   1.9998164E+05   -1.7685911E+00
   2.4671531E-04   1.9835893E+05   -1.7680182E+00
   2.4785467E-04   1.9674990E+05   -1.7674451E+00
   2.4899928E-04   1.9515444E+05   -1.7668718E+00
   2.5014919E-04   1.9357243E+05   -1.7662984E+00
   2.5130440E-04   1.9200375E+05   -1.7657248E+00
   2.5246495E-04   1.9044829E+05   -1.7651510E+00
   2.5363086E-04   1.8890592E+05   -1.7645770E+00
   2.5480216E-04   1.8737655E+05   -1.7640029E+00
   2.5597886E-04   1.8586004E+05   -1.7634286E+00
   2.5716100E-04   1.8435630E+05   -1.7628542E+00
   2.5834859E-04   1.8286521E+05   -1.7622797E+00
   2.5954168E-04   1.8138666E+05   -1.7617050E+00
   2.6074027E-04   1.7992054E+05   -1.7611302E+00
   2.6194439E-04   1.7846674E+05   -1.7605553E+00
   2.6315408E-04   1.7702516E+05   -1.7599803E+00
   2.6436935E-04   1.7559569E+05   -1.7594051E+00
   2.6559024E-04   1.7417822E+05   -1.7588299E+00
   2.6681676E-04   1.7277266E+05   -1.7582546E+00
   2.6804895E-04   1.7137889E+05   -1.7576792E+00
   2.6928683E-04   1.6999681E+05   -1.7571037E+00
   2.7053042E-04   1.6862633E+05   -1.7565281E+00
   2.7177976E-04   1.6726734E+05   -1.7559524E+00
   2.7303487E-04   1.6591974E+05   -1.7553767E+00
   2.7429577E-04   1.6458344E+05   -1.7548010E+00
   2.7556250E-04   1.6325833E+05   -1.7542252E+00
   2.7683507E-04   1.6194432E+05   -1.7536493E+00
   2.7811353E-04   1.6064131E+05   -1.7530734E+00
   2.7939788E-04   1.5934921E+05   -1.7524975E+00
   2.8068817E-04   1.5806792E+05   -1.7519215E+00
   2.8198442E-04   1.5679735E+05   -1.7513455E+00
   2.8328665E-04   1.5553741E+05   -1.7507695E+00
   2.8459490E-04   1.5428800E+05   -1.7501935E+00
   2.8590919E-04   1.5304903E+05   -1.7496175E+00
   2.8722955E-04   1.5182042E+05   -1.7490415E+00
   2.8855600E-04   1.5060206E+05   -1.7484655E+00
   2.8988859E-04   1.4939388E+05   -1.7478895E+00
   2.9122732E-04   1.4819579E+05   -1.7473136E+00
   2.9257224E-04   1.4700769E+05   -1.7467377E+00
   2.9392337E-04   1.4582951E+05   -1.7461618E+00
   2.9528074E-04   1.4466115E+05   -1.7455859E+00
   2.9664438E-04   1.4350254E+05   -1.7450101E+00
   2.9801431E-04   1.4235358E+05   -1.7444343E+00
   2.9939057E-04   1.4121420E+05   -1.7438586E+00
   3.0077319E-04   1.4008430E+05   -1.7432830E+00
   3.0216219E-04   1.3896382E+05   -1.7427075E+00
   3.0355761E-04   1.3785266E+05   -1.7421320E+00
   3.0495947E-04   1.3675075E+05   -1.7415566E+00
   3.0636780E-04   1.3565801E+05   -1.7409813E+00
   3.0778264E-04   1.3457436E+05   -1.7404060E+00
   3.0920401E-04   1.3349971E+05   -1.7398309E+00
   3.1063195E-04   1.3243400E+05   -1.7392559E+00
   3.1206648E-04   1.3137715E+05   -1.7386810E+00
   3.1350764E-04   1.3032907E+05   -1.7381062E+00
   3.1495545E-04   1.2928970E+05   -1.7375316E+00
   3.1640994E-04   1.2825896E+05   -1.7369571E+00
   3.1787116E-04   1.2723677E+05   -1.7363827E+00
   3.1933912E-04   1.2622306E+05   -1.7358085E+00
   3.2081386E-04   1.2521776E+05   -1.7352344E+00
   3.2229541E-04   1.2422079E+05   -1.7346604E+00
   3.2378381E-04   1.2323209E+05   -1.7340867E+00
   3.2527908E-04   1.2225158E+05   -1.7335131E+00
   3.2678125E-04   1.2127919E+05   -1.7329396E+00
   3.2829036E-04   1.2031485E+05   -1.7323664E+00
   3.2980644E-04   1.1935850E+05   -1.7317933E+00
   3.3132952E-04   1.1841006E+05   -1.7312204E+00
   3.3285963E-04   1.1746947E+05   -1.7306478E+00
   3.3439681E-04   1.1653666E+05   -1.7300753E+00
   3.3594109E-04   1.1561155E+05   -1.7295030E+00
   3.3749250E-04   1.1469410E+05   -1.7289310E+00
   3.3905108E-04   1.1378423E+05   -1.7283592E+00
   3.4061685E-04   1.1288187E+05   -1.7277876E+00
   3.4218986E-04   1.1198696E+05   -1.7272162E+00
   3.4377013E-04   1.1109944E+05   -1.7266451E+00
   3.4535769E-04   1.1021924E+05   -1.7260742E+00
   3.4695259E-04   1.0934631E+05   -1.7255036E+00
   3.4855485E-04   1.0848057E+05   -1.7249332E+00
   3.5016452E-04   1.0762197E+05   -1.7243631E+00
   3.5178161E-04   1.0677044E+05   -1.7237932E+00
   3.5340618E-04   1.0592593E+05   -1.7232237E+00
   3.5503824E-04   1.0508838E+05   -1.7226544E+00
   3.5667785E-04   1.0425772E+05   -1.7220854E+00
   3.5832502E-04   1.0343390E+05   -1.7215167E+00
   3.5997981E-04   1.0261686E+05   -1.7209483E+00
   3.6164223E-04   1.0180654E+05   -1.7203802E+00
   3.6331233E-04   1.0100288E+05   -1.7198124E+00
   3.6499015E-04   1.0020583E+05   -1.7192449E+00
   3.6667571E-04   9.9415327E+04   -1.7186777E+00
   3.6836906E-04   9.8631319E+04   -1.7181109E+00
   3.7007022E-04   9.7853748E+04   -1.7175444E+00
   3.7177925E-04   9.7082561E+04   -1.7169782E+00
   3.7349616E-04   9.6317703E+04   -1.7164124E+00
   3.7522101E-04   9.5559119E+04   -1.7158469E+00
   3.7695382E-04   9.4806757E+04   -1.7152818E+00
   3.7869463E-04   9.4060564E+04   -1.7147171E+00
   3.8044348E-04   9.3320487E+04   -1.7141527E+00
   3.8220041E-04   9.2586473E+04   -1.7135886E+00
   3.8396545E-04   9.1858471E+04   -1.7130250E+00
   3.8573864E-04   9.1136430E+04   -1.7124618E+00
   3.8752002E-04   9.0420299E+04   -1.7118989E+00
   3.8930963E-04   8.9710028E+04   -1.7113364E+00
   3.9110750E-04   8.9005567E+04   -1.7107743E+00
   3.9291368E-04   8.8306866E+04   -1.7102127E+00
   3.9472820E-04   8.7613876E+04   -1.7096514E+00
   3.9655109E-04   8.6926550E+04   -1.7090906E+00
   3.9838241E-04   8.6244838E+04   -1.7085302E+00
   4.0022218E-04   8.5568694E+04   -1.7079702E+00
   4.0207045E-04   8.4898069E+04   -1.7074106E+00
   4.0392725E-04   8.4232918E+04   -1.7068515E+00
   4.0579263E-04   8.3573193E+04   -1.7062928E+00
   4.0766662E-04   8.2918848E+04   -1.7057346E+00
   4.0954927E-04   8.2269838E+04   -1.7051768E+00
   4.1144061E-04   8.1626117E+04   -1.7046195E+00
   4.1334068E-04   8.0987642E+04   -1.7040627E+00
   4.1524953E-04   8.0354366E+04   -1.7035063E+00
   4.1716720E-04   7.9726247E+04   -1.7029504E+00
   4.1909372E-04   7.9103239E+04   -1.7023950E+00
   4.2102914E-04   7.8485302E+04   -1.7018400E+00
   4.2297350E-04   7.7872390E+04   -1.7012856E+00
   4.2492683E-04   7.7264462E+04   -1.7007316E+00
   4.2688919E-04   7.6661475E+04   -1.7001782E+00
   4.2886061E-04   7.6063389E+04   -1.6996253E+00
   4.3084113E-04   7.5470160E+04   -1.6990728E+00
   4.3283080E-04   7.4881749E+04   -1.6985209E+00
   4.3482966E-04   7.4298114E+04   -1.6979695E+00
   4.3683775E-04   7.3719215E+04   -1.6974187E+00
   4.3885511E-04   7.3145012E+04   -1.6968684E+00
   4.4088179E-04   7.2575466E+04   -1.6963186E+00
   4.4291783E-04   7.2010537E+04   -1.6957693E+00
   4.4496327E-04   7.1450186E+04   -1.6952206E+00
   4.4701816E-04   7.0894374E+04   -1.6946725E+00
   4.4908253E-04   7.0343064E+04   -1.6941249E+00
   4.5115644E-04   6.9796217E+04   -1.6935779E+00
   4.5323993E-04   6.9253795E+04   -1.6930314E+00
   4.5533304E-04   6.8715762E+04   -1.6924855E+00
   4.5743582E-04   6.8182081E+04   -1.6919402E+00
   4.5954830E-04   6.7652714E+04   -1.6913955E+00
   4.6167054E-04   6.7127625E+04   -1.6908514E+00
   4.6380259E-04   6.6606779E+04   -1.6903078E+00
   4.6594448E-04   6.6090140E+04   -1.6897649E+00
   4.6809626E-04   6.5577672E+04   -1.6892225E+00
   4.7025797E-04   6.5069340E+04   -1.6886808E+00
   4.7242967E-04   6.4565109E+04   -1.6881397E+00
   4.7461140E-04   6.4064946E+04   -1.6875992E+00
   4.7680321E-04   6.3568815E+04   -1.6870593E+00
   4.7900514E-04   6.3076683E+04   -1.6865200E+00
   4.8121723E-04   6.2588517E+04   -1.6859814E+00
   4.8343954E-04   6.2104283E+04   -1.6854434E+00
   4.8567212E-04   6.1623948E+04   -1.6849060E+00
   4.8791500E-04   6.1147479E+04   -1.6843693E+00
   4.9016825E-04   6.0674844E+04   -1.6838332E+00
   4.9243189E-04   6.0206011E+04   -1.6832978E+00
   4.9470600E-04   5.9740948E+04   -1.6827630E+00
   4.9699060E-04   5.9279623E+04   -1.6822289E+00
   4.9928575E-04   5.8822005E+04   -1.6816955E+00
   5.0159151E-04   5.8368064E+04   -1.6811627E+00
   5.0390791E-04   5.7917767E+04   -1.6806306E+00
   5.0623501E-04   5.7471085E+04   -1.6800992E+00
   5.0857286E-04   5.7027988E+04   -1.6795685E+00
   5.1092150E-04   5.6588445E+04   -1.6790384E+00
   5.1328099E-04   5.6152428E+04   -1.6785091E+00
   5.1565137E-04   5.5719905E+04   -1.6779804E+00
   5.1803270E-04   5.5290849E+04   -1.6774525E+00
   5.2042503E-04   5.4865230E+04   -1.6769252E+00
   5.2282841E-04   5.4443019E+04   -1.6763987E+00
   5.2524289E-04   5.4024189E+04   -1.6758728E+00
   5.2766851E-04   5.3608710E+04   -1.6753477E+00
   5.3010534E-04   5.3196555E+04   -1.6748233E+00
   5.3255342E-04   5.2787697E+04   -1.6742997E+00
   5.3501281E-04   5.2382107E+04   -1.6737767E+00
   5.3748356E-04   5.1979758E+04   -1.6732545E+00
   5.3996571E-04   5.1580624E+04   -1.6727330E+00
   5.4245933E-04   5.1184678E+04   -1.6722123E+00
   5.4496446E-04   5.0791893E+04   -1.6716923E+00
   5.4748117E-04   5.0402243E+04   -1.6711731E+00
   5.5000949E-04   5.0015701E+04   -1.6706546E+00
   5.5254949E-04   4.9632243E+04   -1.6701369E+00
   5.5510123E-04   4.9251841E+04   -1.6696199E+00
   5.5766474E-04   4.8874472E+04   -1.6691037E+00
   5.6024010E-04   4.8500109E+04   -1.6685883E+00
   5.6282734E-04   4.8128728E+04   -1.6680736E+00
   5.6542654E-04   4.7760304E+04   -1.6675598E+00
   5.6803774E-04   4.7394812E+04   -1.6670466E+00
   5.7066099E-04   4.7032229E+04   -1.6665343E+00
   5.7329637E-04   4.6672529E+04   -1.6660228E+00
   5.7594391E-04   4.6315689E+04   -1.6655120E+00
   5.7860368E-04   4.5961686E+04   -1.6650021E+00
   5.8127573E-04   4.5610496E+04   -1.6644929E+00
   5.8396012E-04   4.5262095E+04   -1.6639846E+00
   5.8665691E-04   4.4916461E+04   -1.6634770E+00
   5.8936616E-04   4.4573570E+04   -1.6629703E+00
   5.9208791E-04   4.4233399E+04   -1.6624643E+00
   5.9482223E-04   4.3895928E+04   -1.6619592E+00
   5.9756919E-04   4.3561132E+04   -1.6614549E+00
   6.0032882E-04   4.3228990E+04   -1.6609514E+00
   6.0310120E-04   4.2899480E+04   -1.6604488E+00
   6.0588639E-04   4.2572580E+04   -1.6599470E+00
   6.0868443E-04   4.2248268E+04   -1.6594460E+00
   6.1149540E-04   4.1926524E+04   -1.6589458E+00
   6.1431935E-04   4.1607326E+04   -1.6584465E+00
   6.1715634E-04   4.1290654E+04   -1.6579480E+00
   6.2000644E-04   4.0976485E+04   -1.6574503E+00
   6.2286969E-04   4.0664800E+04   -1.6569535E+00
