#        a       HoverH0(a)       dlogHdloga_of_a(a)
   1.0000000E-04   1.1892535E+06   -1.8652921E+00
   1.0046181E-04   1.1790778E+06   -1.8648382E+00
   1.0092575E-04   1.1689915E+06   -1.8643833E+00
   1.0139184E-04   1.1589940E+06   -1.8639274E+00
   1.0186008E-04   1.1490844E+06   -1.8634706E+00
   1.0233048E-04   1.1392619E+06   -1.8630128E+00
   1.0280305E-04   1.1295258E+06   -1.8625541E+00
   1.0327781E-04   1.1198752E+06   -1.8620944E+00
   1.0375475E-04   1.1103095E+06   -1.8616338E+00
   1.0423390E-04   1.1008278E+06   -1.8611722E+00
   1.0471527E-04   1.0914294E+06   -1.8607097E+00
   1.0519885E-04   1.0821135E+06   -1.8602462E+00
   1.0568467E-04   1.0728795E+06   -1.8597818E+00
   1.0617274E-04   1.0637265E+06   -1.8593164E+00
   1.0666305E-04   1.0546539E+06   -1.8588501E+00
   1.0715563E-04   1.0456609E+06   -1.8583829E+00
   1.0765049E-04   1.0367468E+06   -1.8579147E+00
   1.0814763E-04   1.0279109E+06   -1.8574456E+00
   1.0864707E-04   1.0191526E+06   -1.8569756E+00
   1.0914881E-04   1.0104710E+06   -1.8565046E+00
   1.0965287E-04   1.0018656E+06   -1.8560327E+00
   1.1015926E-04   9.9333564E+05   -1.8555599E+00
   1.1066799E-04   9.8488044E+05   -1.8550862E+00
   1.1117906E-04   9.7649935E+05   -1.8546115E+00
   1.1169250E-04   9.6819170E+05   -1.8541360E+00
   1.1220831E-04   9.5995684E+05   -1.8536595E+00
   1.1272650E-04   9.5179410E+05   -1.8531821E+00
   1.1324708E-04   9.4370286E+05   -1.8527038E+00
   1.1377007E-04   9.3568246E+05   -1.8522246E+00
   1.1429547E-04   9.2773228E+05   -1.8517445E+00
   1.1482330E-04   9.1985168E+05   -1.8512635E+00
   1.1535356E-04   9.1204005E+05   -1.8507816E+00
   1.1588628E-04   9.0429677E+05   -1.8502988E+00
   1.1642145E-04   8.9662122E+05   -1.8498151E+00
   1.1695910E-04   8.8901281E+05   -1.8493305E+00
   1.1749923E-04   8.8147092E+05   -1.8488450E+00
   1.1804185E-04   8.7399498E+05   -1.8483587E+00
   1.1858698E-04   8.6658438E+05   -1.8478714E+00
   1.1913463E-04   8.5923855E+05   -1.8473833E+00
   1.1968481E-04   8.5195691E+05   -1.8468943E+00
   1.2023752E-04   8.4473888E+05   -1.8464044E+00
   1.2079279E-04   8.3758389E+05   -1.8459137E+00
   1.2135063E-04   8.3049139E+05   -1.8454221E+00
   1.2191104E-04   8.2346081E+05   -1.8449296E+00
   1.2247403E-04   8.1649161E+05   -1.8444362E+00
   1.2303963E-04   8.0958323E+05   -1.8439420E+00
   1.2360784E-04   8.0273513E+05   -1.8434470E+00
   1.2417868E-04   7.9594678E+05   -1.8429511E+00
   1.2475215E-04   7.8921763E+05   -1.8424543E+00
   1.2532826E-04   7.8254717E+05   -1.8419567E+00
   1.2590704E-04   7.7593486E+05   -1.8414582E+00
   1.2648850E-04   7.6938020E+05   -1.8409590E+00
   1.2707263E-04   7.6288266E+05   -1.8404588E+00
   1.2765947E-04   7.5644174E+05   -1.8399579E+00
   1.2824901E-04   7.5005694E+05   -1.8394561E+00
   1.2884128E-04   7.4372775E+05   -1.8389534E+00
   1.2943628E-04   7.3745367E+05   -1.8384500E+00
   1.3003403E-04   7.3123422E+05   -1.8379457E+00
   1.3063454E-04   7.2506891E+05   -1.8374406E+00
   1.3123783E-04   7.1895725E+05   -1.8369347E+00
   1.3184390E-04   7.1289878E+05   -1.8364280E+00
   1.3245277E-04   7.0689300E+05   -1.8359205E+00
   1.3306445E-04   7.0093947E+05   -1.8354121E+00
   1.3367895E-04   6.9503770E+05   -1.8349030E+00
   1.3429630E-04   6.8918724E+05   -1.8343931E+00
   1.3491649E-04   6.8338764E+05   -1.8338824E+00
   1.3553955E-04   6.7763843E+05   -1.8333708E+00
   1.3616548E-04   6.7193918E+05   -1.8328585E+00
   1.3679431E-04   6.6628944E+05   -1.8323455E+00
   1.3742604E-04   6.6068876E+05   -1.8318316E+00
   1.3806069E-04   6.5513672E+05   -1.8313170E+00
   1.3869827E-04   6.4963287E+05   -1.8308016E+00
   1.3933879E-04   6.4417679E+05   -1.8302854E+00
   1.3998227E-04   6.3876805E+05   -1.8297684E+00
   1.4062872E-04   6.3340624E+05   -1.8292507E+00
   1.4127816E-04   6.2809093E+05   -1.8287323E+00
   1.4193060E-04   6.2282172E+05   -1.8282131E+00
   1.4258605E-04   6.1759819E+05   -1.8276931E+00
   1.4324453E-04   6.1241993E+05   -1.8271724E+00
   1.4390605E-04   6.0728655E+05   -1.8266509E+00
   1.4457062E-04   6.0219765E+05   -1.8261288E+00
   1.4523826E-04   5.9715284E+05   -1.8256058E+00
   1.4590899E-04   5.9215171E+05   -1.8250822E+00
   1.4658281E-04   5.8719388E+05   -1.8245578E+00
   1.4725974E-04   5.8227897E+05   -1.8240327E+00
   1.4793981E-04   5.7740659E+05   -1.8235069E+00
   1.4862301E-04   5.7257638E+05   -1.8229804E+00
   1.4930936E-04   5.6778795E+05   -1.8224532E+00
   1.4999889E-04   5.6304093E+05   -1.8219252E+00
   1.5069160E-04   5.5833496E+05   -1.8213966E+00
   1.5138751E-04   5.5366968E+05   -1.8208672E+00
   1.5208663E-04   5.4904471E+05   -1.8203372E+00
   1.5278899E-04   5.4445971E+05   -1.8198065E+00
   1.5349458E-04   5.3991432E+05   -1.8192751E+00
   1.5420343E-04   5.3540819E+05   -1.8187430E+00
   1.5491556E-04   5.3094097E+05   -1.8182103E+00
   1.5563098E-04   5.2651231E+05   -1.8176769E+00
   1.5634970E-04   5.2212188E+05   -1.8171428E+00
   1.5707174E-04   5.1776933E+05   -1.8166080E+00
   1.5779711E-04   5.1345434E+05   -1.8160726E+00
   1.5852584E-04   5.0917656E+05   -1.8155365E+00
   1.5925792E-04   5.0493566E+05   -1.8149998E+00
   1.5999339E-04   5.0073133E+05   -1.8144625E+00
   1.6073226E-04   4.9656324E+05   -1.8139245E+00
   1.6147454E-04   4.9243106E+05   -1.8133859E+00
   1.6222024E-04   4.8833448E+05   -1.8128466E+00
   1.6296939E-04   4.8427319E+05   -1.8123067E+00
   1.6372200E-04   4.8024687E+05   -1.8117662E+00
   1.6447809E-04   4.7625521E+05   -1.8112251E+00
   1.6523767E-04   4.7229790E+05   -1.8106834E+00
   1.6600075E-04   4.6837465E+05   -1.8101411E+00
   1.6676736E-04   4.6448515E+05   -1.8095981E+00
   1.6753751E-04   4.6062910E+05   -1.8090546E+00
   1.6831122E-04   4.5680620E+05   -1.8085105E+00
   1.6908849E-04   4.5301617E+05   -1.8079658E+00
   1.6986936E-04   4.4925872E+05   -1.8074205E+00
   1.7065384E-04   4.4553355E+05   -1.8068746E+00
   1.7144193E-04   4.4184037E+05   -1.8063282E+00
   1.7223367E-04   4.3817892E+05   -1.8057811E+00
   1.7302906E-04   4.3454891E+05   -1.8052336E+00
   1.7382813E-04   4.3095005E+05   -1.8046854E+00
   1.7463089E-04   4.2738208E+05   -1.8041367E+00
   1.7543735E-04   4.2384472E+05   -1.8035875E+00
   1.7624754E-04   4.2033771E+05   -1.8030377E+00
   1.7706147E-04   4.1686077E+05   -1.8024874E+00
   1.7787916E-04   4.1341364E+05   -1.8019366E+00
   1.7870062E-04   4.0999605E+05   -1.8013852E+00
   1.7952588E-04   4.0660775E+05   -1.8008333E+00
   1.8035495E-04   4.0324848E+05   -1.8002809E+00
   1.8118785E-04   3.9991798E+05   -1.7997280E+00
   1.8202459E-04   3.9661599E+05   -1.7991745E+00
   1.8286520E-04   3.9334228E+05   -1.7986206E+00
   1.8370969E-04   3.9009658E+05   -1.7980662E+00
   1.8455808E-04   3.8687865E+05   -1.7975112E+00
   1.8541039E-04   3.8368825E+05   -1.7969558E+00
   1.8626663E-04   3.8052513E+05   -1.7963999E+00
   1.8712683E-04   3.7738906E+05   -1.7958436E+00
   1.8799100E-04   3.7427979E+05   -1.7952867E+00
   1.8885917E-04   3.7119709E+05   -1.7947294E+00
   1.8973134E-04   3.6814073E+05   -1.7941716E+00
   1.9060754E-04   3.6511047E+05   -1.7936134E+00
   1.9148778E-04   3.6210609E+05   -1.7930548E+00
   1.9237209E-04   3.5912735E+05   -1.7924956E+00
   1.9326049E-04   3.5617404E+05   -1.7919361E+00
   1.9415299E-04   3.5324592E+05   -1.7913761E+00
   1.9504960E-04   3.5034278E+05   -1.7908157E+00
   1.9595036E-04   3.4746440E+05   -1.7902549E+00
   1.9685528E-04   3.4461055E+05   -1.7896936E+00
   1.9776438E-04   3.4178103E+05   -1.7891320E+00
   1.9867768E-04   3.3897562E+05   -1.7885699E+00
   1.9959519E-04   3.3619411E+05   -1.7880074E+00
   2.0051694E-04   3.3343628E+05   -1.7874446E+00
   2.0144295E-04   3.3070194E+05   -1.7868813E+00
   2.0237324E-04   3.2799087E+05   -1.7863177E+00
   2.0330782E-04   3.2530287E+05   -1.7857537E+00
   2.0424671E-04   3.2263774E+05   -1.7851893E+00
   2.0518995E-04   3.1999528E+05   -1.7846245E+00
   2.0613754E-04   3.1737528E+05   -1.7840594E+00
   2.0708950E-04   3.1477756E+05   -1.7834940E+00
   2.0804586E-04   3.1220191E+05   -1.7829282E+00
   2.0900664E-04   3.0964814E+05   -1.7823620E+00
   2.0997185E-04   3.0711607E+05   -1.7817955E+00
   2.1094152E-04   3.0460550E+05   -1.7812287E+00
   2.1191567E-04   3.0211623E+05   -1.7806615E+00
   2.1289432E-04   2.9964810E+05   -1.7800940E+00
   2.1387749E-04   2.9720090E+05   -1.7795263E+00
   2.1486520E-04   2.9477446E+05   -1.7789582E+00
   2.1585747E-04   2.9236860E+05   -1.7783897E+00
   2.1685432E-04   2.8998314E+05   -1.7778210E+00
   2.1785578E-04   2.8761789E+05   -1.7772521E+00
   2.1886186E-04   2.8527268E+05   -1.7766828E+00
   2.1987259E-04   2.8294733E+05   -1.7761132E+00
   2.2088798E-04   2.8064168E+05   -1.7755434E+00
   2.2190807E-04   2.7835555E+05   -1.7749733E+00
   2.2293286E-04   2.7608876E+05   -1.7744029E+00
   2.2396239E-04   2.7384115E+05   -1.7738323E+00
   2.2499667E-04   2.7161256E+05   -1.7732614E+00
   2.2603573E-04   2.6940281E+05   -1.7726903E+00
   2.2707958E-04   2.6721174E+05   -1.7721189E+00
   2.2812826E-04   2.6503919E+05   -1.7715473E+00
   2.2918178E-04   2.6288500E+05   -1.7709755E+00
   2.3024017E-04   2.6074900E+05   -1.7704035E+00
   2.3130344E-04   2.5863104E+05   -1.7698312E+00
   2.3237162E-04   2.5653096E+05   -1.7692588E+00
   2.3344474E-04   2.5444860E+05   -1.7686861E+00
   2.3452281E-04   2.5238382E+05   -1.7681132E+00
   2.3560586E-04   2.5033645E+05   -1.7675402E+00
   2.3669392E-04   2.4830634E+05   -1.7669669E+00
   2.3778699E-04   2.4629335E+05   -1.7663935E+00
   2.3888512E-04   2.4429732E+05   -1.7658199E+00
   2.3998831E-04   2.4231811E+05   -1.7652461E+00
   2.4109661E-04   2.4035557E+05   -1.7646722E+00
   2.4221001E-04   2.3840955E+05   -1.7640981E+00
   2.4332857E-04   2.3647992E+05   -1.7635239E+00
   2.4445228E-04   2.3456652E+05   -1.7629495E+00
   2.4558119E-04   2.3266922E+05   -1.7623750E+00
   2.4671531E-04   2.3078788E+05   -1.7618004E+00
   2.4785467E-04   2.2892236E+05   -1.7612256E+00
   2.4899928E-04   2.2707252E+05   -1.7606507E+00
   2.5014919E-04   2.2523822E+05   -1.7600757E+00
   2.5130440E-04   2.2341933E+05   -1.7595006E+00
   2.5246495E-04   2.2161572E+05   -1.7589254E+00
   2.5363086E-04   2.1982725E+05   -1.7583501E+00
   2.5480216E-04   2.1805379E+05   -1.7577747E+00
   2.5597886E-04   2.1629521E+05   -1.7571992E+00
   2.5716100E-04   2.1455139E+05   -1.7566236E+00
   2.5834859E-04   2.1282219E+05   -1.7560480E+00
   2.5954168E-04   2.1110748E+05   -1.7554723E+00
   2.6074027E-04   2.0940715E+05   -1.7548966E+00
   2.6194439E-04   2.0772106E+05   -1.7543208E+00
   2.6315408E-04   2.0604909E+05   -1.7537449E+00
   2.6436935E-04   2.0439113E+05   -1.7531690E+00
   2.6559024E-04   2.0274704E+05   -1.7525931E+00
   2.6681676E-04   2.0111671E+05   -1.7520172E+00
   2.6804895E-04   1.9950002E+05   -1.7514412E+00
   2.6928683E-04   1.9789685E+05   -1.7508652E+00
   2.7053042E-04   1.9630709E+05   -1.7502892E+00
   2.7177976E-04   1.9473061E+05   -1.7497132E+00
   2.7303487E-04   1.9316731E+05   -1.7491372E+00
   2.7429577E-04   1.9161706E+05   -1.7485612E+00
   2.7556250E-04   1.9007976E+05   -1.7479853E+00
   2.7683507E-04   1.8855530E+05   -1.7474093E+00
   2.7811353E-04   1.8704356E+05   -1.7468334E+00
   2.7939788E-04   1.8554443E+05   -1.7462575E+00
   2.8068817E-04   1.8405780E+05   -1.7456816E+00
   2.8198442E-04   1.8258357E+05   -1.7451058E+00
   2.8328665E-04   1.8112163E+05   -1.7445301E+00
   2.8459490E-04   1.7967187E+05   -1.7439544E+00
   2.8590919E-04   1.7823419E+05   -1.7433787E+00
   2.8722955E-04   1.7680848E+05   -1.7428032E+00
   2.8855600E-04   1.7539464E+05   -1.7422277E+00
   2.8988859E-04   1.7399256E+05   -1.7416523E+00
   2.9122732E-04   1.7260215E+05   -1.7410769E+00
   2.9257224E-04   1.7122331E+05   -1.7405017E+00
   2.9392337E-04   1.6985593E+05   -1.7399266E+00
   2.9528074E-04   1.6849992E+05   -1.7393516E+00
   2.9664438E-04   1.6715518E+05   -1.7387767E+00
   2.9801431E-04   1.6582161E+05   -1.7382019E+00
   2.9939057E-04   1.6449911E+05   -1.7376272E+00
   3.0077319E-04   1.6318759E+05   -1.7370527E+00
   3.0216219E-04   1.6188696E+05   -1.7364783E+00
   3.0355761E-04   1.6059712E+05   -1.7359040E+00
   3.0495947E-04   1.5931797E+05   -1.7353299E+00
   3.0636780E-04   1.5804944E+05   -1.7347560E+00
   3.0778264E-04   1.5679142E+05   -1.7341822E+00
   3.0920401E-04   1.5554382E+05   -1.7336086E+00
   3.1063195E-04   1.5430656E+05   -1.7330351E+00
   3.1206648E-04   1.5307954E+05   -1.7324618E+00
   3.1350764E-04   1.5186268E+05   -1.7318887E+00
   3.1495545E-04   1.5065589E+05   -1.7313159E+00
   3.1640994E-04   1.4945909E+05   -1.7307432E+00
   3.1787116E-04   1.4827219E+05   -1.7301707E+00
   3.1933912E-04   1.4709509E+05   -1.7295984E+00
   3.2081386E-04   1.4592773E+05   -1.7290263E+00
   3.2229541E-04   1.4477002E+05   -1.7284544E+00
   3.2378381E-04   1.4362186E+05   -1.7278828E+00
   3.2527908E-04   1.4248319E+05   -1.7273114E+00
   3.2678125E-04   1.4135392E+05   -1.7267403E+00
   3.2829036E-04   1.4023397E+05   -1.7261693E+00
   3.2980644E-04   1.3912325E+05   -1.7255987E+00
   3.3132952E-04   1.3802170E+05   -1.7250283E+00
   3.3285963E-04   1.3692923E+05   -1.7244581E+00
   3.3439681E-04   1.3584576E+05   -1.7238883E+00
   3.3594109E-04   1.3477122E+05   -1.7233187E+00
   3.3749250E-04   1.3370553E+05   -1.7227493E+00
   3.3905108E-04   1.3264861E+05   -1.7221803E+00
   3.4061685E-04   1.3160040E+05   -1.7216115E+00
   3.4218986E-04   1.3056081E+05   -1.7210431E+00
   3.4377013E-04   1.2952977E+05   -1.7204749E+00
   3.4535769E-04   1.2850721E+05   -1.7199071E+00
   3.4695259E-04   1.2749305E+05   -1.7193396E+00
   3.4855485E-04   1.2648723E+05   -1.7187724E+00
   3.5016452E-04   1.2548967E+05   -1.7182055E+00
   3.5178161E-04   1.2450031E+05   -1.7176389E+00
   3.5340618E-04   1.2351906E+05   -1.7170727E+00
   3.5503824E-04   1.2254587E+05   -1.7165069E+00
   3.5667785E-04   1.2158067E+05   -1.7159413E+00
   3.5832502E-04   1.2062338E+05   -1.7153762E+00
   3.5997981E-04   1.1967394E+05   -1.7148114E+00
   3.6164223E-04   1.1873228E+05   -1.7142469E+00
   3.6331233E-04   1.1779834E+05   -1.7136829E+00
   3.6499015E-04   1.1687205E+05   -1.7131192E+00
   3.6667571E-04   1.1595334E+05   -1.7125559E+00
   3.6836906E-04   1.1504215E+05   -1.7119929E+00
   3.7007022E-04   1.1413842E+05   -1.7114304E+00
   3.7177925E-04   1.1324209E+05   -1.7108683E+00
   3.7349616E-04   1.1235308E+05   -1.7103066E+00
   3.7522101E-04   1.1147134E+05   -1.7097452E+00
   3.7695382E-04   1.1059680E+05   -1.7091843E+00
   3.7869463E-04   1.0972941E+05   -1.7086239E+00
   3.8044348E-04   1.0886911E+05   -1.7080638E+00
   3.8220041E-04   1.0801582E+05   -1.7075042E+00
   3.8396545E-04   1.0716950E+05   -1.7069450E+00
   3.8573864E-04   1.0633009E+05   -1.7063863E+00
   3.8752002E-04   1.0549752E+05   -1.7058280E+00
   3.8930963E-04   1.0467174E+05   -1.7052702E+00
   3.9110750E-04   1.0385269E+05   -1.7047128E+00
   3.9291368E-04   1.0304032E+05   -1.7041559E+00
   3.9472820E-04   1.0223456E+05   -1.7035994E+00
   3.9655109E-04   1.0143536E+05   -1.7030434E+00
   3.9838241E-04   1.0064267E+05   -1.7024880E+00
   4.0022218E-04   9.9856428E+04   -1.7019330E+00
   4.0207045E-04   9.9076582E+04   -1.7013784E+00
   4.0392725E-04   9.8303077E+04   -1.7008244E+00
   4.0579263E-04   9.7535860E+04   -1.7002709E+00
   4.0766662E-04   9.6774877E+04   -1.6997179E+00
   4.0954927E-04   9.6020076E+04   -1.6991654E+00
   4.1144061E-04   9.5271404E+04   -1.6986134E+00
   4.1334068E-04   9.4528810E+04   -1.6980620E+00
   4.1524953E-04   9.3792242E+04   -1.6975110E+00
   4.1716720E-04   9.3061650E+04   -1.6969606E+00
   4.1909372E-04   9.2336983E+04   -1.6964108E+00
   4.2102914E-04   9.1618191E+04   -1.6958614E+00
   4.2297350E-04   9.0905224E+04   -1.6953127E+00
   4.2492683E-04   9.0198033E+04   -1.6947644E+00
   4.2688919E-04   8.9496570E+04   -1.6942168E+00
   4.2886061E-04   8.8800786E+04   -1.6936697E+00
   4.3084113E-04   8.8110633E+04   -1.6931231E+00
   4.3283080E-04   8.7426065E+04   -1.6925772E+00
   4.3482966E-04   8.6747033E+04   -1.6920318E+00
   4.3683775E-04   8.6073491E+04   -1.6914870E+00
   4.3885511E-04   8.5405393E+04   -1.6909427E+00
   4.4088179E-04   8.4742693E+04   -1.6903991E+00
   4.4291783E-04   8.4085346E+04   -1.6898561E+00
   4.4496327E-04   8.3433307E+04   -1.6893137E+00
   4.4701816E-04   8.2786530E+04   -1.6887718E+00
   4.4908253E-04   8.2144972E+04   -1.6882306E+00
   4.5115644E-04   8.1508590E+04   -1.6876900E+00
   4.5323993E-04   8.0877338E+04   -1.6871500E+00
   4.5533304E-04   8.0251175E+04   -1.6866107E+00
   4.5743582E-04   7.9630058E+04   -1.6860719E+00
   4.5954830E-04   7.9013944E+04   -1.6855338E+00
   4.6167054E-04   7.8402791E+04   -1.6849964E+00
   4.6380259E-04   7.7796558E+04   -1.6844596E+00
   4.6594448E-04   7.7195204E+04   -1.6839234E+00
   4.6809626E-04   7.6598686E+04   -1.6833879E+00
   4.7025797E-04   7.6006966E+04   -1.6828530E+00
   4.7242967E-04   7.5420002E+04   -1.6823188E+00
   4.7461140E-04   7.4837755E+04   -1.6817853E+00
   4.7680321E-04   7.4260186E+04   -1.6812524E+00
   4.7900514E-04   7.3687255E+04   -1.6807202E+00
   4.8121723E-04   7.3118923E+04   -1.6801887E+00
   4.8343954E-04   7.2555153E+04   -1.6796579E+00
   4.8567212E-04   7.1995905E+04   -1.6791277E+00
   4.8791500E-04   7.1441142E+04   -1.6785983E+00
   4.9016825E-04   7.0890827E+04   -1.6780695E+00
   4.9243189E-04   7.0344922E+04   -1.6775415E+00
   4.9470600E-04   6.9803391E+04   -1.6770141E+00
   4.9699060E-04   6.9266197E+04   -1.6764875E+00
   4.9928575E-04   6.8733303E+04   -1.6759615E+00
   5.0159151E-04   6.8204675E+04   -1.6754363E+00
   5.0390791E-04   6.7680276E+04   -1.6749118E+00
   5.0623501E-04   6.7160070E+04   -1.6743880E+00
   5.0857286E-04   6.6644024E+04   -1.6738650E+00
   5.1092150E-04   6.6132103E+04   -1.6733427E+00
   5.1328099E-04   6.5624271E+04   -1.6728211E+00
   5.1565137E-04   6.5120496E+04   -1.6723003E+00
   5.1803270E-04   6.4620743E+04   -1.6717802E+00
   5.2042503E-04   6.4124979E+04   -1.6712608E+00
   5.2282841E-04   6.3633170E+04   -1.6707422E+00
   5.2524289E-04   6.3145284E+04   -1.6702244E+00
   5.2766851E-04   6.2661288E+04   -1.6697073E+00
   5.3010534E-04   6.2181150E+04   -1.6691910E+00
   5.3255342E-04   6.1704838E+04   -1.6686755E+00
   5.3501281E-04   6.1232319E+04   -1.6681607E+00
   5.3748356E-04   6.0763563E+04   -1.6676467E+00
   5.3996571E-04   6.0298538E+04   -1.6671335E+00
   5.4245933E-04   5.9837214E+04   -1.6666210E+00
   5.4496446E-04   5.9379559E+04   -1.6661094E+00
   5.4748117E-04   5.8925543E+04   -1.6655985E+00
   5.5000949E-04   5.8475136E+04   -1.6650885E+00
   5.5254949E-04   5.8028308E+04   -1.6645792E+00
   5.5510123E-04   5.7585029E+04   -1.6640707E+00
   5.5766474E-04   5.7145271E+04   -1.6635630E+00
   5.6024010E-04   5.6709003E+04   -1.6630562E+00
   5.6282734E-04   5.6276197E+04   -1.6625501E+00
   5.6542654E-04   5.5846824E+04   -1.6620449E+00
   5.6803774E-04   5.5420857E+04   -1.6615405E+00
   5.7066099E-04   5.4998266E+04   -1.6610369E+00
   5.7329637E-04   5.4579024E+04   -1.6605341E+00
   5.7594391E-04   5.4163103E+04   -1.6600321E+00
   5.7860368E-04   5.3750476E+04   -1.6595310E+00
   5.8127573E-04   5.3341115E+04   -1.6590307E+00
   5.8396012E-04   5.2934994E+04   -1.6585313E+00
   5.8665691E-04   5.2532086E+04   -1.6580327E+00
   5.8936616E-04   5.2132364E+04   -1.6575349E+00
   5.9208791E-04   5.1735802E+04   -1.6570380E+00
   5.9482223E-04   5.1342375E+04   -1.6565419E+00
   5.9756919E-04   5.0952055E+04   -1.6560467E+00
   6.0032882E-04   5.0564818E+04   -1.6555523E+00
   6.0310120E-04   5.0180639E+04   -1.6550588E+00
   6.0588639E-04   4.9799491E+04   -1.6545662E+00
   6.0868443E-04   4.9421350E+04   -1.6540744E+00
   6.1149540E-04   4.9046192E+04   -1.6535835E+00
   6.1431935E-04   4.8673992E+04   -1.6530935E+00
   6.1715634E-04   4.8304725E+04   -1.6526043E+00
   6.2000644E-04   4.7938367E+04   -1.6521160E+00
   6.2286969E-04   4.7574896E+04   -1.6516286E+00
