#        a       HoverH0(a)       dlogHdloga_of_a(a)
   1.0000000E-04   1.2178921E+06   -1.8743217E+00
   1.0046181E-04   1.2074210E+06   -1.8738877E+00
   1.0092575E-04   1.1970423E+06   -1.8734527E+00
   1.0139184E-04   1.1867553E+06   -1.8730167E+00
   1.0186008E-04   1.1765590E+06   -1.8725797E+00
   1.0233048E-04   1.1664526E+06   -1.8721417E+00
   1.0280305E-04   1.1564354E+06   -1.8717028E+00
   1.0327781E-04   1.1465066E+06   -1.8712628E+00
   1.0375475E-04   1.1366653E+06   -1.8708219E+00
   1.0423390E-04   1.1269107E+06   -1.8703799E+00
   1.0471527E-04   1.1172422E+06   -1.8699370E+00
   1.0519885E-04   1.1076589E+06   -1.8694932E+00
   1.0568467E-04   1.0981600E+06   -1.8690483E+00
   1.0617274E-04   1.0887448E+06   -1.8686025E+00
   1.0666305E-04   1.0794126E+06   -1.8681556E+00
   1.0715563E-04   1.0701625E+06   -1.8677078E+00
   1.0765049E-04   1.0609939E+06   -1.8672591E+00
   1.0814763E-04   1.0519061E+06   -1.8668094E+00
   1.0864707E-04   1.0428982E+06   -1.8663587E+00
   1.0914881E-04   1.0339697E+06   -1.8659070E+00
   1.0965287E-04   1.0251197E+06   -1.8654544E+00
   1.1015926E-04   1.0163476E+06   -1.8650008E+00
   1.1066799E-04   1.0076526E+06   -1.8645462E+00
   1.1117906E-04   9.9903415E+05   -1.8640907E+00
   1.1169250E-04   9.9049148E+05   -1.8636342E+00
   1.1220831E-04   9.8202393E+05   -1.8631767E+00
   1.1272650E-04   9.7363081E+05   -1.8627184E+00
   1.1324708E-04   9.6531147E+05   -1.8622590E+00
   1.1377007E-04   9.5706525E+05   -1.8617987E+00
   1.1429547E-04   9.4889149E+05   -1.8613375E+00
   1.1482330E-04   9.4078953E+05   -1.8608753E+00
   1.1535356E-04   9.3275874E+05   -1.8604121E+00
   1.1588628E-04   9.2479848E+05   -1.8599480E+00
   1.1642145E-04   9.1690811E+05   -1.8594830E+00
   1.1695910E-04   9.0908701E+05   -1.8590170E+00
   1.1749923E-04   9.0133457E+05   -1.8585501E+00
   1.1804185E-04   8.9365015E+05   -1.8580823E+00
   1.1858698E-04   8.8603317E+05   -1.8576135E+00
   1.1913463E-04   8.7848300E+05   -1.8571438E+00
   1.1968481E-04   8.7099906E+05   -1.8566732E+00
   1.2023752E-04   8.6358075E+05   -1.8562016E+00
   1.2079279E-04   8.5622749E+05   -1.8557292E+00
   1.2135063E-04   8.4893869E+05   -1.8552558E+00
   1.2191104E-04   8.4171377E+05   -1.8547814E+00
   1.2247403E-04   8.3455217E+05   -1.8543062E+00
   1.2303963E-04   8.2745332E+05   -1.8538300E+00
   1.2360784E-04   8.2041664E+05   -1.8533530E+00
   1.2417868E-04   8.1344160E+05   -1.8528750E+00
   1.2475215E-04   8.0652764E+05   -1.8523961E+00
   1.2532826E-04   7.9967421E+05   -1.8519163E+00
   1.2590704E-04   7.9288077E+05   -1.8514356E+00
   1.2648850E-04   7.8614678E+05   -1.8509540E+00
   1.2707263E-04   7.7947172E+05   -1.8504716E+00
   1.2765947E-04   7.7285506E+05   -1.8499882E+00
   1.2824901E-04   7.6629627E+05   -1.8495039E+00
   1.2884128E-04   7.5979484E+05   -1.8490187E+00
   1.2943628E-04   7.5335025E+05   -1.8485327E+00
   1.3003403E-04   7.4696200E+05   -1.8480458E+00
   1.3063454E-04   7.4062959E+05   -1.8475580E+00
   1.3123783E-04   7.3435251E+05   -1.8470693E+00
   1.3184390E-04   7.2813027E+05   -1.8465797E+00
   1.3245277E-04   7.2196238E+05   -1.8460893E+00
   1.3306445E-04   7.1584836E+05   -1.8455980E+00
   1.3367895E-04   7.0978773E+05   -1.8451058E+00
   1.3429630E-04   7.0378000E+05   -1.8446127E+00
   1.3491649E-04   6.9782471E+05   -1.8441188E+00
   1.3553955E-04   6.9192139E+05   -1.8436241E+00
   1.3616548E-04   6.8606957E+05   -1.8431285E+00
   1.3679431E-04   6.8026880E+05   -1.8426320E+00
   1.3742604E-04   6.7451862E+05   -1.8421347E+00
   1.3806069E-04   6.6881858E+05   -1.8416365E+00
   1.3869827E-04   6.6316823E+05   -1.8411376E+00
   1.3933879E-04   6.5756713E+05   -1.8406377E+00
   1.3998227E-04   6.5201484E+05   -1.8401370E+00
   1.4062872E-04   6.4651092E+05   -1.8396355E+00
   1.4127816E-04   6.4105495E+05   -1.8391332E+00
   1.4193060E-04   6.3564649E+05   -1.8386300E+00
   1.4258605E-04   6.3028513E+05   -1.8381261E+00
   1.4324453E-04   6.2497043E+05   -1.8376213E+00
   1.4390605E-04   6.1970200E+05   -1.8371156E+00
   1.4457062E-04   6.1447941E+05   -1.8366092E+00
   1.4523826E-04   6.0930226E+05   -1.8361020E+00
   1.4590899E-04   6.0417014E+05   -1.8355939E+00
   1.4658281E-04   5.9908265E+05   -1.8350851E+00
   1.4725974E-04   5.9403939E+05   -1.8345754E+00
   1.4793981E-04   5.8903997E+05   -1.8340650E+00
   1.4862301E-04   5.8408401E+05   -1.8335537E+00
   1.4930936E-04   5.7917110E+05   -1.8330417E+00
   1.4999889E-04   5.7430088E+05   -1.8325289E+00
   1.5069160E-04   5.6947295E+05   -1.8320153E+00
   1.5138751E-04   5.6468695E+05   -1.8315010E+00
   1.5208663E-04   5.5994250E+05   -1.8309858E+00
   1.5278899E-04   5.5523923E+05   -1.8304699E+00
   1.5349458E-04   5.5057678E+05   -1.8299532E+00
   1.5420343E-04   5.4595478E+05   -1.8294358E+00
   1.5491556E-04   5.4137287E+05   -1.8289176E+00
   1.5563098E-04   5.3683070E+05   -1.8283987E+00
   1.5634970E-04   5.3232791E+05   -1.8278790E+00
   1.5707174E-04   5.2786415E+05   -1.8273585E+00
   1.5779711E-04   5.2343908E+05   -1.8268373E+00
   1.5852584E-04   5.1905236E+05   -1.8263154E+00
   1.5925792E-04   5.1470363E+05   -1.8257927E+00
   1.5999339E-04   5.1039257E+05   -1.8252693E+00
   1.6073226E-04   5.0611884E+05   -1.8247452E+00
   1.6147454E-04   5.0188210E+05   -1.8242204E+00
   1.6222024E-04   4.9768204E+05   -1.8236948E+00
   1.6296939E-04   4.9351832E+05   -1.8231685E+00
   1.6372200E-04   4.8939063E+05   -1.8226416E+00
   1.6447809E-04   4.8529863E+05   -1.8221139E+00
   1.6523767E-04   4.8124203E+05   -1.8215855E+00
   1.6600075E-04   4.7722049E+05   -1.8210564E+00
   1.6676736E-04   4.7323372E+05   -1.8205266E+00
   1.6753751E-04   4.6928139E+05   -1.8199961E+00
   1.6831122E-04   4.6536322E+05   -1.8194650E+00
   1.6908849E-04   4.6147889E+05   -1.8189331E+00
   1.6986936E-04   4.5762810E+05   -1.8184006E+00
   1.7065384E-04   4.5381056E+05   -1.8178674E+00
   1.7144193E-04   4.5002597E+05   -1.8173336E+00
   1.7223367E-04   4.4627404E+05   -1.8167990E+00
   1.7302906E-04   4.4255448E+05   -1.8162639E+00
   1.7382813E-04   4.3886701E+05   -1.8157280E+00
   1.7463089E-04   4.3521134E+05   -1.8151915E+00
   1.7543735E-04   4.3158718E+05   -1.8146544E+00
   1.7624754E-04   4.2799427E+05   -1.8141166E+00
   1.7706147E-04   4.2443231E+05   -1.8135782E+00
   1.7787916E-04   4.2090105E+05   -1.8130392E+00
   1.7870062E-04   4.1740020E+05   -1.8124995E+00
   1.7952588E-04   4.1392951E+05   -1.8119593E+00
   1.8035495E-04   4.1048869E+05   -1.8114184E+00
   1.8118785E-04   4.0707749E+05   -1.8108768E+00
   1.8202459E-04   4.0369564E+05   -1.8103347E+00
   1.8286520E-04   4.0034289E+05   -1.8097920E+00
   1.8370969E-04   3.9701898E+05   -1.8092487E+00
   1.8455808E-04   3.9372366E+05   -1.8087047E+00
   1.8541039E-04   3.9045666E+05   -1.8081602E+00
   1.8626663E-04   3.8721775E+05   -1.8076151E+00
   1.8712683E-04   3.8400666E+05   -1.8070695E+00
   1.8799100E-04   3.8082317E+05   -1.8065232E+00
   1.8885917E-04   3.7766701E+05   -1.8059764E+00
   1.8973134E-04   3.7453796E+05   -1.8054290E+00
   1.9060754E-04   3.7143577E+05   -1.8048811E+00
   1.9148778E-04   3.6836021E+05   -1.8043326E+00
   1.9237209E-04   3.6531103E+05   -1.8037835E+00
   1.9326049E-04   3.6228801E+05   -1.8032339E+00
   1.9415299E-04   3.5929092E+05   -1.8026838E+00
   1.9504960E-04   3.5631952E+05   -1.8021332E+00
   1.9595036E-04   3.5337360E+05   -1.8015820E+00
   1.9685528E-04   3.5045292E+05   -1.8010302E+00
   1.9776438E-04   3.4755727E+05   -1.8004780E+00
   1.9867768E-04   3.4468642E+05   -1.7999252E+00
   1.9959519E-04   3.4184016E+05   -1.7993720E+00
   2.0051694E-04   3.3901826E+05   -1.7988182E+00
   2.0144295E-04   3.3622051E+05   -1.7982640E+00
   2.0237324E-04   3.3344671E+05   -1.7977092E+00
   2.0330782E-04   3.3069663E+05   -1.7971540E+00
   2.0424671E-04   3.2797008E+05   -1.7965982E+00
   2.0518995E-04   3.2526683E+05   -1.7960420E+00
   2.0613754E-04   3.2258670E+05   -1.7954853E+00
   2.0708950E-04   3.1992947E+05   -1.7949282E+00
   2.0804586E-04   3.1729495E+05   -1.7943706E+00
   2.0900664E-04   3.1468292E+05   -1.7938125E+00
   2.0997185E-04   3.1209321E+05   -1.7932540E+00
   2.1094152E-04   3.0952560E+05   -1.7926950E+00
   2.1191567E-04   3.0697991E+05   -1.7921356E+00
   2.1289432E-04   3.0445594E+05   -1.7915758E+00
   2.1387749E-04   3.0195350E+05   -1.7910155E+00
   2.1486520E-04   2.9947240E+05   -1.7904548E+00
   2.1585747E-04   2.9701245E+05   -1.7898937E+00
   2.1685432E-04   2.9457348E+05   -1.7893322E+00
   2.1785578E-04   2.9215529E+05   -1.7887703E+00
   2.1886186E-04   2.8975770E+05   -1.7882079E+00
   2.1987259E-04   2.8738053E+05   -1.7876452E+00
   2.2088798E-04   2.8502360E+05   -1.7870821E+00
   2.2190807E-04   2.8268674E+05   -1.7865186E+00
   2.2293286E-04   2.8036977E+05   -1.7859547E+00
   2.2396239E-04   2.7807250E+05   -1.7853904E+00
   2.2499667E-04   2.7579478E+05   -1.7848258E+00
   2.2603573E-04   2.7353643E+05   -1.7842608E+00
   2.2707958E-04   2.7129727E+05   -1.7836955E+00
   2.2812826E-04   2.6907715E+05   -1.7831298E+00
   2.2918178E-04   2.6687589E+05   -1.7825637E+00
   2.3024017E-04   2.6469333E+05   -1.7819973E+00
   2.3130344E-04   2.6252930E+05   -1.7814306E+00
   2.3237162E-04   2.6038365E+05   -1.7808636E+00
   2.3344474E-04   2.5825621E+05   -1.7802962E+00
   2.3452281E-04   2.5614682E+05   -1.7797285E+00
   2.3560586E-04   2.5405532E+05   -1.7791605E+00
   2.3669392E-04   2.5198156E+05   -1.7785922E+00
   2.3778699E-04   2.4992538E+05   -1.7780236E+00
   2.3888512E-04   2.4788664E+05   -1.7774547E+00
   2.3998831E-04   2.4586516E+05   -1.7768855E+00
   2.4109661E-04   2.4386081E+05   -1.7763160E+00
   2.4221001E-04   2.4187344E+05   -1.7757463E+00
   2.4332857E-04   2.3990289E+05   -1.7751763E+00
   2.4445228E-04   2.3794902E+05   -1.7746060E+00
   2.4558119E-04   2.3601168E+05   -1.7740355E+00
   2.4671531E-04   2.3409074E+05   -1.7734647E+00
   2.4785467E-04   2.3218603E+05   -1.7728936E+00
   2.4899928E-04   2.3029744E+05   -1.7723223E+00
   2.5014919E-04   2.2842480E+05   -1.7717508E+00
   2.5130440E-04   2.2656799E+05   -1.7711791E+00
   2.5246495E-04   2.2472687E+05   -1.7706071E+00
   2.5363086E-04   2.2290129E+05   -1.7700349E+00
   2.5480216E-04   2.2109113E+05   -1.7694625E+00
   2.5597886E-04   2.1929625E+05   -1.7688899E+00
   2.5716100E-04   2.1751651E+05   -1.7683171E+00
   2.5834859E-04   2.1575178E+05   -1.7677441E+00
   2.5954168E-04   2.1400194E+05   -1.7671709E+00
   2.6074027E-04   2.1226685E+05   -1.7665975E+00
   2.6194439E-04   2.1054638E+05   -1.7660240E+00
   2.6315408E-04   2.0884041E+05   -1.7654502E+00
   2.6436935E-04   2.0714881E+05   -1.7648764E+00
   2.6559024E-04   2.0547146E+05   -1.7643023E+00
   2.6681676E-04   2.0380823E+05   -1.7637281E+00
   2.6804895E-04   2.0215899E+05   -1.7631538E+00
   2.6928683E-04   2.0052363E+05   -1.7625793E+00
   2.7053042E-04   1.9890203E+05   -1.7620047E+00
   2.7177976E-04   1.9729407E+05   -1.7614300E+00
   2.7303487E-04   1.9569962E+05   -1.7608551E+00
   2.7429577E-04   1.9411857E+05   -1.7602801E+00
   2.7556250E-04   1.9255080E+05   -1.7597051E+00
   2.7683507E-04   1.9099620E+05   -1.7591299E+00
   2.7811353E-04   1.8945466E+05   -1.7585546E+00
   2.7939788E-04   1.8792606E+05   -1.7579792E+00
   2.8068817E-04   1.8641028E+05   -1.7574037E+00
   2.8198442E-04   1.8490722E+05   -1.7568282E+00
   2.8328665E-04   1.8341677E+05   -1.7562526E+00
   2.8459490E-04   1.8193881E+05   -1.7556769E+00
   2.8590919E-04   1.8047324E+05   -1.7551012E+00
   2.8722955E-04   1.7901995E+05   -1.7545254E+00
   2.8855600E-04   1.7757883E+05   -1.7539495E+00
   2.8988859E-04   1.7614979E+05   -1.7533736E+00
   2.9122732E-04   1.7473270E+05   -1.7527977E+00
   2.9257224E-04   1.7332748E+05   -1.7522218E+00
   2.9392337E-04   1.7193401E+05   -1.7516458E+00
   2.9528074E-04   1.7055220E+05   -1.7510698E+00
   2.9664438E-04   1.6918195E+05   -1.7504938E+00
   2.9801431E-04   1.6782314E+05   -1.7499178E+00
   2.9939057E-04   1.6647570E+05   -1.7493418E+00
   3.0077319E-04   1.6513951E+05   -1.7487658E+00
   3.0216219E-04   1.6381448E+05   -1.7481898E+00
   3.0355761E-04   1.6250051E+05   -1.7476138E+00
   3.0495947E-04   1.6119751E+05   -1.7470378E+00
   3.0636780E-04   1.5990538E+05   -1.7464619E+00
   3.0778264E-04   1.5862403E+05   -1.7458860E+00
   3.0920401E-04   1.5735337E+05   -1.7453102E+00
   3.1063195E-04   1.5609330E+05   -1.7447344E+00
   3.1206648E-04   1.5484373E+05   -1.7441587E+00
   3.1350764E-04   1.5360457E+05   -1.7435830E+00
   3.1495545E-04   1.5237573E+05   -1.7430074E+00
   3.1640994E-04   1.5115712E+05   -1.7424319E+00
   3.1787116E-04   1.4994866E+05   -1.7418564E+00
   3.1933912E-04   1.4875025E+05   -1.7412810E+00
   3.2081386E-04   1.4756181E+05   -1.7407058E+00
   3.2229541E-04   1.4638325E+05   -1.7401306E+00
   3.2378381E-04   1.4521450E+05   -1.7395555E+00
   3.2527908E-04   1.4405545E+05   -1.7389806E+00
   3.2678125E-04   1.4290603E+05   -1.7384057E+00
   3.2829036E-04   1.4176617E+05   -1.7378310E+00
   3.2980644E-04   1.4063576E+05   -1.7372564E+00
   3.3132952E-04   1.3951474E+05   -1.7366819E+00
   3.3285963E-04   1.3840302E+05   -1.7361076E+00
   3.3439681E-04   1.3730052E+05   -1.7355334E+00
   3.3594109E-04   1.3620717E+05   -1.7349594E+00
   3.3749250E-04   1.3512287E+05   -1.7343855E+00
   3.3905108E-04   1.3404757E+05   -1.7338118E+00
   3.4061685E-04   1.3298117E+05   -1.7332383E+00
   3.4218986E-04   1.3192361E+05   -1.7326650E+00
   3.4377013E-04   1.3087480E+05   -1.7320918E+00
   3.4535769E-04   1.2983467E+05   -1.7315188E+00
   3.4695259E-04   1.2880315E+05   -1.7309460E+00
   3.4855485E-04   1.2778016E+05   -1.7303734E+00
   3.5016452E-04   1.2676564E+05   -1.7298010E+00
   3.5178161E-04   1.2575949E+05   -1.7292289E+00
   3.5340618E-04   1.2476166E+05   -1.7286569E+00
   3.5503824E-04   1.2377208E+05   -1.7280852E+00
   3.5667785E-04   1.2279067E+05   -1.7275137E+00
   3.5832502E-04   1.2181736E+05   -1.7269424E+00
   3.5997981E-04   1.2085208E+05   -1.7263714E+00
   3.6164223E-04   1.1989477E+05   -1.7258007E+00
   3.6331233E-04   1.1894535E+05   -1.7252301E+00
   3.6499015E-04   1.1800377E+05   -1.7246599E+00
   3.6667571E-04   1.1706994E+05   -1.7240899E+00
   3.6836906E-04   1.1614381E+05   -1.7235202E+00
   3.7007022E-04   1.1522530E+05   -1.7229507E+00
   3.7177925E-04   1.1431436E+05   -1.7223816E+00
   3.7349616E-04   1.1341092E+05   -1.7218127E+00
   3.7522101E-04   1.1251492E+05   -1.7212441E+00
   3.7695382E-04   1.1162628E+05   -1.7206759E+00
   3.7869463E-04   1.1074496E+05   -1.7201079E+00
   3.8044348E-04   1.0987088E+05   -1.7195402E+00
   3.8220041E-04   1.0900398E+05   -1.7189729E+00
   3.8396545E-04   1.0814421E+05   -1.7184059E+00
   3.8573864E-04   1.0729150E+05   -1.7178392E+00
   3.8752002E-04   1.0644578E+05   -1.7172728E+00
   3.8930963E-04   1.0560702E+05   -1.7167068E+00
   3.9110750E-04   1.0477513E+05   -1.7161412E+00
   3.9291368E-04   1.0395007E+05   -1.7155759E+00
   3.9472820E-04   1.0313177E+05   -1.7150109E+00
   3.9655109E-04   1.0232018E+05   -1.7144463E+00
   3.9838241E-04   1.0151524E+05   -1.7138821E+00
   4.0022218E-04   1.0071690E+05   -1.7133183E+00
   4.0207045E-04   9.9925091E+04   -1.7127548E+00
   4.0392725E-04   9.9139766E+04   -1.7121917E+00
   4.0579263E-04   9.8360869E+04   -1.7116290E+00
   4.0766662E-04   9.7588345E+04   -1.7110667E+00
   4.0954927E-04   9.6822138E+04   -1.7105048E+00
   4.1144061E-04   9.6062196E+04   -1.7099434E+00
   4.1334068E-04   9.5308465E+04   -1.7093823E+00
   4.1524953E-04   9.4560892E+04   -1.7088216E+00
   4.1716720E-04   9.3819425E+04   -1.7082614E+00
   4.1909372E-04   9.3084012E+04   -1.7077016E+00
   4.2102914E-04   9.2354602E+04   -1.7071423E+00
   4.2297350E-04   9.1631144E+04   -1.7065833E+00
   4.2492683E-04   9.0913587E+04   -1.7060249E+00
   4.2688919E-04   9.0201881E+04   -1.7054668E+00
   4.2886061E-04   8.9495977E+04   -1.7049093E+00
   4.3084113E-04   8.8795825E+04   -1.7043522E+00
   4.3283080E-04   8.8101377E+04   -1.7037955E+00
   4.3482966E-04   8.7412584E+04   -1.7032394E+00
   4.3683775E-04   8.6729398E+04   -1.7026837E+00
   4.3885511E-04   8.6051771E+04   -1.7021285E+00
   4.4088179E-04   8.5379658E+04   -1.7015738E+00
   4.4291783E-04   8.4713010E+04   -1.7010196E+00
   4.4496327E-04   8.4051782E+04   -1.7004659E+00
   4.4701816E-04   8.3395928E+04   -1.6999126E+00
   4.4908253E-04   8.2745403E+04   -1.6993599E+00
   4.5115644E-04   8.2100160E+04   -1.6988078E+00
   4.5323993E-04   8.1460157E+04   -1.6982561E+00
   4.5533304E-04   8.0825348E+04   -1.6977049E+00
   4.5743582E-04   8.0195690E+04   -1.6971543E+00
   4.5954830E-04   7.9571138E+04   -1.6966042E+00
   4.6167054E-04   7.8951651E+04   -1.6960547E+00
   4.6380259E-04   7.8337184E+04   -1.6955057E+00
   4.6594448E-04   7.7727697E+04   -1.6949573E+00
   4.6809626E-04   7.7123146E+04   -1.6944094E+00
   4.7025797E-04   7.6523490E+04   -1.6938621E+00
   4.7242967E-04   7.5928689E+04   -1.6933153E+00
   4.7461140E-04   7.5338700E+04   -1.6927691E+00
   4.7680321E-04   7.4753483E+04   -1.6922235E+00
   4.7900514E-04   7.4172999E+04   -1.6916784E+00
   4.8121723E-04   7.3597207E+04   -1.6911340E+00
   4.8343954E-04   7.3026068E+04   -1.6905901E+00
   4.8567212E-04   7.2459543E+04   -1.6900469E+00
   4.8791500E-04   7.1897593E+04   -1.6895042E+00
   4.9016825E-04   7.1340179E+04   -1.6889621E+00
   4.9243189E-04   7.0787263E+04   -1.6884207E+00
   4.9470600E-04   7.0238808E+04   -1.6878798E+00
   4.9699060E-04   6.9694776E+04   -1.6873396E+00
   4.9928575E-04   6.9155129E+04   -1.6868000E+00
   5.0159151E-04   6.8619832E+04   -1.6862610E+00
   5.0390791E-04   6.8088847E+04   -1.6857226E+00
   5.0623501E-04   6.7562138E+04   -1.6851849E+00
   5.0857286E-04   6.7039670E+04   -1.6846479E+00
   5.1092150E-04   6.6521406E+04   -1.6841114E+00
   5.1328099E-04   6.6007312E+04   -1.6835757E+00
   5.1565137E-04   6.5497353E+04   -1.6830405E+00
   5.1803270E-04   6.4991494E+04   -1.6825061E+00
   5.2042503E-04   6.4489701E+04   -1.6819723E+00
   5.2282841E-04   6.3991939E+04   -1.6814392E+00
   5.2524289E-04   6.3498174E+04   -1.6809067E+00
   5.2766851E-04   6.3008375E+04   -1.6803749E+00
   5.3010534E-04   6.2522506E+04   -1.6798438E+00
   5.3255342E-04   6.2040536E+04   -1.6793134E+00
   5.3501281E-04   6.1562431E+04   -1.6787837E+00
   5.3748356E-04   6.1088160E+04   -1.6782546E+00
   5.3996571E-04   6.0617690E+04   -1.6777263E+00
   5.4245933E-04   6.0150990E+04   -1.6771987E+00
   5.4496446E-04   5.9688028E+04   -1.6766717E+00
   5.4748117E-04   5.9228773E+04   -1.6761455E+00
   5.5000949E-04   5.8773195E+04   -1.6756200E+00
   5.5254949E-04   5.8321261E+04   -1.6750952E+00
   5.5510123E-04   5.7872943E+04   -1.6745712E+00
   5.5766474E-04   5.7428209E+04   -1.6740478E+00
   5.6024010E-04   5.6987030E+04   -1.6735252E+00
   5.6282734E-04   5.6549376E+04   -1.6730034E+00
   5.6542654E-04   5.6115219E+04   -1.6724822E+00
   5.6803774E-04   5.5684528E+04   -1.6719619E+00
   5.7066099E-04   5.5257275E+04   -1.6714422E+00
   5.7329637E-04   5.4833432E+04   -1.6709233E+00
   5.7594391E-04   5.4412970E+04   -1.6704052E+00
   5.7860368E-04   5.3995860E+04   -1.6698878E+00
   5.8127573E-04   5.3582076E+04   -1.6693712E+00
   5.8396012E-04   5.3171589E+04   -1.6688554E+00
   5.8665691E-04   5.2764372E+04   -1.6683403E+00
   5.8936616E-04   5.2360398E+04   -1.6678260E+00
   5.9208791E-04   5.1959640E+04   -1.6673125E+00
   5.9482223E-04   5.1562071E+04   -1.6667997E+00
   5.9756919E-04   5.1167665E+04   -1.6662877E+00
   6.0032882E-04   5.0776396E+04   -1.6657766E+00
   6.0310120E-04   5.0388237E+04   -1.6652662E+00
   6.0588639E-04   5.0003162E+04   -1.6647566E+00
   6.0868443E-04   4.9621147E+04   -1.6642478E+00
   6.1149540E-04   4.9242166E+04   -1.6637398E+00
   6.1431935E-04   4.8866194E+04   -1.6632326E+00
   6.1715634E-04   4.8493205E+04   -1.6627263E+00
   6.2000644E-04   4.8123176E+04   -1.6622207E+00
   6.2286969E-04   4.7756081E+04   -1.6617160E+00
