#        a       HoverH0(a)       dlogHdloga_of_a(a)
   1.0000000E-04   1.1152398E+06   -1.8914084E+00
   1.0046181E-04   1.1055642E+06   -1.8910162E+00
   1.0092575E-04   1.0959744E+06   -1.8906230E+00
   1.0139184E-04   1.0864698E+06   -1.8902287E+00
   1.0186008E-04   1.0770497E+06   -1.8898335E+00
   1.0233048E-04   1.0677131E+06   -1.8894372E+00
   1.0280305E-04   1.0584594E+06   -1.8890399E+00
   1.0327781E-04   1.0492878E+06   -1.8886416E+00
   1.0375475E-04   1.0401976E+06   -1.8882423E+00
   1.0423390E-04   1.0311881E+06   -1.8878419E+00
   1.0471527E-04   1.0222584E+06   -1.8874405E+00
   1.0519885E-04   1.0134080E+06   -1.8870382E+00
   1.0568467E-04   1.0046361E+06   -1.8866347E+00
   1.0617274E-04   9.9594195E+05   -1.8862303E+00
   1.0666305E-04   9.8732488E+05   -1.8858249E+00
   1.0715563E-04   9.7878421E+05   -1.8854184E+00
   1.0765049E-04   9.7031923E+05   -1.8850110E+00
   1.0814763E-04   9.6192927E+05   -1.8846025E+00
   1.0864707E-04   9.5361365E+05   -1.8841930E+00
   1.0914881E-04   9.4537170E+05   -1.8837824E+00
   1.0965287E-04   9.3720276E+05   -1.8833709E+00
   1.1015926E-04   9.2910618E+05   -1.8829584E+00
   1.1066799E-04   9.2108129E+05   -1.8825448E+00
   1.1117906E-04   9.1312746E+05   -1.8821302E+00
   1.1169250E-04   9.0524404E+05   -1.8817147E+00
   1.1220831E-04   8.9743040E+05   -1.8812981E+00
   1.1272650E-04   8.8968592E+05   -1.8808805E+00
   1.1324708E-04   8.8200996E+05   -1.8804619E+00
   1.1377007E-04   8.7440193E+05   -1.8800423E+00
   1.1429547E-04   8.6686120E+05   -1.8796216E+00
   1.1482330E-04   8.5938716E+05   -1.8792000E+00
   1.1535356E-04   8.5197922E+05   -1.8787774E+00
   1.1588628E-04   8.4463679E+05   -1.8783537E+00
   1.1642145E-04   8.3735927E+05   -1.8779291E+00
   1.1695910E-04   8.3014608E+05   -1.8775035E+00
   1.1749923E-04   8.2299664E+05   -1.8770768E+00
   1.1804185E-04   8.1591038E+05   -1.8766492E+00
   1.1858698E-04   8.0888673E+05   -1.8762205E+00
   1.1913463E-04   8.0192512E+05   -1.8757909E+00
   1.1968481E-04   7.9502501E+05   -1.8753602E+00
   1.2023752E-04   7.8818584E+05   -1.8749286E+00
   1.2079279E-04   7.8140705E+05   -1.8744960E+00
   1.2135063E-04   7.7468812E+05   -1.8740623E+00
   1.2191104E-04   7.6802849E+05   -1.8736277E+00
   1.2247403E-04   7.6142764E+05   -1.8731921E+00
   1.2303963E-04   7.5488503E+05   -1.8727555E+00
   1.2360784E-04   7.4840015E+05   -1.8723179E+00
   1.2417868E-04   7.4197248E+05   -1.8718793E+00
   1.2475215E-04   7.3560150E+05   -1.8714398E+00
   1.2532826E-04   7.2928670E+05   -1.8709992E+00
   1.2590704E-04   7.2302758E+05   -1.8705577E+00
   1.2648850E-04   7.1682364E+05   -1.8701152E+00
   1.2707263E-04   7.1067438E+05   -1.8696717E+00
   1.2765947E-04   7.0457932E+05   -1.8692272E+00
   1.2824901E-04   6.9853796E+05   -1.8687818E+00
   1.2884128E-04   6.9254983E+05   -1.8683353E+00
   1.2943628E-04   6.8661444E+05   -1.8678879E+00
   1.3003403E-04   6.8073133E+05   -1.8674396E+00
   1.3063454E-04   6.7490002E+05   -1.8669902E+00
   1.3123783E-04   6.6912005E+05   -1.8665399E+00
   1.3184390E-04   6.6339096E+05   -1.8660886E+00
   1.3245277E-04   6.5771229E+05   -1.8656363E+00
   1.3306445E-04   6.5208359E+05   -1.8651831E+00
   1.3367895E-04   6.4650441E+05   -1.8647289E+00
   1.3429630E-04   6.4097431E+05   -1.8642738E+00
   1.3491649E-04   6.3549284E+05   -1.8638177E+00
   1.3553955E-04   6.3005958E+05   -1.8633606E+00
   1.3616548E-04   6.2467409E+05   -1.8629026E+00
   1.3679431E-04   6.1933594E+05   -1.8624436E+00
   1.3742604E-04   6.1404471E+05   -1.8619837E+00
   1.3806069E-04   6.0879998E+05   -1.8615228E+00
   1.3869827E-04   6.0360132E+05   -1.8610610E+00
   1.3933879E-04   5.9844833E+05   -1.8605982E+00
   1.3998227E-04   5.9334060E+05   -1.8601345E+00
   1.4062872E-04   5.8827772E+05   -1.8596699E+00
   1.4127816E-04   5.8325929E+05   -1.8592043E+00
   1.4193060E-04   5.7828491E+05   -1.8587377E+00
   1.4258605E-04   5.7335420E+05   -1.8582703E+00
   1.4324453E-04   5.6846674E+05   -1.8578019E+00
   1.4390605E-04   5.6362217E+05   -1.8573325E+00
   1.4457062E-04   5.5882010E+05   -1.8568623E+00
   1.4523826E-04   5.5406014E+05   -1.8563911E+00
   1.4590899E-04   5.4934192E+05   -1.8559189E+00
   1.4658281E-04   5.4466506E+05   -1.8554459E+00
   1.4725974E-04   5.4002920E+05   -1.8549719E+00
   1.4793981E-04   5.3543397E+05   -1.8544971E+00
   1.4862301E-04   5.3087900E+05   -1.8540213E+00
   1.4930936E-04   5.2636394E+05   -1.8535446E+00
   1.4999889E-04   5.2188842E+05   -1.8530669E+00
   1.5069160E-04   5.1745210E+05   -1.8525884E+00
   1.5138751E-04   5.1305462E+05   -1.8521090E+00
   1.5208663E-04   5.0869563E+05   -1.8516286E+00
   1.5278899E-04   5.0437480E+05   -1.8511474E+00
   1.5349458E-04   5.0009178E+05   -1.8506653E+00
   1.5420343E-04   4.9584623E+05   -1.8501822E+00
   1.5491556E-04   4.9163782E+05   -1.8496983E+00
   1.5563098E-04   4.8746622E+05   -1.8492135E+00
   1.5634970E-04   4.8333109E+05   -1.8487278E+00
   1.5707174E-04   4.7923212E+05   -1.8482412E+00
   1.5779711E-04   4.7516897E+05   -1.8477537E+00
   1.5852584E-04   4.7114133E+05   -1.8472654E+00
   1.5925792E-04   4.6714888E+05   -1.8467762E+00
   1.5999339E-04   4.6319131E+05   -1.8462861E+00
   1.6073226E-04   4.5926830E+05   -1.8457951E+00
   1.6147454E-04   4.5537956E+05   -1.8453033E+00
   1.6222024E-04   4.5152476E+05   -1.8448106E+00
   1.6296939E-04   4.4770361E+05   -1.8443170E+00
   1.6372200E-04   4.4391581E+05   -1.8438226E+00
   1.6447809E-04   4.4016106E+05   -1.8433273E+00
   1.6523767E-04   4.3643906E+05   -1.8428312E+00
   1.6600075E-04   4.3274953E+05   -1.8423342E+00
   1.6676736E-04   4.2909217E+05   -1.8418363E+00
   1.6753751E-04   4.2546670E+05   -1.8413377E+00
   1.6831122E-04   4.2187283E+05   -1.8408382E+00
   1.6908849E-04   4.1831028E+05   -1.8403378E+00
   1.6986936E-04   4.1477878E+05   -1.8398366E+00
   1.7065384E-04   4.1127803E+05   -1.8393346E+00
   1.7144193E-04   4.0780778E+05   -1.8388318E+00
   1.7223367E-04   4.0436774E+05   -1.8383281E+00
   1.7302906E-04   4.0095766E+05   -1.8378236E+00
   1.7382813E-04   3.9757726E+05   -1.8373183E+00
   1.7463089E-04   3.9422628E+05   -1.8368122E+00
   1.7543735E-04   3.9090445E+05   -1.8363053E+00
   1.7624754E-04   3.8761152E+05   -1.8357975E+00
   1.7706147E-04   3.8434723E+05   -1.8352890E+00
   1.7787916E-04   3.8111132E+05   -1.8347797E+00
   1.7870062E-04   3.7790354E+05   -1.8342695E+00
   1.7952588E-04   3.7472364E+05   -1.8337586E+00
   1.8035495E-04   3.7157138E+05   -1.8332469E+00
   1.8118785E-04   3.6844651E+05   -1.8327344E+00
   1.8202459E-04   3.6534877E+05   -1.8322211E+00
   1.8286520E-04   3.6227794E+05   -1.8317070E+00
   1.8370969E-04   3.5923377E+05   -1.8311922E+00
   1.8455808E-04   3.5621603E+05   -1.8306766E+00
   1.8541039E-04   3.5322448E+05   -1.8301602E+00
   1.8626663E-04   3.5025888E+05   -1.8296430E+00
   1.8712683E-04   3.4731901E+05   -1.8291251E+00
   1.8799100E-04   3.4440464E+05   -1.8286065E+00
   1.8885917E-04   3.4151554E+05   -1.8280871E+00
   1.8973134E-04   3.3865149E+05   -1.8275669E+00
   1.9060754E-04   3.3581226E+05   -1.8270460E+00
   1.9148778E-04   3.3299764E+05   -1.8265243E+00
   1.9237209E-04   3.3020740E+05   -1.8260020E+00
   1.9326049E-04   3.2744133E+05   -1.8254788E+00
   1.9415299E-04   3.2469921E+05   -1.8249550E+00
   1.9504960E-04   3.2198083E+05   -1.8244304E+00
   1.9595036E-04   3.1928599E+05   -1.8239051E+00
   1.9685528E-04   3.1661446E+05   -1.8233791E+00
   1.9776438E-04   3.1396606E+05   -1.8228524E+00
   1.9867768E-04   3.1134056E+05   -1.8223250E+00
   1.9959519E-04   3.0873776E+05   -1.8217969E+00
   2.0051694E-04   3.0615747E+05   -1.8212680E+00
   2.0144295E-04   3.0359949E+05   -1.8207385E+00
   2.0237324E-04   3.0106361E+05   -1.8202083E+00
   2.0330782E-04   2.9854965E+05   -1.8196774E+00
   2.0424671E-04   2.9605740E+05   -1.8191458E+00
   2.0518995E-04   2.9358667E+05   -1.8186136E+00
   2.0613754E-04   2.9113728E+05   -1.8180806E+00
   2.0708950E-04   2.8870904E+05   -1.8175470E+00
   2.0804586E-04   2.8630175E+05   -1.8170127E+00
   2.0900664E-04   2.8391523E+05   -1.8164778E+00
   2.0997185E-04   2.8154930E+05   -1.8159422E+00
   2.1094152E-04   2.7920378E+05   -1.8154060E+00
   2.1191567E-04   2.7687848E+05   -1.8148691E+00
   2.1289432E-04   2.7457322E+05   -1.8143316E+00
   2.1387749E-04   2.7228784E+05   -1.8137934E+00
   2.1486520E-04   2.7002214E+05   -1.8132546E+00
   2.1585747E-04   2.6777597E+05   -1.8127152E+00
   2.1685432E-04   2.6554913E+05   -1.8121751E+00
   2.1785578E-04   2.6334148E+05   -1.8116344E+00
   2.1886186E-04   2.6115282E+05   -1.8110932E+00
   2.1987259E-04   2.5898301E+05   -1.8105513E+00
   2.2088798E-04   2.5683186E+05   -1.8100087E+00
   2.2190807E-04   2.5469922E+05   -1.8094656E+00
   2.2293286E-04   2.5258492E+05   -1.8089219E+00
   2.2396239E-04   2.5048880E+05   -1.8083777E+00
   2.2499667E-04   2.4841070E+05   -1.8078328E+00
   2.2603573E-04   2.4635045E+05   -1.8072873E+00
   2.2707958E-04   2.4430791E+05   -1.8067413E+00
   2.2812826E-04   2.4228291E+05   -1.8061947E+00
   2.2918178E-04   2.4027530E+05   -1.8056475E+00
   2.3024017E-04   2.3828493E+05   -1.8050998E+00
   2.3130344E-04   2.3631164E+05   -1.8045515E+00
   2.3237162E-04   2.3435529E+05   -1.8040026E+00
   2.3344474E-04   2.3241572E+05   -1.8034532E+00
   2.3452281E-04   2.3049279E+05   -1.8029033E+00
   2.3560586E-04   2.2858634E+05   -1.8023528E+00
   2.3669392E-04   2.2669624E+05   -1.8018018E+00
   2.3778699E-04   2.2482234E+05   -1.8012503E+00
   2.3888512E-04   2.2296450E+05   -1.8006982E+00
   2.3998831E-04   2.2112257E+05   -1.8001457E+00
   2.4109661E-04   2.1929642E+05   -1.7995926E+00
   2.4221001E-04   2.1748590E+05   -1.7990390E+00
   2.4332857E-04   2.1569088E+05   -1.7984849E+00
   2.4445228E-04   2.1391122E+05   -1.7979303E+00
   2.4558119E-04   2.1214679E+05   -1.7973753E+00
   2.4671531E-04   2.1039745E+05   -1.7968197E+00
   2.4785467E-04   2.0866307E+05   -1.7962637E+00
   2.4899928E-04   2.0694351E+05   -1.7957072E+00
   2.5014919E-04   2.0523866E+05   -1.7951502E+00
   2.5130440E-04   2.0354837E+05   -1.7945927E+00
   2.5246495E-04   2.0187252E+05   -1.7940348E+00
   2.5363086E-04   2.0021098E+05   -1.7934765E+00
   2.5480216E-04   1.9856363E+05   -1.7929177E+00
   2.5597886E-04   1.9693034E+05   -1.7923584E+00
   2.5716100E-04   1.9531099E+05   -1.7917987E+00
   2.5834859E-04   1.9370546E+05   -1.7912386E+00
   2.5954168E-04   1.9211362E+05   -1.7906781E+00
   2.6074027E-04   1.9053535E+05   -1.7901171E+00
   2.6194439E-04   1.8897054E+05   -1.7895557E+00
   2.6315408E-04   1.8741906E+05   -1.7889939E+00
   2.6436935E-04   1.8588081E+05   -1.7884317E+00
   2.6559024E-04   1.8435565E+05   -1.7878691E+00
   2.6681676E-04   1.8284349E+05   -1.7873061E+00
   2.6804895E-04   1.8134419E+05   -1.7867428E+00
   2.6928683E-04   1.7985766E+05   -1.7861790E+00
   2.7053042E-04   1.7838378E+05   -1.7856149E+00
   2.7177976E-04   1.7692244E+05   -1.7850504E+00
   2.7303487E-04   1.7547352E+05   -1.7844855E+00
   2.7429577E-04   1.7403693E+05   -1.7839203E+00
   2.7556250E-04   1.7261254E+05   -1.7833547E+00
   2.7683507E-04   1.7120026E+05   -1.7827887E+00
   2.7811353E-04   1.6979997E+05   -1.7822225E+00
   2.7939788E-04   1.6841158E+05   -1.7816559E+00
   2.8068817E-04   1.6703498E+05   -1.7810889E+00
   2.8198442E-04   1.6567006E+05   -1.7805216E+00
   2.8328665E-04   1.6431673E+05   -1.7799541E+00
   2.8459490E-04   1.6297488E+05   -1.7793861E+00
   2.8590919E-04   1.6164441E+05   -1.7788179E+00
   2.8722955E-04   1.6032522E+05   -1.7782494E+00
   2.8855600E-04   1.5901721E+05   -1.7776806E+00
   2.8988859E-04   1.5772029E+05   -1.7771115E+00
   2.9122732E-04   1.5643435E+05   -1.7765421E+00
   2.9257224E-04   1.5515931E+05   -1.7759725E+00
   2.9392337E-04   1.5389506E+05   -1.7754025E+00
   2.9528074E-04   1.5264151E+05   -1.7748323E+00
   2.9664438E-04   1.5139858E+05   -1.7742618E+00
   2.9801431E-04   1.5016616E+05   -1.7736911E+00
   2.9939057E-04   1.4894416E+05   -1.7731202E+00
   3.0077319E-04   1.4773250E+05   -1.7725489E+00
   3.0216219E-04   1.4653108E+05   -1.7719775E+00
   3.0355761E-04   1.4533981E+05   -1.7714058E+00
   3.0495947E-04   1.4415861E+05   -1.7708339E+00
   3.0636780E-04   1.4298738E+05   -1.7702617E+00
   3.0778264E-04   1.4182604E+05   -1.7696894E+00
   3.0920401E-04   1.4067451E+05   -1.7691168E+00
   3.1063195E-04   1.3953269E+05   -1.7685441E+00
   3.1206648E-04   1.3840051E+05   -1.7679711E+00
   3.1350764E-04   1.3727788E+05   -1.7673980E+00
   3.1495545E-04   1.3616471E+05   -1.7668246E+00
   3.1640994E-04   1.3506093E+05   -1.7662511E+00
   3.1787116E-04   1.3396644E+05   -1.7656775E+00
   3.1933912E-04   1.3288118E+05   -1.7651036E+00
   3.2081386E-04   1.3180506E+05   -1.7645296E+00
   3.2229541E-04   1.3073800E+05   -1.7639554E+00
   3.2378381E-04   1.2967992E+05   -1.7633811E+00
   3.2527908E-04   1.2863074E+05   -1.7628067E+00
   3.2678125E-04   1.2759039E+05   -1.7622321E+00
   3.2829036E-04   1.2655879E+05   -1.7616574E+00
   3.2980644E-04   1.2553587E+05   -1.7610825E+00
   3.3132952E-04   1.2452154E+05   -1.7605076E+00
   3.3285963E-04   1.2351573E+05   -1.7599325E+00
   3.3439681E-04   1.2251837E+05   -1.7593573E+00
   3.3594109E-04   1.2152939E+05   -1.7587820E+00
   3.3749250E-04   1.2054871E+05   -1.7582066E+00
   3.3905108E-04   1.1957626E+05   -1.7576312E+00
   3.4061685E-04   1.1861197E+05   -1.7570556E+00
   3.4218986E-04   1.1765577E+05   -1.7564800E+00
   3.4377013E-04   1.1670759E+05   -1.7559043E+00
   3.4535769E-04   1.1576735E+05   -1.7553286E+00
   3.4695259E-04   1.1483500E+05   -1.7547528E+00
   3.4855485E-04   1.1391045E+05   -1.7541769E+00
   3.5016452E-04   1.1299365E+05   -1.7536010E+00
   3.5178161E-04   1.1208453E+05   -1.7530251E+00
   3.5340618E-04   1.1118301E+05   -1.7524491E+00
   3.5503824E-04   1.1028904E+05   -1.7518731E+00
   3.5667785E-04   1.0940255E+05   -1.7512971E+00
   3.5832502E-04   1.0852347E+05   -1.7507210E+00
   3.5997981E-04   1.0765174E+05   -1.7501450E+00
   3.6164223E-04   1.0678730E+05   -1.7495689E+00
   3.6331233E-04   1.0593008E+05   -1.7489929E+00
   3.6499015E-04   1.0508001E+05   -1.7484168E+00
   3.6667571E-04   1.0423705E+05   -1.7478408E+00
   3.6836906E-04   1.0340112E+05   -1.7472648E+00
   3.7007022E-04   1.0257217E+05   -1.7466888E+00
   3.7177925E-04   1.0175014E+05   -1.7461129E+00
   3.7349616E-04   1.0093496E+05   -1.7455370E+00
   3.7522101E-04   1.0012658E+05   -1.7449612E+00
   3.7695382E-04   9.9324932E+04   -1.7443854E+00
   3.7869463E-04   9.8529967E+04   -1.7438096E+00
   3.8044348E-04   9.7741624E+04   -1.7432340E+00
   3.8220041E-04   9.6959846E+04   -1.7426584E+00
   3.8396545E-04   9.6184575E+04   -1.7420828E+00
   3.8573864E-04   9.5415757E+04   -1.7415074E+00
   3.8752002E-04   9.4653335E+04   -1.7409320E+00
   3.8930963E-04   9.3897253E+04   -1.7403568E+00
   3.9110750E-04   9.3147458E+04   -1.7397816E+00
   3.9291368E-04   9.2403895E+04   -1.7392066E+00
   3.9472820E-04   9.1666511E+04   -1.7386316E+00
   3.9655109E-04   9.0935252E+04   -1.7380568E+00
   3.9838241E-04   9.0210065E+04   -1.7374821E+00
   4.0022218E-04   8.9490898E+04   -1.7369076E+00
   4.0207045E-04   8.8777700E+04   -1.7363332E+00
   4.0392725E-04   8.8070419E+04   -1.7357589E+00
   4.0579263E-04   8.7369003E+04   -1.7351848E+00
   4.0766662E-04   8.6673404E+04   -1.7346108E+00
   4.0954927E-04   8.5983569E+04   -1.7340370E+00
   4.1144061E-04   8.5299451E+04   -1.7334633E+00
   4.1334068E-04   8.4620999E+04   -1.7328899E+00
   4.1524953E-04   8.3948165E+04   -1.7323166E+00
   4.1716720E-04   8.3280901E+04   -1.7317435E+00
   4.1909372E-04   8.2619158E+04   -1.7311706E+00
   4.2102914E-04   8.1962891E+04   -1.7305978E+00
   4.2297350E-04   8.1312050E+04   -1.7300253E+00
   4.2492683E-04   8.0666591E+04   -1.7294530E+00
   4.2688919E-04   8.0026466E+04   -1.7288810E+00
   4.2886061E-04   7.9391630E+04   -1.7283091E+00
   4.3084113E-04   7.8762038E+04   -1.7277375E+00
   4.3283080E-04   7.8137644E+04   -1.7271661E+00
   4.3482966E-04   7.7518404E+04   -1.7265949E+00
   4.3683775E-04   7.6904275E+04   -1.7260240E+00
   4.3885511E-04   7.6295211E+04   -1.7254533E+00
   4.4088179E-04   7.5691169E+04   -1.7248829E+00
   4.4291783E-04   7.5092107E+04   -1.7243128E+00
   4.4496327E-04   7.4497982E+04   -1.7237429E+00
   4.4701816E-04   7.3908752E+04   -1.7231733E+00
   4.4908253E-04   7.3324375E+04   -1.7226040E+00
   4.5115644E-04   7.2744809E+04   -1.7220349E+00
   4.5323993E-04   7.2170013E+04   -1.7214662E+00
   4.5533304E-04   7.1599947E+04   -1.7208978E+00
   4.5743582E-04   7.1034569E+04   -1.7203296E+00
   4.5954830E-04   7.0473840E+04   -1.7197618E+00
   4.6167054E-04   6.9917721E+04   -1.7191943E+00
   4.6380259E-04   6.9366171E+04   -1.7186271E+00
   4.6594448E-04   6.8819152E+04   -1.7180602E+00
   4.6809626E-04   6.8276625E+04   -1.7174937E+00
   4.7025797E-04   6.7738551E+04   -1.7169275E+00
   4.7242967E-04   6.7204893E+04   -1.7163616E+00
   4.7461140E-04   6.6675614E+04   -1.7157961E+00
   4.7680321E-04   6.6150675E+04   -1.7152310E+00
   4.7900514E-04   6.5630039E+04   -1.7146662E+00
   4.8121723E-04   6.5113671E+04   -1.7141018E+00
   4.8343954E-04   6.4601534E+04   -1.7135377E+00
   4.8567212E-04   6.4093591E+04   -1.7129740E+00
   4.8791500E-04   6.3589807E+04   -1.7124107E+00
   4.9016825E-04   6.3090146E+04   -1.7118478E+00
   4.9243189E-04   6.2594574E+04   -1.7112853E+00
   4.9470600E-04   6.2103055E+04   -1.7107232E+00
   4.9699060E-04   6.1615556E+04   -1.7101615E+00
   4.9928575E-04   6.1132041E+04   -1.7096003E+00
   5.0159151E-04   6.0652478E+04   -1.7090394E+00
   5.0390791E-04   6.0176832E+04   -1.7084789E+00
   5.0623501E-04   5.9705070E+04   -1.7079189E+00
   5.0857286E-04   5.9237160E+04   -1.7073593E+00
   5.1092150E-04   5.8773068E+04   -1.7068002E+00
   5.1328099E-04   5.8312762E+04   -1.7062415E+00
   5.1565137E-04   5.7856210E+04   -1.7056832E+00
   5.1803270E-04   5.7403380E+04   -1.7051254E+00
   5.2042503E-04   5.6954241E+04   -1.7045681E+00
   5.2282841E-04   5.6508761E+04   -1.7040112E+00
   5.2524289E-04   5.6066909E+04   -1.7034548E+00
   5.2766851E-04   5.5628654E+04   -1.7028988E+00
   5.3010534E-04   5.5193967E+04   -1.7023434E+00
   5.3255342E-04   5.4762816E+04   -1.7017884E+00
   5.3501281E-04   5.4335172E+04   -1.7012340E+00
   5.3748356E-04   5.3911006E+04   -1.7006800E+00
   5.3996571E-04   5.3490287E+04   -1.7001265E+00
   5.4245933E-04   5.3072986E+04   -1.6995735E+00
   5.4496446E-04   5.2659076E+04   -1.6990211E+00
   5.4748117E-04   5.2248526E+04   -1.6984691E+00
   5.5000949E-04   5.1841309E+04   -1.6979177E+00
   5.5254949E-04   5.1437396E+04   -1.6973668E+00
   5.5510123E-04   5.1036760E+04   -1.6968165E+00
   5.5766474E-04   5.0639372E+04   -1.6962667E+00
   5.6024010E-04   5.0245206E+04   -1.6957174E+00
   5.6282734E-04   4.9854234E+04   -1.6951687E+00
   5.6542654E-04   4.9466429E+04   -1.6946205E+00
   5.6803774E-04   4.9081765E+04   -1.6940729E+00
   5.7066099E-04   4.8700215E+04   -1.6935258E+00
   5.7329637E-04   4.8321753E+04   -1.6929794E+00
   5.7594391E-04   4.7946353E+04   -1.6924334E+00
   5.7860368E-04   4.7573988E+04   -1.6918881E+00
   5.8127573E-04   4.7204634E+04   -1.6913434E+00
   5.8396012E-04   4.6838266E+04   -1.6907992E+00
   5.8665691E-04   4.6474857E+04   -1.6902556E+00
   5.8936616E-04   4.6114383E+04   -1.6897126E+00
   5.9208791E-04   4.5756819E+04   -1.6891703E+00
   5.9482223E-04   4.5402142E+04   -1.6886285E+00
   5.9756919E-04   4.5050326E+04   -1.6880873E+00
   6.0032882E-04   4.4701347E+04   -1.6875468E+00
   6.0310120E-04   4.4355182E+04   -1.6870069E+00
   6.0588639E-04   4.4011808E+04   -1.6864676E+00
   6.0868443E-04   4.3671200E+04   -1.6859289E+00
   6.1149540E-04   4.3333335E+04   -1.6853909E+00
   6.1431935E-04   4.2998191E+04   -1.6848535E+00
   6.1715634E-04   4.2665745E+04   -1.6843167E+00
   6.2000644E-04   4.2335973E+04   -1.6837806E+00
   6.2286969E-04   4.2008855E+04   -1.6832452E+00
