#        a       HoverH0(a)       dlogHdloga_of_a(a)
   1.0000000E-04   1.1144818E+06   -1.8582355E+00
   1.0046181E-04   1.1049818E+06   -1.8577670E+00
   1.0092575E-04   1.0955651E+06   -1.8572976E+00
   1.0139184E-04   1.0862311E+06   -1.8568273E+00
   1.0186008E-04   1.0769789E+06   -1.8563561E+00
   1.0233048E-04   1.0678078E+06   -1.8558839E+00
   1.0280305E-04   1.0587171E+06   -1.8554108E+00
   1.0327781E-04   1.0497061E+06   -1.8549368E+00
   1.0375475E-04   1.0407741E+06   -1.8544619E+00
   1.0423390E-04   1.0319203E+06   -1.8539860E+00
   1.0471527E-04   1.0231442E+06   -1.8535092E+00
   1.0519885E-04   1.0144448E+06   -1.8530316E+00
   1.0568467E-04   1.0058217E+06   -1.8525530E+00
   1.0617274E-04   9.9727403E+05   -1.8520735E+00
   1.0666305E-04   9.8880121E+05   -1.8515931E+00
   1.0715563E-04   9.8040255E+05   -1.8511118E+00
   1.0765049E-04   9.7207739E+05   -1.8506296E+00
   1.0814763E-04   9.6382506E+05   -1.8501466E+00
   1.0864707E-04   9.5564492E+05   -1.8496626E+00
   1.0914881E-04   9.4753632E+05   -1.8491777E+00
   1.0965287E-04   9.3949862E+05   -1.8486920E+00
   1.1015926E-04   9.3153118E+05   -1.8482053E+00
   1.1066799E-04   9.2363339E+05   -1.8477178E+00
   1.1117906E-04   9.1580462E+05   -1.8472294E+00
   1.1169250E-04   9.0804425E+05   -1.8467401E+00
   1.1220831E-04   9.0035167E+05   -1.8462500E+00
   1.1272650E-04   8.9272627E+05   -1.8457590E+00
   1.1324708E-04   8.8516747E+05   -1.8452671E+00
   1.1377007E-04   8.7767465E+05   -1.8447743E+00
   1.1429547E-04   8.7024724E+05   -1.8442807E+00
   1.1482330E-04   8.6288465E+05   -1.8437863E+00
   1.1535356E-04   8.5558630E+05   -1.8432909E+00
   1.1588628E-04   8.4835162E+05   -1.8427948E+00
   1.1642145E-04   8.4118004E+05   -1.8422977E+00
   1.1695910E-04   8.3407099E+05   -1.8417999E+00
   1.1749923E-04   8.2702393E+05   -1.8413011E+00
   1.1804185E-04   8.2003829E+05   -1.8408016E+00
   1.1858698E-04   8.1311352E+05   -1.8403012E+00
   1.1913463E-04   8.0624910E+05   -1.8398000E+00
   1.1968481E-04   7.9944447E+05   -1.8392979E+00
   1.2023752E-04   7.9269911E+05   -1.8387950E+00
   1.2079279E-04   7.8601248E+05   -1.8382913E+00
   1.2135063E-04   7.7938407E+05   -1.8377868E+00
   1.2191104E-04   7.7281336E+05   -1.8372815E+00
   1.2247403E-04   7.6629983E+05   -1.8367753E+00
   1.2303963E-04   7.5984296E+05   -1.8362683E+00
   1.2360784E-04   7.5344227E+05   -1.8357606E+00
   1.2417868E-04   7.4709724E+05   -1.8352520E+00
   1.2475215E-04   7.4080738E+05   -1.8347426E+00
   1.2532826E-04   7.3457220E+05   -1.8342324E+00
   1.2590704E-04   7.2839122E+05   -1.8337214E+00
   1.2648850E-04   7.2226394E+05   -1.8332097E+00
   1.2707263E-04   7.1618990E+05   -1.8326971E+00
   1.2765947E-04   7.1016862E+05   -1.8321838E+00
   1.2824901E-04   7.0419963E+05   -1.8316697E+00
   1.2884128E-04   6.9828246E+05   -1.8311548E+00
   1.2943628E-04   6.9241666E+05   -1.8306392E+00
   1.3003403E-04   6.8660177E+05   -1.8301228E+00
   1.3063454E-04   6.8083733E+05   -1.8296056E+00
   1.3123783E-04   6.7512289E+05   -1.8290877E+00
   1.3184390E-04   6.6945802E+05   -1.8285690E+00
   1.3245277E-04   6.6384227E+05   -1.8280495E+00
   1.3306445E-04   6.5827520E+05   -1.8275293E+00
   1.3367895E-04   6.5275638E+05   -1.8270084E+00
   1.3429630E-04   6.4728539E+05   -1.8264867E+00
   1.3491649E-04   6.4186179E+05   -1.8259643E+00
   1.3553955E-04   6.3648517E+05   -1.8254412E+00
   1.3616548E-04   6.3115512E+05   -1.8249173E+00
   1.3679431E-04   6.2587121E+05   -1.8243927E+00
   1.3742604E-04   6.2063303E+05   -1.8238674E+00
   1.3806069E-04   6.1544019E+05   -1.8233413E+00
   1.3869827E-04   6.1029228E+05   -1.8228146E+00
   1.3933879E-04   6.0518890E+05   -1.8222871E+00
   1.3998227E-04   6.0012965E+05   -1.8217590E+00
   1.4062872E-04   5.9511414E+05   -1.8212301E+00
   1.4127816E-04   5.9014199E+05   -1.8207006E+00
   1.4193060E-04   5.8521281E+05   -1.8201703E+00
   1.4258605E-04   5.8032622E+05   -1.8196394E+00
   1.4324453E-04   5.7548184E+05   -1.8191078E+00
   1.4390605E-04   5.7067930E+05   -1.8185755E+00
   1.4457062E-04   5.6591823E+05   -1.8180426E+00
   1.4523826E-04   5.6119826E+05   -1.8175089E+00
   1.4590899E-04   5.5651902E+05   -1.8169746E+00
   1.4658281E-04   5.5188016E+05   -1.8164397E+00
   1.4725974E-04   5.4728132E+05   -1.8159041E+00
   1.4793981E-04   5.4272213E+05   -1.8153678E+00
   1.4862301E-04   5.3820226E+05   -1.8148309E+00
   1.4930936E-04   5.3372135E+05   -1.8142934E+00
   1.4999889E-04   5.2927906E+05   -1.8137552E+00
   1.5069160E-04   5.2487505E+05   -1.8132164E+00
   1.5138751E-04   5.2050897E+05   -1.8126769E+00
   1.5208663E-04   5.1618050E+05   -1.8121368E+00
   1.5278899E-04   5.1188929E+05   -1.8115961E+00
   1.5349458E-04   5.0763503E+05   -1.8110548E+00
   1.5420343E-04   5.0341738E+05   -1.8105129E+00
   1.5491556E-04   4.9923602E+05   -1.8099704E+00
   1.5563098E-04   4.9509063E+05   -1.8094273E+00
   1.5634970E-04   4.9098088E+05   -1.8088836E+00
   1.5707174E-04   4.8690647E+05   -1.8083393E+00
   1.5779711E-04   4.8286709E+05   -1.8077944E+00
   1.5852584E-04   4.7886242E+05   -1.8072489E+00
   1.5925792E-04   4.7489216E+05   -1.8067029E+00
   1.5999339E-04   4.7095599E+05   -1.8061562E+00
   1.6073226E-04   4.6705363E+05   -1.8056091E+00
   1.6147454E-04   4.6318478E+05   -1.8050613E+00
   1.6222024E-04   4.5934913E+05   -1.8045130E+00
   1.6296939E-04   4.5554640E+05   -1.8039641E+00
   1.6372200E-04   4.5177629E+05   -1.8034147E+00
   1.6447809E-04   4.4803852E+05   -1.8028648E+00
   1.6523767E-04   4.4433279E+05   -1.8023143E+00
   1.6600075E-04   4.4065884E+05   -1.8017633E+00
   1.6676736E-04   4.3701638E+05   -1.8012118E+00
   1.6753751E-04   4.3340512E+05   -1.8006597E+00
   1.6831122E-04   4.2982480E+05   -1.8001072E+00
   1.6908849E-04   4.2627514E+05   -1.7995541E+00
   1.6986936E-04   4.2275587E+05   -1.7990005E+00
   1.7065384E-04   4.1926673E+05   -1.7984464E+00
   1.7144193E-04   4.1580745E+05   -1.7978918E+00
   1.7223367E-04   4.1237776E+05   -1.7973367E+00
   1.7302906E-04   4.0897741E+05   -1.7967812E+00
   1.7382813E-04   4.0560614E+05   -1.7962251E+00
   1.7463089E-04   4.0226369E+05   -1.7956686E+00
   1.7543735E-04   3.9894980E+05   -1.7951116E+00
   1.7624754E-04   3.9566423E+05   -1.7945542E+00
   1.7706147E-04   3.9240673E+05   -1.7939963E+00
   1.7787916E-04   3.8917705E+05   -1.7934379E+00
   1.7870062E-04   3.8597494E+05   -1.7928791E+00
   1.7952588E-04   3.8280016E+05   -1.7923199E+00
   1.8035495E-04   3.7965248E+05   -1.7917602E+00
   1.8118785E-04   3.7653165E+05   -1.7912001E+00
   1.8202459E-04   3.7343744E+05   -1.7906396E+00
   1.8286520E-04   3.7036961E+05   -1.7900786E+00
   1.8370969E-04   3.6732794E+05   -1.7895172E+00
   1.8455808E-04   3.6431219E+05   -1.7889554E+00
   1.8541039E-04   3.6132213E+05   -1.7883933E+00
   1.8626663E-04   3.5835754E+05   -1.7878307E+00
   1.8712683E-04   3.5541820E+05   -1.7872677E+00
   1.8799100E-04   3.5250388E+05   -1.7867043E+00
   1.8885917E-04   3.4961436E+05   -1.7861406E+00
   1.8973134E-04   3.4674944E+05   -1.7855765E+00
   1.9060754E-04   3.4390888E+05   -1.7850120E+00
   1.9148778E-04   3.4109248E+05   -1.7844471E+00
   1.9237209E-04   3.3830003E+05   -1.7838819E+00
   1.9326049E-04   3.3553131E+05   -1.7833163E+00
   1.9415299E-04   3.3278611E+05   -1.7827504E+00
   1.9504960E-04   3.3006424E+05   -1.7821842E+00
   1.9595036E-04   3.2736549E+05   -1.7816176E+00
   1.9685528E-04   3.2468965E+05   -1.7810506E+00
   1.9776438E-04   3.2203652E+05   -1.7804834E+00
   1.9867768E-04   3.1940591E+05   -1.7799158E+00
   1.9959519E-04   3.1679762E+05   -1.7793479E+00
   2.0051694E-04   3.1421144E+05   -1.7787797E+00
   2.0144295E-04   3.1164720E+05   -1.7782112E+00
   2.0237324E-04   3.0910469E+05   -1.7776425E+00
   2.0330782E-04   3.0658373E+05   -1.7770734E+00
   2.0424671E-04   3.0408412E+05   -1.7765040E+00
   2.0518995E-04   3.0160569E+05   -1.7759344E+00
   2.0613754E-04   2.9914824E+05   -1.7753645E+00
   2.0708950E-04   2.9671159E+05   -1.7747943E+00
   2.0804586E-04   2.9429557E+05   -1.7742238E+00
   2.0900664E-04   2.9189999E+05   -1.7736531E+00
   2.0997185E-04   2.8952466E+05   -1.7730822E+00
   2.1094152E-04   2.8716942E+05   -1.7725110E+00
   2.1191567E-04   2.8483410E+05   -1.7719396E+00
   2.1289432E-04   2.8251850E+05   -1.7713679E+00
   2.1387749E-04   2.8022247E+05   -1.7707960E+00
   2.1486520E-04   2.7794583E+05   -1.7702239E+00
   2.1585747E-04   2.7568842E+05   -1.7696516E+00
   2.1685432E-04   2.7345006E+05   -1.7690791E+00
   2.1785578E-04   2.7123059E+05   -1.7685064E+00
   2.1886186E-04   2.6902984E+05   -1.7679335E+00
   2.1987259E-04   2.6684766E+05   -1.7673603E+00
   2.2088798E-04   2.6468387E+05   -1.7667871E+00
   2.2190807E-04   2.6253832E+05   -1.7662136E+00
   2.2293286E-04   2.6041086E+05   -1.7656399E+00
   2.2396239E-04   2.5830132E+05   -1.7650661E+00
   2.2499667E-04   2.5620954E+05   -1.7644922E+00
   2.2603573E-04   2.5413537E+05   -1.7639180E+00
   2.2707958E-04   2.5207867E+05   -1.7633438E+00
   2.2812826E-04   2.5003927E+05   -1.7627694E+00
   2.2918178E-04   2.4801702E+05   -1.7621948E+00
   2.3024017E-04   2.4601178E+05   -1.7616201E+00
   2.3130344E-04   2.4402340E+05   -1.7610453E+00
   2.3237162E-04   2.4205174E+05   -1.7604704E+00
   2.3344474E-04   2.4009664E+05   -1.7598954E+00
   2.3452281E-04   2.3815796E+05   -1.7593202E+00
   2.3560586E-04   2.3623556E+05   -1.7587450E+00
   2.3669392E-04   2.3432930E+05   -1.7581697E+00
   2.3778699E-04   2.3243904E+05   -1.7575943E+00
   2.3888512E-04   2.3056464E+05   -1.7570188E+00
   2.3998831E-04   2.2870596E+05   -1.7564432E+00
   2.4109661E-04   2.2686287E+05   -1.7558676E+00
   2.4221001E-04   2.2503523E+05   -1.7552919E+00
   2.4332857E-04   2.2322290E+05   -1.7547161E+00
   2.4445228E-04   2.2142575E+05   -1.7541403E+00
   2.4558119E-04   2.1964366E+05   -1.7535645E+00
   2.4671531E-04   2.1787649E+05   -1.7529886E+00
   2.4785467E-04   2.1612410E+05   -1.7524126E+00
   2.4899928E-04   2.1438639E+05   -1.7518367E+00
   2.5014919E-04   2.1266321E+05   -1.7512607E+00
   2.5130440E-04   2.1095443E+05   -1.7506847E+00
   2.5246495E-04   2.0925995E+05   -1.7501088E+00
   2.5363086E-04   2.0757963E+05   -1.7495328E+00
   2.5480216E-04   2.0591334E+05   -1.7489568E+00
   2.5597886E-04   2.0426097E+05   -1.7483808E+00
   2.5716100E-04   2.0262240E+05   -1.7478048E+00
   2.5834859E-04   2.0099751E+05   -1.7472289E+00
   2.5954168E-04   1.9938618E+05   -1.7466530E+00
   2.6074027E-04   1.9778829E+05   -1.7460771E+00
   2.6194439E-04   1.9620372E+05   -1.7455013E+00
   2.6315408E-04   1.9463237E+05   -1.7449255E+00
   2.6436935E-04   1.9307411E+05   -1.7443498E+00
   2.6559024E-04   1.9152884E+05   -1.7437741E+00
   2.6681676E-04   1.8999644E+05   -1.7431985E+00
   2.6804895E-04   1.8847680E+05   -1.7426230E+00
   2.6928683E-04   1.8696981E+05   -1.7420475E+00
   2.7053042E-04   1.8547536E+05   -1.7414721E+00
   2.7177976E-04   1.8399335E+05   -1.7408969E+00
   2.7303487E-04   1.8252365E+05   -1.7403217E+00
   2.7429577E-04   1.8106618E+05   -1.7397466E+00
   2.7556250E-04   1.7962083E+05   -1.7391716E+00
   2.7683507E-04   1.7818748E+05   -1.7385968E+00
   2.7811353E-04   1.7676604E+05   -1.7380220E+00
   2.7939788E-04   1.7535640E+05   -1.7374474E+00
   2.8068817E-04   1.7395846E+05   -1.7368729E+00
   2.8198442E-04   1.7257213E+05   -1.7362986E+00
   2.8328665E-04   1.7119729E+05   -1.7357244E+00
   2.8459490E-04   1.6983386E+05   -1.7351503E+00
   2.8590919E-04   1.6848173E+05   -1.7345764E+00
   2.8722955E-04   1.6714081E+05   -1.7340027E+00
   2.8855600E-04   1.6581100E+05   -1.7334292E+00
   2.8988859E-04   1.6449220E+05   -1.7328558E+00
   2.9122732E-04   1.6318433E+05   -1.7322826E+00
   2.9257224E-04   1.6188728E+05   -1.7317095E+00
   2.9392337E-04   1.6060096E+05   -1.7311367E+00
   2.9528074E-04   1.5932529E+05   -1.7305641E+00
   2.9664438E-04   1.5806016E+05   -1.7299917E+00
   2.9801431E-04   1.5680550E+05   -1.7294195E+00
   2.9939057E-04   1.5556120E+05   -1.7288475E+00
   3.0077319E-04   1.5432718E+05   -1.7282757E+00
   3.0216219E-04   1.5310336E+05   -1.7277041E+00
   3.0355761E-04   1.5188964E+05   -1.7271328E+00
   3.0495947E-04   1.5068594E+05   -1.7265618E+00
   3.0636780E-04   1.4949217E+05   -1.7259909E+00
   3.0778264E-04   1.4830825E+05   -1.7254204E+00
   3.0920401E-04   1.4713409E+05   -1.7248501E+00
   3.1063195E-04   1.4596962E+05   -1.7242800E+00
   3.1206648E-04   1.4481473E+05   -1.7237102E+00
   3.1350764E-04   1.4366937E+05   -1.7231407E+00
   3.1495545E-04   1.4253343E+05   -1.7225715E+00
   3.1640994E-04   1.4140685E+05   -1.7220026E+00
   3.1787116E-04   1.4028954E+05   -1.7214339E+00
   3.1933912E-04   1.3918142E+05   -1.7208656E+00
   3.2081386E-04   1.3808242E+05   -1.7202975E+00
   3.2229541E-04   1.3699245E+05   -1.7197298E+00
   3.2378381E-04   1.3591144E+05   -1.7191624E+00
   3.2527908E-04   1.3483932E+05   -1.7185953E+00
   3.2678125E-04   1.3377600E+05   -1.7180285E+00
   3.2829036E-04   1.3272141E+05   -1.7174621E+00
   3.2980644E-04   1.3167548E+05   -1.7168960E+00
   3.3132952E-04   1.3063813E+05   -1.7163303E+00
   3.3285963E-04   1.2960930E+05   -1.7157649E+00
   3.3439681E-04   1.2858890E+05   -1.7151998E+00
   3.3594109E-04   1.2757686E+05   -1.7146352E+00
   3.3749250E-04   1.2657312E+05   -1.7140708E+00
   3.3905108E-04   1.2557761E+05   -1.7135069E+00
   3.4061685E-04   1.2459025E+05   -1.7129433E+00
   3.4218986E-04   1.2361097E+05   -1.7123802E+00
   3.4377013E-04   1.2263971E+05   -1.7118174E+00
   3.4535769E-04   1.2167639E+05   -1.7112550E+00
   3.4695259E-04   1.2072095E+05   -1.7106930E+00
   3.4855485E-04   1.1977333E+05   -1.7101314E+00
   3.5016452E-04   1.1883345E+05   -1.7095702E+00
   3.5178161E-04   1.1790125E+05   -1.7090095E+00
   3.5340618E-04   1.1697667E+05   -1.7084492E+00
   3.5503824E-04   1.1605963E+05   -1.7078893E+00
   3.5667785E-04   1.1515009E+05   -1.7073298E+00
   3.5832502E-04   1.1424796E+05   -1.7067708E+00
   3.5997981E-04   1.1335320E+05   -1.7062122E+00
   3.6164223E-04   1.1246573E+05   -1.7056540E+00
   3.6331233E-04   1.1158550E+05   -1.7050964E+00
   3.6499015E-04   1.1071244E+05   -1.7045391E+00
   3.6667571E-04   1.0984649E+05   -1.7039824E+00
   3.6836906E-04   1.0898759E+05   -1.7034261E+00
   3.7007022E-04   1.0813569E+05   -1.7028703E+00
   3.7177925E-04   1.0729072E+05   -1.7023150E+00
   3.7349616E-04   1.0645263E+05   -1.7017601E+00
   3.7522101E-04   1.0562135E+05   -1.7012058E+00
   3.7695382E-04   1.0479684E+05   -1.7006519E+00
   3.7869463E-04   1.0397902E+05   -1.7000986E+00
   3.8044348E-04   1.0316785E+05   -1.6995458E+00
   3.8220041E-04   1.0236327E+05   -1.6989934E+00
   3.8396545E-04   1.0156522E+05   -1.6984416E+00
   3.8573864E-04   1.0077365E+05   -1.6978904E+00
   3.8752002E-04   9.9988498E+04   -1.6973396E+00
   3.8930963E-04   9.9209718E+04   -1.6967894E+00
   3.9110750E-04   9.8437254E+04   -1.6962397E+00
   3.9291368E-04   9.7671051E+04   -1.6956906E+00
   3.9472820E-04   9.6911058E+04   -1.6951420E+00
   3.9655109E-04   9.6157221E+04   -1.6945940E+00
   3.9838241E-04   9.5409488E+04   -1.6940465E+00
   4.0022218E-04   9.4667809E+04   -1.6934996E+00
   4.0207045E-04   9.3932132E+04   -1.6929532E+00
   4.0392725E-04   9.3202406E+04   -1.6924075E+00
   4.0579263E-04   9.2478582E+04   -1.6918623E+00
   4.0766662E-04   9.1760610E+04   -1.6913177E+00
   4.0954927E-04   9.1048440E+04   -1.6907736E+00
   4.1144061E-04   9.0342023E+04   -1.6902302E+00
   4.1334068E-04   8.9641312E+04   -1.6896874E+00
   4.1524953E-04   8.8946258E+04   -1.6891451E+00
   4.1716720E-04   8.8256814E+04   -1.6886035E+00
   4.1909372E-04   8.7572932E+04   -1.6880625E+00
   4.2102914E-04   8.6894565E+04   -1.6875221E+00
   4.2297350E-04   8.6221668E+04   -1.6869824E+00
   4.2492683E-04   8.5554195E+04   -1.6864432E+00
   4.2688919E-04   8.4892099E+04   -1.6859047E+00
   4.2886061E-04   8.4235337E+04   -1.6853668E+00
   4.3084113E-04   8.3583862E+04   -1.6848296E+00
   4.3283080E-04   8.2937631E+04   -1.6842930E+00
   4.3482966E-04   8.2296600E+04   -1.6837570E+00
   4.3683775E-04   8.1660725E+04   -1.6832217E+00
   4.3885511E-04   8.1029963E+04   -1.6826871E+00
   4.4088179E-04   8.0404270E+04   -1.6821531E+00
   4.4291783E-04   7.9783606E+04   -1.6816198E+00
   4.4496327E-04   7.9167926E+04   -1.6810872E+00
   4.4701816E-04   7.8557191E+04   -1.6805552E+00
   4.4908253E-04   7.7951358E+04   -1.6800239E+00
   4.5115644E-04   7.7350386E+04   -1.6794933E+00
   4.5323993E-04   7.6754235E+04   -1.6789634E+00
   4.5533304E-04   7.6162865E+04   -1.6784342E+00
   4.5743582E-04   7.5576235E+04   -1.6779057E+00
   4.5954830E-04   7.4994307E+04   -1.6773779E+00
   4.6167054E-04   7.4417039E+04   -1.6768507E+00
   4.6380259E-04   7.3844395E+04   -1.6763243E+00
   4.6594448E-04   7.3276334E+04   -1.6757986E+00
   4.6809626E-04   7.2712820E+04   -1.6752737E+00
   4.7025797E-04   7.2153813E+04   -1.6747494E+00
   4.7242967E-04   7.1599277E+04   -1.6742259E+00
   4.7461140E-04   7.1049174E+04   -1.6737031E+00
   4.7680321E-04   7.0503467E+04   -1.6731810E+00
   4.7900514E-04   6.9962120E+04   -1.6726597E+00
   4.8121723E-04   6.9425096E+04   -1.6721391E+00
   4.8343954E-04   6.8892359E+04   -1.6716193E+00
   4.8567212E-04   6.8363874E+04   -1.6711002E+00
   4.8791500E-04   6.7839606E+04   -1.6705819E+00
   4.9016825E-04   6.7319518E+04   -1.6700643E+00
   4.9243189E-04   6.6803577E+04   -1.6695475E+00
   4.9470600E-04   6.6291747E+04   -1.6690314E+00
   4.9699060E-04   6.5783996E+04   -1.6685161E+00
   4.9928575E-04   6.5280288E+04   -1.6680016E+00
   5.0159151E-04   6.4780591E+04   -1.6674879E+00
   5.0390791E-04   6.4284871E+04   -1.6669749E+00
   5.0623501E-04   6.3793094E+04   -1.6664627E+00
   5.0857286E-04   6.3305229E+04   -1.6659514E+00
   5.1092150E-04   6.2821243E+04   -1.6654408E+00
   5.1328099E-04   6.2341104E+04   -1.6649310E+00
   5.1565137E-04   6.1864780E+04   -1.6644220E+00
   5.1803270E-04   6.1392239E+04   -1.6639138E+00
   5.2042503E-04   6.0923450E+04   -1.6634064E+00
   5.2282841E-04   6.0458382E+04   -1.6628998E+00
   5.2524289E-04   5.9997004E+04   -1.6623940E+00
   5.2766851E-04   5.9539285E+04   -1.6618890E+00
   5.3010534E-04   5.9085196E+04   -1.6613849E+00
   5.3255342E-04   5.8634706E+04   -1.6608816E+00
   5.3501281E-04   5.8187786E+04   -1.6603791E+00
   5.3748356E-04   5.7744405E+04   -1.6598774E+00
   5.3996571E-04   5.7304536E+04   -1.6593766E+00
   5.4245933E-04   5.6868148E+04   -1.6588765E+00
   5.4496446E-04   5.6435213E+04   -1.6583774E+00
   5.4748117E-04   5.6005703E+04   -1.6578791E+00
   5.5000949E-04   5.5579590E+04   -1.6573816E+00
   5.5254949E-04   5.5156845E+04   -1.6568849E+00
   5.5510123E-04   5.4737440E+04   -1.6563892E+00
   5.5766474E-04   5.4321349E+04   -1.6558942E+00
   5.6024010E-04   5.3908543E+04   -1.6554002E+00
   5.6282734E-04   5.3498996E+04   -1.6549070E+00
   5.6542654E-04   5.3092680E+04   -1.6544146E+00
   5.6803774E-04   5.2689571E+04   -1.6539231E+00
   5.7066099E-04   5.2289640E+04   -1.6534325E+00
   5.7329637E-04   5.1892861E+04   -1.6529428E+00
   5.7594391E-04   5.1499210E+04   -1.6524539E+00
   5.7860368E-04   5.1108660E+04   -1.6519659E+00
   5.8127573E-04   5.0721186E+04   -1.6514788E+00
   5.8396012E-04   5.0336762E+04   -1.6509926E+00
   5.8665691E-04   4.9955364E+04   -1.6505072E+00
   5.8936616E-04   4.9576966E+04   -1.6500228E+00
   5.9208791E-04   4.9201544E+04   -1.6495392E+00
   5.9482223E-04   4.8829074E+04   -1.6490565E+00
   5.9756919E-04   4.8459531E+04   -1.6485747E+00
   6.0032882E-04   4.8092892E+04   -1.6480939E+00
   6.0310120E-04   4.7729132E+04   -1.6476139E+00
   6.0588639E-04   4.7368228E+04   -1.6471348E+00
   6.0868443E-04   4.7010156E+04   -1.6466566E+00
   6.1149540E-04   4.6654895E+04   -1.6461794E+00
   6.1431935E-04   4.6302419E+04   -1.6457030E+00
   6.1715634E-04   4.5952708E+04   -1.6452276E+00
   6.2000644E-04   4.5605737E+04   -1.6447531E+00
   6.2286969E-04   4.5261486E+04   -1.6442795E+00
