#        a       HoverH0(a)       dlogHdloga_of_a(a)
   1.0000000E-04   1.0984894E+06   -1.8403206E+00
   1.0046181E-04   1.0892157E+06   -1.8398194E+00
   1.0092575E-04   1.0800228E+06   -1.8393174E+00
   1.0139184E-04   1.0709099E+06   -1.8388145E+00
   1.0186008E-04   1.0618764E+06   -1.8383109E+00
   1.0233048E-04   1.0529216E+06   -1.8378064E+00
   1.0280305E-04   1.0440447E+06   -1.8373011E+00
   1.0327781E-04   1.0352450E+06   -1.8367950E+00
   1.0375475E-04   1.0265219E+06   -1.8362880E+00
   1.0423390E-04   1.0178747E+06   -1.8357803E+00
   1.0471527E-04   1.0093027E+06   -1.8352717E+00
   1.0519885E-04   1.0008052E+06   -1.8347624E+00
   1.0568467E-04   9.9238161E+05   -1.8342523E+00
   1.0617274E-04   9.8403122E+05   -1.8337413E+00
   1.0666305E-04   9.7575339E+05   -1.8332296E+00
   1.0715563E-04   9.6754749E+05   -1.8327171E+00
   1.0765049E-04   9.5941286E+05   -1.8322038E+00
   1.0814763E-04   9.5134888E+05   -1.8316897E+00
   1.0864707E-04   9.4335491E+05   -1.8311749E+00
   1.0914881E-04   9.3543033E+05   -1.8306593E+00
   1.0965287E-04   9.2757453E+05   -1.8301429E+00
   1.1015926E-04   9.1978689E+05   -1.8296258E+00
   1.1066799E-04   9.1206681E+05   -1.8291079E+00
   1.1117906E-04   9.0441368E+05   -1.8285892E+00
   1.1169250E-04   8.9682692E+05   -1.8280698E+00
   1.1220831E-04   8.8930593E+05   -1.8275496E+00
   1.1272650E-04   8.8185012E+05   -1.8270287E+00
   1.1324708E-04   8.7445893E+05   -1.8265071E+00
   1.1377007E-04   8.6713177E+05   -1.8259847E+00
   1.1429547E-04   8.5986808E+05   -1.8254616E+00
   1.1482330E-04   8.5266728E+05   -1.8249378E+00
   1.1535356E-04   8.4552884E+05   -1.8244132E+00
   1.1588628E-04   8.3845218E+05   -1.8238879E+00
   1.1642145E-04   8.3143676E+05   -1.8233619E+00
   1.1695910E-04   8.2448205E+05   -1.8228352E+00
   1.1749923E-04   8.1758749E+05   -1.8223078E+00
   1.1804185E-04   8.1075255E+05   -1.8217797E+00
   1.1858698E-04   8.0397672E+05   -1.8212508E+00
   1.1913463E-04   7.9725945E+05   -1.8207213E+00
   1.1968481E-04   7.9060024E+05   -1.8201911E+00
   1.2023752E-04   7.8399857E+05   -1.8196602E+00
   1.2079279E-04   7.7745393E+05   -1.8191287E+00
   1.2135063E-04   7.7096581E+05   -1.8185964E+00
   1.2191104E-04   7.6453371E+05   -1.8180635E+00
   1.2247403E-04   7.5815713E+05   -1.8175299E+00
   1.2303963E-04   7.5183559E+05   -1.8169956E+00
   1.2360784E-04   7.4556860E+05   -1.8164607E+00
   1.2417868E-04   7.3935567E+05   -1.8159251E+00
   1.2475215E-04   7.3319632E+05   -1.8153889E+00
   1.2532826E-04   7.2709008E+05   -1.8148520E+00
   1.2590704E-04   7.2103648E+05   -1.8143145E+00
   1.2648850E-04   7.1503505E+05   -1.8137764E+00
   1.2707263E-04   7.0908533E+05   -1.8132376E+00
   1.2765947E-04   7.0318687E+05   -1.8126981E+00
   1.2824901E-04   6.9733920E+05   -1.8121581E+00
   1.2884128E-04   6.9154189E+05   -1.8116175E+00
   1.2943628E-04   6.8579448E+05   -1.8110762E+00
   1.3003403E-04   6.8009654E+05   -1.8105343E+00
   1.3063454E-04   6.7444762E+05   -1.8099918E+00
   1.3123783E-04   6.6884730E+05   -1.8094487E+00
   1.3184390E-04   6.6329514E+05   -1.8089050E+00
   1.3245277E-04   6.5779071E+05   -1.8083608E+00
   1.3306445E-04   6.5233361E+05   -1.8078159E+00
   1.3367895E-04   6.4692340E+05   -1.8072705E+00
   1.3429630E-04   6.4155967E+05   -1.8067244E+00
   1.3491649E-04   6.3624201E+05   -1.8061779E+00
   1.3553955E-04   6.3097002E+05   -1.8056307E+00
   1.3616548E-04   6.2574330E+05   -1.8050830E+00
   1.3679431E-04   6.2056144E+05   -1.8045347E+00
   1.3742604E-04   6.1542404E+05   -1.8039859E+00
   1.3806069E-04   6.1033073E+05   -1.8034365E+00
   1.3869827E-04   6.0528109E+05   -1.8028866E+00
   1.3933879E-04   6.0027476E+05   -1.8023362E+00
   1.3998227E-04   5.9531134E+05   -1.8017852E+00
   1.4062872E-04   5.9039047E+05   -1.8012337E+00
   1.4127816E-04   5.8551175E+05   -1.8006816E+00
   1.4193060E-04   5.8067483E+05   -1.8001291E+00
   1.4258605E-04   5.7587934E+05   -1.7995760E+00
   1.4324453E-04   5.7112491E+05   -1.7990225E+00
   1.4390605E-04   5.6641117E+05   -1.7984684E+00
   1.4457062E-04   5.6173777E+05   -1.7979139E+00
   1.4523826E-04   5.5710436E+05   -1.7973588E+00
   1.4590899E-04   5.5251058E+05   -1.7968033E+00
   1.4658281E-04   5.4795608E+05   -1.7962473E+00
   1.4725974E-04   5.4344052E+05   -1.7956908E+00
   1.4793981E-04   5.3896355E+05   -1.7951338E+00
   1.4862301E-04   5.3452483E+05   -1.7945764E+00
   1.4930936E-04   5.3012404E+05   -1.7940186E+00
   1.4999889E-04   5.2576083E+05   -1.7934602E+00
   1.5069160E-04   5.2143487E+05   -1.7929015E+00
   1.5138751E-04   5.1714583E+05   -1.7923422E+00
   1.5208663E-04   5.1289340E+05   -1.7917826E+00
   1.5278899E-04   5.0867725E+05   -1.7912225E+00
   1.5349458E-04   5.0449706E+05   -1.7906620E+00
   1.5420343E-04   5.0035251E+05   -1.7901010E+00
   1.5491556E-04   4.9624330E+05   -1.7895397E+00
   1.5563098E-04   4.9216910E+05   -1.7889779E+00
   1.5634970E-04   4.8812962E+05   -1.7884158E+00
   1.5707174E-04   4.8412455E+05   -1.7878532E+00
   1.5779711E-04   4.8015358E+05   -1.7872903E+00
   1.5852584E-04   4.7621642E+05   -1.7867269E+00
   1.5925792E-04   4.7231277E+05   -1.7861632E+00
   1.5999339E-04   4.6844234E+05   -1.7855991E+00
   1.6073226E-04   4.6460483E+05   -1.7850347E+00
   1.6147454E-04   4.6079996E+05   -1.7844698E+00
   1.6222024E-04   4.5702743E+05   -1.7839046E+00
   1.6296939E-04   4.5328698E+05   -1.7833391E+00
   1.6372200E-04   4.4957830E+05   -1.7827732E+00
   1.6447809E-04   4.4590114E+05   -1.7822070E+00
   1.6523767E-04   4.4225520E+05   -1.7816404E+00
   1.6600075E-04   4.3864023E+05   -1.7810735E+00
   1.6676736E-04   4.3505593E+05   -1.7805063E+00
   1.6753751E-04   4.3150206E+05   -1.7799387E+00
   1.6831122E-04   4.2797833E+05   -1.7793709E+00
   1.6908849E-04   4.2448449E+05   -1.7788027E+00
   1.6986936E-04   4.2102027E+05   -1.7782342E+00
   1.7065384E-04   4.1758542E+05   -1.7776655E+00
   1.7144193E-04   4.1417968E+05   -1.7770964E+00
   1.7223367E-04   4.1080279E+05   -1.7765271E+00
   1.7302906E-04   4.0745451E+05   -1.7759574E+00
   1.7382813E-04   4.0413457E+05   -1.7753876E+00
   1.7463089E-04   4.0084274E+05   -1.7748174E+00
   1.7543735E-04   3.9757877E+05   -1.7742470E+00
   1.7624754E-04   3.9434241E+05   -1.7736763E+00
   1.7706147E-04   3.9113343E+05   -1.7731054E+00
   1.7787916E-04   3.8795157E+05   -1.7725342E+00
   1.7870062E-04   3.8479662E+05   -1.7719628E+00
   1.7952588E-04   3.8166833E+05   -1.7713912E+00
   1.8035495E-04   3.7856646E+05   -1.7708193E+00
   1.8118785E-04   3.7549080E+05   -1.7702472E+00
   1.8202459E-04   3.7244111E+05   -1.7696749E+00
   1.8286520E-04   3.6941715E+05   -1.7691024E+00
   1.8370969E-04   3.6641872E+05   -1.7685297E+00
   1.8455808E-04   3.6344559E+05   -1.7679568E+00
   1.8541039E-04   3.6049753E+05   -1.7673837E+00
   1.8626663E-04   3.5757433E+05   -1.7668105E+00
   1.8712683E-04   3.5467577E+05   -1.7662370E+00
   1.8799100E-04   3.5180163E+05   -1.7656634E+00
   1.8885917E-04   3.4895171E+05   -1.7650896E+00
   1.8973134E-04   3.4612579E+05   -1.7645157E+00
   1.9060754E-04   3.4332366E+05   -1.7639416E+00
   1.9148778E-04   3.4054512E+05   -1.7633673E+00
   1.9237209E-04   3.3778996E+05   -1.7627929E+00
   1.9326049E-04   3.3505798E+05   -1.7622184E+00
   1.9415299E-04   3.3234897E+05   -1.7616437E+00
   1.9504960E-04   3.2966274E+05   -1.7610689E+00
   1.9595036E-04   3.2699909E+05   -1.7604941E+00
   1.9685528E-04   3.2435781E+05   -1.7599190E+00
   1.9776438E-04   3.2173873E+05   -1.7593439E+00
   1.9867768E-04   3.1914164E+05   -1.7587687E+00
   1.9959519E-04   3.1656635E+05   -1.7581934E+00
   2.0051694E-04   3.1401268E+05   -1.7576180E+00
   2.0144295E-04   3.1148043E+05   -1.7570425E+00
   2.0237324E-04   3.0896942E+05   -1.7564670E+00
   2.0330782E-04   3.0647946E+05   -1.7558914E+00
   2.0424671E-04   3.0401038E+05   -1.7553157E+00
   2.0518995E-04   3.0156199E+05   -1.7547399E+00
   2.0613754E-04   2.9913411E+05   -1.7541641E+00
   2.0708950E-04   2.9672657E+05   -1.7535883E+00
   2.0804586E-04   2.9433918E+05   -1.7530124E+00
   2.0900664E-04   2.9197178E+05   -1.7524365E+00
   2.0997185E-04   2.8962419E+05   -1.7518606E+00
   2.1094152E-04   2.8729623E+05   -1.7512847E+00
   2.1191567E-04   2.8498775E+05   -1.7507087E+00
   2.1289432E-04   2.8269856E+05   -1.7501327E+00
   2.1387749E-04   2.8042850E+05   -1.7495567E+00
   2.1486520E-04   2.7817741E+05   -1.7489808E+00
   2.1585747E-04   2.7594513E+05   -1.7484048E+00
   2.1685432E-04   2.7373148E+05   -1.7478289E+00
   2.1785578E-04   2.7153631E+05   -1.7472529E+00
   2.1886186E-04   2.6935946E+05   -1.7466771E+00
   2.1987259E-04   2.6720077E+05   -1.7461012E+00
   2.2088798E-04   2.6506009E+05   -1.7455254E+00
   2.2190807E-04   2.6293725E+05   -1.7449496E+00
   2.2293286E-04   2.6083211E+05   -1.7443739E+00
   2.2396239E-04   2.5874450E+05   -1.7437982E+00
   2.2499667E-04   2.5667429E+05   -1.7432227E+00
   2.2603573E-04   2.5462131E+05   -1.7426471E+00
   2.2707958E-04   2.5258543E+05   -1.7420717E+00
   2.2812826E-04   2.5056649E+05   -1.7414963E+00
   2.2918178E-04   2.4856434E+05   -1.7409211E+00
   2.3024017E-04   2.4657885E+05   -1.7403459E+00
   2.3130344E-04   2.4460986E+05   -1.7397708E+00
   2.3237162E-04   2.4265724E+05   -1.7391959E+00
   2.3344474E-04   2.4072084E+05   -1.7386210E+00
   2.3452281E-04   2.3880053E+05   -1.7380463E+00
   2.3560586E-04   2.3689617E+05   -1.7374717E+00
   2.3669392E-04   2.3500761E+05   -1.7368972E+00
   2.3778699E-04   2.3313473E+05   -1.7363229E+00
   2.3888512E-04   2.3127738E+05   -1.7357487E+00
   2.3998831E-04   2.2943544E+05   -1.7351747E+00
   2.4109661E-04   2.2760877E+05   -1.7346008E+00
   2.4221001E-04   2.2579724E+05   -1.7340271E+00
   2.4332857E-04   2.2400072E+05   -1.7334535E+00
   2.4445228E-04   2.2221908E+05   -1.7328802E+00
   2.4558119E-04   2.2045219E+05   -1.7323070E+00
   2.4671531E-04   2.1869993E+05   -1.7317340E+00
   2.4785467E-04   2.1696217E+05   -1.7311612E+00
   2.4899928E-04   2.1523879E+05   -1.7305885E+00
   2.5014919E-04   2.1352966E+05   -1.7300161E+00
   2.5130440E-04   2.1183466E+05   -1.7294439E+00
   2.5246495E-04   2.1015366E+05   -1.7288719E+00
   2.5363086E-04   2.0848656E+05   -1.7283002E+00
   2.5480216E-04   2.0683323E+05   -1.7277287E+00
   2.5597886E-04   2.0519354E+05   -1.7271574E+00
   2.5716100E-04   2.0356740E+05   -1.7265863E+00
   2.5834859E-04   2.0195467E+05   -1.7260155E+00
   2.5954168E-04   2.0035524E+05   -1.7254449E+00
   2.6074027E-04   1.9876900E+05   -1.7248746E+00
   2.6194439E-04   1.9719584E+05   -1.7243046E+00
   2.6315408E-04   1.9563565E+05   -1.7237348E+00
   2.6436935E-04   1.9408830E+05   -1.7231653E+00
   2.6559024E-04   1.9255371E+05   -1.7225961E+00
   2.6681676E-04   1.9103174E+05   -1.7220272E+00
   2.6804895E-04   1.8952230E+05   -1.7214585E+00
   2.6928683E-04   1.8802529E+05   -1.7208902E+00
   2.7053042E-04   1.8654058E+05   -1.7203222E+00
   2.7177976E-04   1.8506808E+05   -1.7197545E+00
   2.7303487E-04   1.8360769E+05   -1.7191871E+00
   2.7429577E-04   1.8215930E+05   -1.7186200E+00
   2.7556250E-04   1.8072280E+05   -1.7180532E+00
   2.7683507E-04   1.7929810E+05   -1.7174868E+00
   2.7811353E-04   1.7788510E+05   -1.7169207E+00
   2.7939788E-04   1.7648369E+05   -1.7163550E+00
   2.8068817E-04   1.7509377E+05   -1.7157896E+00
   2.8198442E-04   1.7371526E+05   -1.7152246E+00
   2.8328665E-04   1.7234805E+05   -1.7146599E+00
   2.8459490E-04   1.7099205E+05   -1.7140956E+00
   2.8590919E-04   1.6964715E+05   -1.7135317E+00
   2.8722955E-04   1.6831327E+05   -1.7129681E+00
   2.8855600E-04   1.6699031E+05   -1.7124049E+00
   2.8988859E-04   1.6567818E+05   -1.7118422E+00
   2.9122732E-04   1.6437678E+05   -1.7112798E+00
   2.9257224E-04   1.6308603E+05   -1.7107178E+00
   2.9392337E-04   1.6180583E+05   -1.7101562E+00
   2.9528074E-04   1.6053610E+05   -1.7095951E+00
   2.9664438E-04   1.5927675E+05   -1.7090343E+00
   2.9801431E-04   1.5802768E+05   -1.7084740E+00
   2.9939057E-04   1.5678881E+05   -1.7079141E+00
   3.0077319E-04   1.5556005E+05   -1.7073546E+00
   3.0216219E-04   1.5434133E+05   -1.7067956E+00
   3.0355761E-04   1.5313254E+05   -1.7062370E+00
   3.0495947E-04   1.5193361E+05   -1.7056789E+00
   3.0636780E-04   1.5074446E+05   -1.7051212E+00
   3.0778264E-04   1.4956500E+05   -1.7045640E+00
   3.0920401E-04   1.4839514E+05   -1.7040073E+00
   3.1063195E-04   1.4723482E+05   -1.7034510E+00
   3.1206648E-04   1.4608394E+05   -1.7028952E+00
   3.1350764E-04   1.4494243E+05   -1.7023399E+00
   3.1495545E-04   1.4381021E+05   -1.7017851E+00
   3.1640994E-04   1.4268719E+05   -1.7012307E+00
   3.1787116E-04   1.4157331E+05   -1.7006769E+00
   3.1933912E-04   1.4046848E+05   -1.7001235E+00
   3.2081386E-04   1.3937263E+05   -1.6995707E+00
   3.2229541E-04   1.3828568E+05   -1.6990184E+00
   3.2378381E-04   1.3720755E+05   -1.6984666E+00
   3.2527908E-04   1.3613818E+05   -1.6979153E+00
   3.2678125E-04   1.3507748E+05   -1.6973646E+00
   3.2829036E-04   1.3402539E+05   -1.6968144E+00
   3.2980644E-04   1.3298183E+05   -1.6962647E+00
   3.3132952E-04   1.3194673E+05   -1.6957156E+00
   3.3285963E-04   1.3092001E+05   -1.6951670E+00
   3.3439681E-04   1.2990162E+05   -1.6946190E+00
   3.3594109E-04   1.2889147E+05   -1.6940715E+00
   3.3749250E-04   1.2788950E+05   -1.6935246E+00
   3.3905108E-04   1.2689564E+05   -1.6929782E+00
   3.4061685E-04   1.2590982E+05   -1.6924325E+00
   3.4218986E-04   1.2493197E+05   -1.6918873E+00
   3.4377013E-04   1.2396202E+05   -1.6913427E+00
   3.4535769E-04   1.2299992E+05   -1.6907987E+00
   3.4695259E-04   1.2204559E+05   -1.6902552E+00
   3.4855485E-04   1.2109896E+05   -1.6897124E+00
   3.5016452E-04   1.2015998E+05   -1.6891702E+00
   3.5178161E-04   1.1922858E+05   -1.6886286E+00
   3.5340618E-04   1.1830469E+05   -1.6880876E+00
   3.5503824E-04   1.1738825E+05   -1.6875472E+00
   3.5667785E-04   1.1647920E+05   -1.6870074E+00
   3.5832502E-04   1.1557748E+05   -1.6864683E+00
   3.5997981E-04   1.1468302E+05   -1.6859298E+00
   3.6164223E-04   1.1379577E+05   -1.6853919E+00
   3.6331233E-04   1.1291566E+05   -1.6848547E+00
   3.6499015E-04   1.1204264E+05   -1.6843181E+00
   3.6667571E-04   1.1117664E+05   -1.6837821E+00
   3.6836906E-04   1.1031761E+05   -1.6832468E+00
   3.7007022E-04   1.0946548E+05   -1.6827122E+00
   3.7177925E-04   1.0862021E+05   -1.6821782E+00
   3.7349616E-04   1.0778172E+05   -1.6816449E+00
   3.7522101E-04   1.0694997E+05   -1.6811123E+00
   3.7695382E-04   1.0612490E+05   -1.6805803E+00
   3.7869463E-04   1.0530645E+05   -1.6800491E+00
   3.8044348E-04   1.0449457E+05   -1.6795185E+00
   3.8220041E-04   1.0368921E+05   -1.6789886E+00
   3.8396545E-04   1.0289030E+05   -1.6784594E+00
   3.8573864E-04   1.0209779E+05   -1.6779308E+00
   3.8752002E-04   1.0131164E+05   -1.6774030E+00
   3.8930963E-04   1.0053178E+05   -1.6768759E+00
   3.9110750E-04   9.9758174E+04   -1.6763495E+00
   3.9291368E-04   9.8990756E+04   -1.6758238E+00
   3.9472820E-04   9.8229479E+04   -1.6752989E+00
   3.9655109E-04   9.7474292E+04   -1.6747746E+00
   3.9838241E-04   9.6725145E+04   -1.6742511E+00
   4.0022218E-04   9.5981987E+04   -1.6737283E+00
   4.0207045E-04   9.5244767E+04   -1.6732062E+00
   4.0392725E-04   9.4513438E+04   -1.6726849E+00
   4.0579263E-04   9.3787949E+04   -1.6721643E+00
   4.0766662E-04   9.3068252E+04   -1.6716445E+00
   4.0954927E-04   9.2354299E+04   -1.6711254E+00
   4.1144061E-04   9.1646042E+04   -1.6706071E+00
   4.1334068E-04   9.0943433E+04   -1.6700895E+00
   4.1524953E-04   9.0246426E+04   -1.6695727E+00
   4.1716720E-04   8.9554974E+04   -1.6690566E+00
   4.1909372E-04   8.8869031E+04   -1.6685414E+00
   4.2102914E-04   8.8188551E+04   -1.6680269E+00
   4.2297350E-04   8.7513489E+04   -1.6675131E+00
   4.2492683E-04   8.6843800E+04   -1.6670002E+00
   4.2688919E-04   8.6179439E+04   -1.6664880E+00
   4.2886061E-04   8.5520362E+04   -1.6659766E+00
   4.3084113E-04   8.4866526E+04   -1.6654660E+00
   4.3283080E-04   8.4217886E+04   -1.6649562E+00
   4.3482966E-04   8.3574400E+04   -1.6644472E+00
   4.3683775E-04   8.2936025E+04   -1.6639390E+00
   4.3885511E-04   8.2302719E+04   -1.6634316E+00
   4.4088179E-04   8.1674439E+04   -1.6629251E+00
   4.4291783E-04   8.1051145E+04   -1.6624193E+00
   4.4496327E-04   8.0432794E+04   -1.6619143E+00
   4.4701816E-04   7.9819347E+04   -1.6614102E+00
   4.4908253E-04   7.9210762E+04   -1.6609069E+00
   4.5115644E-04   7.8606999E+04   -1.6604044E+00
   4.5323993E-04   7.8008019E+04   -1.6599027E+00
   4.5533304E-04   7.7413782E+04   -1.6594019E+00
   4.5743582E-04   7.6824248E+04   -1.6589019E+00
   4.5954830E-04   7.6239380E+04   -1.6584027E+00
   4.6167054E-04   7.5659138E+04   -1.6579044E+00
   4.6380259E-04   7.5083485E+04   -1.6574069E+00
   4.6594448E-04   7.4512382E+04   -1.6569103E+00
   4.6809626E-04   7.3945792E+04   -1.6564145E+00
   4.7025797E-04   7.3383678E+04   -1.6559196E+00
   4.7242967E-04   7.2826003E+04   -1.6554255E+00
   4.7461140E-04   7.2272730E+04   -1.6549323E+00
   4.7680321E-04   7.1723823E+04   -1.6544400E+00
   4.7900514E-04   7.1179246E+04   -1.6539485E+00
   4.8121723E-04   7.0638965E+04   -1.6534579E+00
   4.8343954E-04   7.0102942E+04   -1.6529682E+00
   4.8567212E-04   6.9571144E+04   -1.6524793E+00
   4.8791500E-04   6.9043535E+04   -1.6519913E+00
   4.9016825E-04   6.8520082E+04   -1.6515042E+00
   4.9243189E-04   6.8000750E+04   -1.6510180E+00
   4.9470600E-04   6.7485504E+04   -1.6505326E+00
   4.9699060E-04   6.6974313E+04   -1.6500482E+00
   4.9928575E-04   6.6467142E+04   -1.6495646E+00
   5.0159151E-04   6.5963958E+04   -1.6490820E+00
   5.0390791E-04   6.5464729E+04   -1.6486002E+00
   5.0623501E-04   6.4969422E+04   -1.6481193E+00
   5.0857286E-04   6.4478006E+04   -1.6476394E+00
   5.1092150E-04   6.3990448E+04   -1.6471603E+00
   5.1328099E-04   6.3506717E+04   -1.6466821E+00
   5.1565137E-04   6.3026781E+04   -1.6462049E+00
   5.1803270E-04   6.2550610E+04   -1.6457285E+00
   5.2042503E-04   6.2078172E+04   -1.6452531E+00
   5.2282841E-04   6.1609437E+04   -1.6447786E+00
   5.2524289E-04   6.1144376E+04   -1.6443050E+00
   5.2766851E-04   6.0682957E+04   -1.6438323E+00
   5.3010534E-04   6.0225151E+04   -1.6433606E+00
   5.3255342E-04   5.9770928E+04   -1.6428898E+00
   5.3501281E-04   5.9320260E+04   -1.6424199E+00
   5.3748356E-04   5.8873117E+04   -1.6419509E+00
   5.3996571E-04   5.8429471E+04   -1.6414829E+00
   5.4245933E-04   5.7989293E+04   -1.6410158E+00
   5.4496446E-04   5.7552555E+04   -1.6405496E+00
   5.4748117E-04   5.7119229E+04   -1.6400844E+00
   5.5000949E-04   5.6689286E+04   -1.6396201E+00
   5.5254949E-04   5.6262701E+04   -1.6391568E+00
   5.5510123E-04   5.5839444E+04   -1.6386944E+00
   5.5766474E-04   5.5419489E+04   -1.6382329E+00
   5.6024010E-04   5.5002809E+04   -1.6377724E+00
   5.6282734E-04   5.4589378E+04   -1.6373129E+00
   5.6542654E-04   5.4179170E+04   -1.6368543E+00
   5.6803774E-04   5.3772157E+04   -1.6363966E+00
   5.7066099E-04   5.3368314E+04   -1.6359399E+00
   5.7329637E-04   5.2967615E+04   -1.6354842E+00
   5.7594391E-04   5.2570036E+04   -1.6350294E+00
   5.7860368E-04   5.2175549E+04   -1.6345756E+00
   5.8127573E-04   5.1784132E+04   -1.6341228E+00
   5.8396012E-04   5.1395757E+04   -1.6336709E+00
   5.8665691E-04   5.1010402E+04   -1.6332200E+00
   5.8936616E-04   5.0628041E+04   -1.6327701E+00
   5.9208791E-04   5.0248650E+04   -1.6323211E+00
   5.9482223E-04   4.9872205E+04   -1.6318731E+00
   5.9756919E-04   4.9498683E+04   -1.6314261E+00
   6.0032882E-04   4.9128059E+04   -1.6309800E+00
   6.0310120E-04   4.8760310E+04   -1.6305349E+00
   6.0588639E-04   4.8395413E+04   -1.6300908E+00
   6.0868443E-04   4.8033345E+04   -1.6296477E+00
   6.1149540E-04   4.7674083E+04   -1.6292056E+00
   6.1431935E-04   4.7317604E+04   -1.6287644E+00
   6.1715634E-04   4.6963886E+04   -1.6283242E+00
   6.2000644E-04   4.6612907E+04   -1.6278851E+00
   6.2286969E-04   4.6264645E+04   -1.6274469E+00
