#        a       HoverH0(a)       dlogHdloga_of_a(a)
   1.0000000E-04   1.1579808E+06   -1.8583159E+00
   1.0046181E-04   1.1481096E+06   -1.8578476E+00
   1.0092575E-04   1.1383250E+06   -1.8573784E+00
   1.0139184E-04   1.1286262E+06   -1.8569082E+00
   1.0186008E-04   1.1190124E+06   -1.8564371E+00
   1.0233048E-04   1.1094830E+06   -1.8559651E+00
   1.0280305E-04   1.1000371E+06   -1.8554922E+00
   1.0327781E-04   1.0906740E+06   -1.8550183E+00
   1.0375475E-04   1.0813930E+06   -1.8545436E+00
   1.0423390E-04   1.0721933E+06   -1.8540679E+00
   1.0471527E-04   1.0630742E+06   -1.8535913E+00
   1.0519885E-04   1.0540350E+06   -1.8531137E+00
   1.0568467E-04   1.0450749E+06   -1.8526353E+00
   1.0617274E-04   1.0361933E+06   -1.8521560E+00
   1.0666305E-04   1.0273894E+06   -1.8516757E+00
   1.0715563E-04   1.0186626E+06   -1.8511946E+00
   1.0765049E-04   1.0100122E+06   -1.8507126E+00
   1.0814763E-04   1.0014374E+06   -1.8502297E+00
   1.0864707E-04   9.9293767E+05   -1.8497458E+00
   1.0914881E-04   9.8451226E+05   -1.8492611E+00
   1.0965287E-04   9.7616053E+05   -1.8487755E+00
   1.1015926E-04   9.6788181E+05   -1.8482890E+00
   1.1066799E-04   9.5967546E+05   -1.8478017E+00
   1.1117906E-04   9.5154082E+05   -1.8473134E+00
   1.1169250E-04   9.4347726E+05   -1.8468243E+00
   1.1220831E-04   9.3548414E+05   -1.8463343E+00
   1.1272650E-04   9.2756084E+05   -1.8458434E+00
   1.1324708E-04   9.1970673E+05   -1.8453517E+00
   1.1377007E-04   9.1192119E+05   -1.8448591E+00
   1.1429547E-04   9.0420361E+05   -1.8443656E+00
   1.1482330E-04   8.9655339E+05   -1.8438713E+00
   1.1535356E-04   8.8896992E+05   -1.8433761E+00
   1.1588628E-04   8.8145260E+05   -1.8428801E+00
   1.1642145E-04   8.7400085E+05   -1.8423832E+00
   1.1695910E-04   8.6661409E+05   -1.8418855E+00
   1.1749923E-04   8.5929173E+05   -1.8413869E+00
   1.1804185E-04   8.5203319E+05   -1.8408875E+00
   1.1858698E-04   8.4483792E+05   -1.8403873E+00
   1.1913463E-04   8.3770533E+05   -1.8398862E+00
   1.1968481E-04   8.3063489E+05   -1.8393843E+00
   1.2023752E-04   8.2362603E+05   -1.8388815E+00
   1.2079279E-04   8.1667820E+05   -1.8383780E+00
   1.2135063E-04   8.0979087E+05   -1.8378736E+00
   1.2191104E-04   8.0296348E+05   -1.8373684E+00
   1.2247403E-04   7.9619551E+05   -1.8368623E+00
   1.2303963E-04   7.8948643E+05   -1.8363555E+00
   1.2360784E-04   7.8283571E+05   -1.8358479E+00
   1.2417868E-04   7.7624284E+05   -1.8353394E+00
   1.2475215E-04   7.6970729E+05   -1.8348302E+00
   1.2532826E-04   7.6322856E+05   -1.8343202E+00
   1.2590704E-04   7.5680614E+05   -1.8338093E+00
   1.2648850E-04   7.5043954E+05   -1.8332977E+00
   1.2707263E-04   7.4412825E+05   -1.8327853E+00
   1.2765947E-04   7.3787178E+05   -1.8322721E+00
   1.2824901E-04   7.3166964E+05   -1.8317581E+00
   1.2884128E-04   7.2552136E+05   -1.8312434E+00
   1.2943628E-04   7.1942645E+05   -1.8307279E+00
   1.3003403E-04   7.1338443E+05   -1.8302116E+00
   1.3063454E-04   7.0739485E+05   -1.8296945E+00
   1.3123783E-04   7.0145722E+05   -1.8291767E+00
   1.3184390E-04   6.9557109E+05   -1.8286582E+00
   1.3245277E-04   6.8973601E+05   -1.8281389E+00
   1.3306445E-04   6.8395151E+05   -1.8276188E+00
   1.3367895E-04   6.7821715E+05   -1.8270980E+00
   1.3429630E-04   6.7253248E+05   -1.8265764E+00
   1.3491649E-04   6.6689706E+05   -1.8260541E+00
   1.3553955E-04   6.6131046E+05   -1.8255311E+00
   1.3616548E-04   6.5577224E+05   -1.8250074E+00
   1.3679431E-04   6.5028197E+05   -1.8244829E+00
   1.3742604E-04   6.4483923E+05   -1.8239577E+00
   1.3806069E-04   6.3944359E+05   -1.8234318E+00
   1.3869827E-04   6.3409463E+05   -1.8229052E+00
   1.3933879E-04   6.2879194E+05   -1.8223778E+00
   1.3998227E-04   6.2353512E+05   -1.8218498E+00
   1.4062872E-04   6.1832374E+05   -1.8213211E+00
   1.4127816E-04   6.1315742E+05   -1.8207916E+00
   1.4193060E-04   6.0803575E+05   -1.8202615E+00
   1.4258605E-04   6.0295833E+05   -1.8197307E+00
   1.4324453E-04   5.9792477E+05   -1.8191992E+00
   1.4390605E-04   5.9293469E+05   -1.8186670E+00
   1.4457062E-04   5.8798770E+05   -1.8181342E+00
   1.4523826E-04   5.8308341E+05   -1.8176007E+00
   1.4590899E-04   5.7822146E+05   -1.8170665E+00
   1.4658281E-04   5.7340145E+05   -1.8165317E+00
   1.4725974E-04   5.6862303E+05   -1.8159962E+00
   1.4793981E-04   5.6388582E+05   -1.8154600E+00
   1.4862301E-04   5.5918945E+05   -1.8149232E+00
   1.4930936E-04   5.5453358E+05   -1.8143858E+00
   1.4999889E-04   5.4991783E+05   -1.8138477E+00
   1.5069160E-04   5.4534185E+05   -1.8133090E+00
   1.5138751E-04   5.4080529E+05   -1.8127697E+00
   1.5208663E-04   5.3630781E+05   -1.8122297E+00
   1.5278899E-04   5.3184905E+05   -1.8116891E+00
   1.5349458E-04   5.2742868E+05   -1.8111479E+00
   1.5420343E-04   5.2304635E+05   -1.8106061E+00
   1.5491556E-04   5.1870173E+05   -1.8100637E+00
   1.5563098E-04   5.1439448E+05   -1.8095207E+00
   1.5634970E-04   5.1012427E+05   -1.8089771E+00
   1.5707174E-04   5.0589079E+05   -1.8084329E+00
   1.5779711E-04   5.0169369E+05   -1.8078881E+00
   1.5852584E-04   4.9753267E+05   -1.8073427E+00
   1.5925792E-04   4.9340739E+05   -1.8067967E+00
   1.5999339E-04   4.8931756E+05   -1.8062502E+00
   1.6073226E-04   4.8526284E+05   -1.8057031E+00
   1.6147454E-04   4.8124294E+05   -1.8051555E+00
   1.6222024E-04   4.7725755E+05   -1.8046073E+00
   1.6296939E-04   4.7330635E+05   -1.8040585E+00
   1.6372200E-04   4.6938906E+05   -1.8035092E+00
   1.6447809E-04   4.6550536E+05   -1.8029594E+00
   1.6523767E-04   4.6165497E+05   -1.8024090E+00
   1.6600075E-04   4.5783759E+05   -1.8018581E+00
   1.6676736E-04   4.5405293E+05   -1.8013066E+00
   1.6753751E-04   4.5030069E+05   -1.8007546E+00
   1.6831122E-04   4.4658061E+05   -1.8002022E+00
   1.6908849E-04   4.4289238E+05   -1.7996492E+00
   1.6986936E-04   4.3923573E+05   -1.7990957E+00
   1.7065384E-04   4.3561038E+05   -1.7985417E+00
   1.7144193E-04   4.3201606E+05   -1.7979872E+00
   1.7223367E-04   4.2845249E+05   -1.7974322E+00
   1.7302906E-04   4.2491941E+05   -1.7968767E+00
   1.7382813E-04   4.2141654E+05   -1.7963207E+00
   1.7463089E-04   4.1794361E+05   -1.7957643E+00
   1.7543735E-04   4.1450037E+05   -1.7952074E+00
   1.7624754E-04   4.1108656E+05   -1.7946500E+00
   1.7706147E-04   4.0770190E+05   -1.7940922E+00
   1.7787916E-04   4.0434615E+05   -1.7935339E+00
   1.7870062E-04   4.0101906E+05   -1.7929752E+00
   1.7952588E-04   3.9772036E+05   -1.7924160E+00
   1.8035495E-04   3.9444982E+05   -1.7918564E+00
   1.8118785E-04   3.9120718E+05   -1.7912964E+00
   1.8202459E-04   3.8799220E+05   -1.7907359E+00
   1.8286520E-04   3.8480463E+05   -1.7901750E+00
   1.8370969E-04   3.8164424E+05   -1.7896137E+00
   1.8455808E-04   3.7851078E+05   -1.7890520E+00
   1.8541039E-04   3.7540402E+05   -1.7884899E+00
   1.8626663E-04   3.7232373E+05   -1.7879274E+00
   1.8712683E-04   3.6926967E+05   -1.7873645E+00
   1.8799100E-04   3.6624161E+05   -1.7868012E+00
   1.8885917E-04   3.6323932E+05   -1.7862375E+00
   1.8973134E-04   3.6026258E+05   -1.7856734E+00
   1.9060754E-04   3.5731117E+05   -1.7851090E+00
   1.9148778E-04   3.5438485E+05   -1.7845442E+00
   1.9237209E-04   3.5148342E+05   -1.7839791E+00
   1.9326049E-04   3.4860665E+05   -1.7834136E+00
   1.9415299E-04   3.4575432E+05   -1.7828477E+00
   1.9504960E-04   3.4292623E+05   -1.7822815E+00
   1.9595036E-04   3.4012216E+05   -1.7817150E+00
   1.9685528E-04   3.3734190E+05   -1.7811481E+00
   1.9776438E-04   3.3458523E+05   -1.7805809E+00
   1.9867768E-04   3.3185197E+05   -1.7800134E+00
   1.9959519E-04   3.2914189E+05   -1.7794455E+00
   2.0051694E-04   3.2645480E+05   -1.7788774E+00
   2.0144295E-04   3.2379049E+05   -1.7783090E+00
   2.0237324E-04   3.2114877E+05   -1.7777402E+00
   2.0330782E-04   3.1852943E+05   -1.7771712E+00
   2.0424671E-04   3.1593229E+05   -1.7766019E+00
   2.0518995E-04   3.1335715E+05   -1.7760323E+00
   2.0613754E-04   3.1080381E+05   -1.7754624E+00
   2.0708950E-04   3.0827209E+05   -1.7748923E+00
   2.0804586E-04   3.0576179E+05   -1.7743219E+00
   2.0900664E-04   3.0327273E+05   -1.7737512E+00
   2.0997185E-04   3.0080473E+05   -1.7731803E+00
   2.1094152E-04   2.9835760E+05   -1.7726092E+00
   2.1191567E-04   2.9593115E+05   -1.7720378E+00
   2.1289432E-04   2.9352521E+05   -1.7714662E+00
   2.1387749E-04   2.9113959E+05   -1.7708943E+00
   2.1486520E-04   2.8877413E+05   -1.7703223E+00
   2.1585747E-04   2.8642864E+05   -1.7697500E+00
   2.1685432E-04   2.8410295E+05   -1.7691775E+00
   2.1785578E-04   2.8179688E+05   -1.7686048E+00
   2.1886186E-04   2.7951028E+05   -1.7680319E+00
   2.1987259E-04   2.7724296E+05   -1.7674589E+00
   2.2088798E-04   2.7499475E+05   -1.7668856E+00
   2.2190807E-04   2.7276550E+05   -1.7663121E+00
   2.2293286E-04   2.7055504E+05   -1.7657385E+00
   2.2396239E-04   2.6836320E+05   -1.7651648E+00
   2.2499667E-04   2.6618982E+05   -1.7645908E+00
   2.2603573E-04   2.6403473E+05   -1.7640167E+00
   2.2707958E-04   2.6189779E+05   -1.7634425E+00
   2.2812826E-04   2.5977884E+05   -1.7628681E+00
   2.2918178E-04   2.5767770E+05   -1.7622936E+00
   2.3024017E-04   2.5559424E+05   -1.7617189E+00
   2.3130344E-04   2.5352830E+05   -1.7611441E+00
   2.3237162E-04   2.5147972E+05   -1.7605692E+00
   2.3344474E-04   2.4944835E+05   -1.7599942E+00
   2.3452281E-04   2.4743405E+05   -1.7594191E+00
   2.3560586E-04   2.4543667E+05   -1.7588439E+00
   2.3669392E-04   2.4345605E+05   -1.7582686E+00
   2.3778699E-04   2.4149206E+05   -1.7576932E+00
   2.3888512E-04   2.3954454E+05   -1.7571177E+00
   2.3998831E-04   2.3761337E+05   -1.7565421E+00
   2.4109661E-04   2.3569838E+05   -1.7559665E+00
   2.4221001E-04   2.3379945E+05   -1.7553908E+00
   2.4332857E-04   2.3191643E+05   -1.7548151E+00
   2.4445228E-04   2.3004919E+05   -1.7542393E+00
   2.4558119E-04   2.2819759E+05   -1.7536634E+00
   2.4671531E-04   2.2636149E+05   -1.7530875E+00
   2.4785467E-04   2.2454076E+05   -1.7525116E+00
   2.4899928E-04   2.2273527E+05   -1.7519357E+00
   2.5014919E-04   2.2094488E+05   -1.7513597E+00
   2.5130440E-04   2.1916947E+05   -1.7507837E+00
   2.5246495E-04   2.1740890E+05   -1.7502077E+00
   2.5363086E-04   2.1566304E+05   -1.7496317E+00
   2.5480216E-04   2.1393177E+05   -1.7490558E+00
   2.5597886E-04   2.1221496E+05   -1.7484798E+00
   2.5716100E-04   2.1051249E+05   -1.7479038E+00
   2.5834859E-04   2.0882423E+05   -1.7473279E+00
   2.5954168E-04   2.0715006E+05   -1.7467520E+00
   2.6074027E-04   2.0548985E+05   -1.7461761E+00
   2.6194439E-04   2.0384350E+05   -1.7456002E+00
   2.6315408E-04   2.0221087E+05   -1.7450245E+00
   2.6436935E-04   2.0059184E+05   -1.7444487E+00
   2.6559024E-04   1.9898631E+05   -1.7438730E+00
   2.6681676E-04   1.9739415E+05   -1.7432974E+00
   2.6804895E-04   1.9581526E+05   -1.7427219E+00
   2.6928683E-04   1.9424950E+05   -1.7421464E+00
   2.7053042E-04   1.9269678E+05   -1.7415710E+00
   2.7177976E-04   1.9115697E+05   -1.7409957E+00
   2.7303487E-04   1.8962998E+05   -1.7404205E+00
   2.7429577E-04   1.8811567E+05   -1.7398454E+00
   2.7556250E-04   1.8661396E+05   -1.7392704E+00
   2.7683507E-04   1.8512472E+05   -1.7386955E+00
   2.7811353E-04   1.8364786E+05   -1.7381208E+00
   2.7939788E-04   1.8218325E+05   -1.7375461E+00
   2.8068817E-04   1.8073081E+05   -1.7369716E+00
   2.8198442E-04   1.7929042E+05   -1.7363973E+00
   2.8328665E-04   1.7786199E+05   -1.7358230E+00
   2.8459490E-04   1.7644540E+05   -1.7352490E+00
   2.8590919E-04   1.7504055E+05   -1.7346751E+00
   2.8722955E-04   1.7364735E+05   -1.7341013E+00
   2.8855600E-04   1.7226569E+05   -1.7335277E+00
   2.8988859E-04   1.7089548E+05   -1.7329543E+00
   2.9122732E-04   1.6953662E+05   -1.7323811E+00
   2.9257224E-04   1.6818900E+05   -1.7318080E+00
   2.9392337E-04   1.6685254E+05   -1.7312351E+00
   2.9528074E-04   1.6552713E+05   -1.7306625E+00
   2.9664438E-04   1.6421268E+05   -1.7300900E+00
   2.9801431E-04   1.6290911E+05   -1.7295178E+00
   2.9939057E-04   1.6161630E+05   -1.7289457E+00
   3.0077319E-04   1.6033418E+05   -1.7283739E+00
   3.0216219E-04   1.5906265E+05   -1.7278024E+00
   3.0355761E-04   1.5780162E+05   -1.7272310E+00
   3.0495947E-04   1.5655100E+05   -1.7266599E+00
   3.0636780E-04   1.5531069E+05   -1.7260890E+00
   3.0778264E-04   1.5408062E+05   -1.7255184E+00
   3.0920401E-04   1.5286070E+05   -1.7249480E+00
   3.1063195E-04   1.5165083E+05   -1.7243780E+00
   3.1206648E-04   1.5045093E+05   -1.7238081E+00
   3.1350764E-04   1.4926091E+05   -1.7232386E+00
   3.1495545E-04   1.4808070E+05   -1.7226693E+00
   3.1640994E-04   1.4691021E+05   -1.7221003E+00
   3.1787116E-04   1.4574935E+05   -1.7215316E+00
   3.1933912E-04   1.4459804E+05   -1.7209632E+00
   3.2081386E-04   1.4345620E+05   -1.7203951E+00
   3.2229541E-04   1.4232375E+05   -1.7198273E+00
   3.2378381E-04   1.4120061E+05   -1.7192599E+00
   3.2527908E-04   1.4008670E+05   -1.7186927E+00
   3.2678125E-04   1.3898194E+05   -1.7181259E+00
   3.2829036E-04   1.3788625E+05   -1.7175594E+00
   3.2980644E-04   1.3679956E+05   -1.7169933E+00
   3.3132952E-04   1.3572178E+05   -1.7164275E+00
   3.3285963E-04   1.3465285E+05   -1.7158620E+00
   3.3439681E-04   1.3359268E+05   -1.7152969E+00
   3.3594109E-04   1.3254121E+05   -1.7147322E+00
   3.3749250E-04   1.3149835E+05   -1.7141678E+00
   3.3905108E-04   1.3046404E+05   -1.7136038E+00
   3.4061685E-04   1.2943820E+05   -1.7130402E+00
   3.4218986E-04   1.2842076E+05   -1.7124769E+00
   3.4377013E-04   1.2741165E+05   -1.7119141E+00
   3.4535769E-04   1.2641079E+05   -1.7113516E+00
   3.4695259E-04   1.2541812E+05   -1.7107895E+00
   3.4855485E-04   1.2443357E+05   -1.7102279E+00
   3.5016452E-04   1.2345707E+05   -1.7096666E+00
   3.5178161E-04   1.2248855E+05   -1.7091058E+00
   3.5340618E-04   1.2152794E+05   -1.7085454E+00
   3.5503824E-04   1.2057517E+05   -1.7079854E+00
   3.5667785E-04   1.1963018E+05   -1.7074259E+00
   3.5832502E-04   1.1869290E+05   -1.7068668E+00
   3.5997981E-04   1.1776328E+05   -1.7063081E+00
   3.6164223E-04   1.1684123E+05   -1.7057499E+00
   3.6331233E-04   1.1592670E+05   -1.7051922E+00
   3.6499015E-04   1.1501962E+05   -1.7046349E+00
   3.6667571E-04   1.1411993E+05   -1.7040780E+00
   3.6836906E-04   1.1322758E+05   -1.7035217E+00
   3.7007022E-04   1.1234248E+05   -1.7029658E+00
   3.7177925E-04   1.1146459E+05   -1.7024104E+00
   3.7349616E-04   1.1059385E+05   -1.7018554E+00
   3.7522101E-04   1.0973018E+05   -1.7013010E+00
   3.7695382E-04   1.0887354E+05   -1.7007471E+00
   3.7869463E-04   1.0802387E+05   -1.7001936E+00
   3.8044348E-04   1.0718109E+05   -1.6996407E+00
   3.8220041E-04   1.0634517E+05   -1.6990883E+00
   3.8396545E-04   1.0551603E+05   -1.6985364E+00
   3.8573864E-04   1.0469362E+05   -1.6979851E+00
   3.8752002E-04   1.0387788E+05   -1.6974342E+00
   3.8930963E-04   1.0306877E+05   -1.6968839E+00
   3.9110750E-04   1.0226621E+05   -1.6963341E+00
   3.9291368E-04   1.0147016E+05   -1.6957849E+00
   3.9472820E-04   1.0068056E+05   -1.6952362E+00
   3.9655109E-04   9.9897359E+04   -1.6946881E+00
   3.9838241E-04   9.9120500E+04   -1.6941405E+00
   4.0022218E-04   9.8349930E+04   -1.6935935E+00
   4.0207045E-04   9.7585596E+04   -1.6930471E+00
   4.0392725E-04   9.6827447E+04   -1.6925012E+00
   4.0579263E-04   9.6075428E+04   -1.6919559E+00
   4.0766662E-04   9.5329490E+04   -1.6914112E+00
   4.0954927E-04   9.4589581E+04   -1.6908671E+00
   4.1144061E-04   9.3855649E+04   -1.6903235E+00
   4.1334068E-04   9.3127646E+04   -1.6897806E+00
   4.1524953E-04   9.2405520E+04   -1.6892383E+00
   4.1716720E-04   9.1689223E+04   -1.6886965E+00
   4.1909372E-04   9.0978705E+04   -1.6881554E+00
   4.2102914E-04   9.0273918E+04   -1.6876149E+00
   4.2297350E-04   8.9574813E+04   -1.6870751E+00
   4.2492683E-04   8.8881344E+04   -1.6865358E+00
   4.2688919E-04   8.8193462E+04   -1.6859972E+00
   4.2886061E-04   8.7511122E+04   -1.6854592E+00
   4.3084113E-04   8.6834275E+04   -1.6849218E+00
   4.3283080E-04   8.6162877E+04   -1.6843851E+00
   4.3482966E-04   8.5496881E+04   -1.6838491E+00
   4.3683775E-04   8.4836243E+04   -1.6833137E+00
   4.3885511E-04   8.4180917E+04   -1.6827789E+00
   4.4088179E-04   8.3530858E+04   -1.6822448E+00
   4.4291783E-04   8.2886023E+04   -1.6817114E+00
   4.4496327E-04   8.2246369E+04   -1.6811786E+00
   4.4701816E-04   8.1611850E+04   -1.6806466E+00
   4.4908253E-04   8.0982426E+04   -1.6801152E+00
   4.5115644E-04   8.0358052E+04   -1.6795844E+00
   4.5323993E-04   7.9738687E+04   -1.6790544E+00
   4.5533304E-04   7.9124290E+04   -1.6785251E+00
   4.5743582E-04   7.8514817E+04   -1.6779964E+00
   4.5954830E-04   7.7910229E+04   -1.6774685E+00
   4.6167054E-04   7.7310484E+04   -1.6769413E+00
   4.6380259E-04   7.6715542E+04   -1.6764147E+00
   4.6594448E-04   7.6125364E+04   -1.6758889E+00
   4.6809626E-04   7.5539908E+04   -1.6753638E+00
   4.7025797E-04   7.4959136E+04   -1.6748394E+00
   4.7242967E-04   7.4383009E+04   -1.6743158E+00
   4.7461140E-04   7.3811487E+04   -1.6737929E+00
   4.7680321E-04   7.3244534E+04   -1.6732707E+00
   4.7900514E-04   7.2682110E+04   -1.6727492E+00
   4.8121723E-04   7.2124177E+04   -1.6722285E+00
   4.8343954E-04   7.1570700E+04   -1.6717085E+00
   4.8567212E-04   7.1021640E+04   -1.6711893E+00
   4.8791500E-04   7.0476960E+04   -1.6706709E+00
   4.9016825E-04   6.9936625E+04   -1.6701531E+00
   4.9243189E-04   6.9400597E+04   -1.6696362E+00
   4.9470600E-04   6.8868842E+04   -1.6691200E+00
   4.9699060E-04   6.8341324E+04   -1.6686046E+00
   4.9928575E-04   6.7818007E+04   -1.6680899E+00
   5.0159151E-04   6.7298857E+04   -1.6675761E+00
   5.0390791E-04   6.6783839E+04   -1.6670630E+00
   5.0623501E-04   6.6272919E+04   -1.6665507E+00
   5.0857286E-04   6.5766063E+04   -1.6660392E+00
   5.1092150E-04   6.5263237E+04   -1.6655284E+00
   5.1328099E-04   6.4764408E+04   -1.6650185E+00
   5.1565137E-04   6.4269542E+04   -1.6645093E+00
   5.1803270E-04   6.3778607E+04   -1.6640010E+00
   5.2042503E-04   6.3291570E+04   -1.6634935E+00
   5.2282841E-04   6.2808400E+04   -1.6629867E+00
   5.2524289E-04   6.2329063E+04   -1.6624808E+00
   5.2766851E-04   6.1853528E+04   -1.6619757E+00
   5.3010534E-04   6.1381764E+04   -1.6614714E+00
   5.3255342E-04   6.0913740E+04   -1.6609680E+00
   5.3501281E-04   6.0449425E+04   -1.6604653E+00
   5.3748356E-04   5.9988787E+04   -1.6599635E+00
   5.3996571E-04   5.9531797E+04   -1.6594625E+00
   5.4245933E-04   5.9078425E+04   -1.6589624E+00
   5.4496446E-04   5.8628641E+04   -1.6584631E+00
   5.4748117E-04   5.8182414E+04   -1.6579646E+00
   5.5000949E-04   5.7739717E+04   -1.6574670E+00
   5.5254949E-04   5.7300519E+04   -1.6569702E+00
   5.5510123E-04   5.6864792E+04   -1.6564743E+00
   5.5766474E-04   5.6432507E+04   -1.6559792E+00
   5.6024010E-04   5.6003636E+04   -1.6554850E+00
   5.6282734E-04   5.5578150E+04   -1.6549916E+00
   5.6542654E-04   5.5156023E+04   -1.6544991E+00
   5.6803774E-04   5.4737226E+04   -1.6540075E+00
   5.7066099E-04   5.4321731E+04   -1.6535167E+00
   5.7329637E-04   5.3909512E+04   -1.6530268E+00
   5.7594391E-04   5.3500542E+04   -1.6525378E+00
   5.7860368E-04   5.3094795E+04   -1.6520497E+00
   5.8127573E-04   5.2692242E+04   -1.6515624E+00
   5.8396012E-04   5.2292860E+04   -1.6510760E+00
   5.8665691E-04   5.1896620E+04   -1.6505905E+00
   5.8936616E-04   5.1503498E+04   -1.6501059E+00
   5.9208791E-04   5.1113468E+04   -1.6496222E+00
   5.9482223E-04   5.0726505E+04   -1.6491394E+00
   5.9756919E-04   5.0342582E+04   -1.6486574E+00
   6.0032882E-04   4.9961677E+04   -1.6481764E+00
   6.0310120E-04   4.9583763E+04   -1.6476963E+00
   6.0588639E-04   4.9208817E+04   -1.6472170E+00
   6.0868443E-04   4.8836814E+04   -1.6467387E+00
   6.1149540E-04   4.8467729E+04   -1.6462613E+00
   6.1431935E-04   4.8101540E+04   -1.6457848E+00
   6.1715634E-04   4.7738222E+04   -1.6453092E+00
   6.2000644E-04   4.7377752E+04   -1.6448345E+00
   6.2286969E-04   4.7020107E+04   -1.6443608E+00
