#        a       HoverH0(a)       dlogHdloga_of_a(a)
   1.0000000E-04   1.1373808E+06   -1.8815319E+00
   1.0046181E-04   1.1275644E+06   -1.8811149E+00
   1.0092575E-04   1.1178349E+06   -1.8806968E+00
   1.0139184E-04   1.1081915E+06   -1.8802778E+00
   1.0186008E-04   1.0986334E+06   -1.8798577E+00
   1.0233048E-04   1.0891598E+06   -1.8794367E+00
   1.0280305E-04   1.0797701E+06   -1.8790146E+00
   1.0327781E-04   1.0704633E+06   -1.8785915E+00
   1.0375475E-04   1.0612389E+06   -1.8781675E+00
   1.0423390E-04   1.0520960E+06   -1.8777424E+00
   1.0471527E-04   1.0430339E+06   -1.8773163E+00
   1.0519885E-04   1.0340519E+06   -1.8768892E+00
   1.0568467E-04   1.0251493E+06   -1.8764612E+00
   1.0617274E-04   1.0163253E+06   -1.8760321E+00
   1.0666305E-04   1.0075793E+06   -1.8756020E+00
   1.0715563E-04   9.9891052E+05   -1.8751709E+00
   1.0765049E-04   9.9031830E+05   -1.8747389E+00
   1.0814763E-04   9.8180194E+05   -1.8743058E+00
   1.0864707E-04   9.7336075E+05   -1.8738717E+00
   1.0914881E-04   9.6499408E+05   -1.8734367E+00
   1.0965287E-04   9.5670124E+05   -1.8730006E+00
   1.1015926E-04   9.4848158E+05   -1.8725636E+00
   1.1066799E-04   9.4033443E+05   -1.8721256E+00
   1.1117906E-04   9.3225914E+05   -1.8716866E+00
   1.1169250E-04   9.2425508E+05   -1.8712466E+00
   1.1220831E-04   9.1632159E+05   -1.8708056E+00
   1.1272650E-04   9.0845805E+05   -1.8703637E+00
   1.1324708E-04   9.0066383E+05   -1.8699207E+00
   1.1377007E-04   8.9293831E+05   -1.8694768E+00
   1.1429547E-04   8.8528086E+05   -1.8690319E+00
   1.1482330E-04   8.7769089E+05   -1.8685860E+00
   1.1535356E-04   8.7016777E+05   -1.8681392E+00
   1.1588628E-04   8.6271092E+05   -1.8676913E+00
   1.1642145E-04   8.5531974E+05   -1.8672425E+00
   1.1695910E-04   8.4799363E+05   -1.8667928E+00
   1.1749923E-04   8.4073202E+05   -1.8663420E+00
   1.1804185E-04   8.3353432E+05   -1.8658903E+00
   1.1858698E-04   8.2639997E+05   -1.8654376E+00
   1.1913463E-04   8.1932839E+05   -1.8649840E+00
   1.1968481E-04   8.1231902E+05   -1.8645294E+00
   1.2023752E-04   8.0537131E+05   -1.8640738E+00
   1.2079279E-04   7.9848470E+05   -1.8636173E+00
   1.2135063E-04   7.9165865E+05   -1.8631598E+00
   1.2191104E-04   7.8489260E+05   -1.8627014E+00
   1.2247403E-04   7.7818603E+05   -1.8622420E+00
   1.2303963E-04   7.7153839E+05   -1.8617817E+00
   1.2360784E-04   7.6494917E+05   -1.8613204E+00
   1.2417868E-04   7.5841783E+05   -1.8608582E+00
   1.2475215E-04   7.5194387E+05   -1.8603950E+00
   1.2532826E-04   7.4552676E+05   -1.8599309E+00
   1.2590704E-04   7.3916599E+05   -1.8594658E+00
   1.2648850E-04   7.3286107E+05   -1.8589998E+00
   1.2707263E-04   7.2661148E+05   -1.8585329E+00
   1.2765947E-04   7.2041675E+05   -1.8580650E+00
   1.2824901E-04   7.1427637E+05   -1.8575962E+00
   1.2884128E-04   7.0818985E+05   -1.8571264E+00
   1.2943628E-04   7.0215673E+05   -1.8566558E+00
   1.3003403E-04   6.9617651E+05   -1.8561842E+00
   1.3063454E-04   6.9024872E+05   -1.8557117E+00
   1.3123783E-04   6.8437290E+05   -1.8552382E+00
   1.3184390E-04   6.7854858E+05   -1.8547639E+00
   1.3245277E-04   6.7277530E+05   -1.8542886E+00
   1.3306445E-04   6.6705260E+05   -1.8538124E+00
   1.3367895E-04   6.6138003E+05   -1.8533353E+00
   1.3429630E-04   6.5575715E+05   -1.8528573E+00
   1.3491649E-04   6.5018350E+05   -1.8523784E+00
   1.3553955E-04   6.4465865E+05   -1.8518985E+00
   1.3616548E-04   6.3918216E+05   -1.8514178E+00
   1.3679431E-04   6.3375360E+05   -1.8509362E+00
   1.3742604E-04   6.2837254E+05   -1.8504537E+00
   1.3806069E-04   6.2303855E+05   -1.8499702E+00
   1.3869827E-04   6.1775122E+05   -1.8494859E+00
   1.3933879E-04   6.1251013E+05   -1.8490007E+00
   1.3998227E-04   6.0731487E+05   -1.8485146E+00
   1.4062872E-04   6.0216502E+05   -1.8480277E+00
   1.4127816E-04   5.9706018E+05   -1.8475398E+00
   1.4193060E-04   5.9199994E+05   -1.8470511E+00
   1.4258605E-04   5.8698392E+05   -1.8465615E+00
   1.4324453E-04   5.8201171E+05   -1.8460710E+00
   1.4390605E-04   5.7708293E+05   -1.8455797E+00
   1.4457062E-04   5.7219718E+05   -1.8450875E+00
   1.4523826E-04   5.6735408E+05   -1.8445944E+00
   1.4590899E-04   5.6255326E+05   -1.8441005E+00
   1.4658281E-04   5.5779433E+05   -1.8436057E+00
   1.4725974E-04   5.5307692E+05   -1.8431100E+00
   1.4793981E-04   5.4840066E+05   -1.8426135E+00
   1.4862301E-04   5.4376518E+05   -1.8421162E+00
   1.4930936E-04   5.3917012E+05   -1.8416180E+00
   1.4999889E-04   5.3461512E+05   -1.8411190E+00
   1.5069160E-04   5.3009982E+05   -1.8406191E+00
   1.5138751E-04   5.2562387E+05   -1.8401184E+00
   1.5208663E-04   5.2118691E+05   -1.8396168E+00
   1.5278899E-04   5.1678861E+05   -1.8391145E+00
   1.5349458E-04   5.1242860E+05   -1.8386113E+00
   1.5420343E-04   5.0810657E+05   -1.8381073E+00
   1.5491556E-04   5.0382215E+05   -1.8376024E+00
   1.5563098E-04   4.9957503E+05   -1.8370968E+00
   1.5634970E-04   4.9536486E+05   -1.8365903E+00
   1.5707174E-04   4.9119132E+05   -1.8360830E+00
   1.5779711E-04   4.8705409E+05   -1.8355749E+00
   1.5852584E-04   4.8295283E+05   -1.8350661E+00
   1.5925792E-04   4.7888723E+05   -1.8345564E+00
   1.5999339E-04   4.7485697E+05   -1.8340459E+00
   1.6073226E-04   4.7086174E+05   -1.8335346E+00
   1.6147454E-04   4.6690122E+05   -1.8330226E+00
   1.6222024E-04   4.6297511E+05   -1.8325097E+00
   1.6296939E-04   4.5908310E+05   -1.8319961E+00
   1.6372200E-04   4.5522489E+05   -1.8314817E+00
   1.6447809E-04   4.5140017E+05   -1.8309665E+00
   1.6523767E-04   4.4760865E+05   -1.8304506E+00
   1.6600075E-04   4.4385003E+05   -1.8299339E+00
   1.6676736E-04   4.4012402E+05   -1.8294164E+00
   1.6753751E-04   4.3643033E+05   -1.8288982E+00
   1.6831122E-04   4.3276868E+05   -1.8283792E+00
   1.6908849E-04   4.2913877E+05   -1.8278595E+00
   1.6986936E-04   4.2554033E+05   -1.8273390E+00
   1.7065384E-04   4.2197307E+05   -1.8268178E+00
   1.7144193E-04   4.1843673E+05   -1.8262958E+00
   1.7223367E-04   4.1493102E+05   -1.8257731E+00
   1.7302906E-04   4.1145567E+05   -1.8252497E+00
   1.7382813E-04   4.0801042E+05   -1.8247256E+00
   1.7463089E-04   4.0459499E+05   -1.8242007E+00
   1.7543735E-04   4.0120912E+05   -1.8236751E+00
   1.7624754E-04   3.9785255E+05   -1.8231488E+00
   1.7706147E-04   3.9452503E+05   -1.8226218E+00
   1.7787916E-04   3.9122628E+05   -1.8220940E+00
   1.7870062E-04   3.8795606E+05   -1.8215656E+00
   1.7952588E-04   3.8471411E+05   -1.8210365E+00
   1.8035495E-04   3.8150018E+05   -1.8205067E+00
   1.8118785E-04   3.7831402E+05   -1.8199762E+00
   1.8202459E-04   3.7515540E+05   -1.8194450E+00
   1.8286520E-04   3.7202405E+05   -1.8189131E+00
   1.8370969E-04   3.6891975E+05   -1.8183806E+00
   1.8455808E-04   3.6584225E+05   -1.8178473E+00
   1.8541039E-04   3.6279131E+05   -1.8173134E+00
   1.8626663E-04   3.5976671E+05   -1.8167789E+00
   1.8712683E-04   3.5676820E+05   -1.8162437E+00
   1.8799100E-04   3.5379555E+05   -1.8157078E+00
   1.8885917E-04   3.5084854E+05   -1.8151713E+00
   1.8973134E-04   3.4792693E+05   -1.8146342E+00
   1.9060754E-04   3.4503051E+05   -1.8140964E+00
   1.9148778E-04   3.4215905E+05   -1.8135579E+00
   1.9237209E-04   3.3931233E+05   -1.8130189E+00
   1.9326049E-04   3.3649013E+05   -1.8124792E+00
   1.9415299E-04   3.3369223E+05   -1.8119388E+00
   1.9504960E-04   3.3091842E+05   -1.8113979E+00
   1.9595036E-04   3.2816849E+05   -1.8108564E+00
   1.9685528E-04   3.2544222E+05   -1.8103142E+00
   1.9776438E-04   3.2273941E+05   -1.8097715E+00
   1.9867768E-04   3.2005985E+05   -1.8092281E+00
   1.9959519E-04   3.1740332E+05   -1.8086842E+00
   2.0051694E-04   3.1476964E+05   -1.8081396E+00
   2.0144295E-04   3.1215859E+05   -1.8075945E+00
   2.0237324E-04   3.0956998E+05   -1.8070488E+00
   2.0330782E-04   3.0700361E+05   -1.8065025E+00
   2.0424671E-04   3.0445928E+05   -1.8059557E+00
   2.0518995E-04   3.0193680E+05   -1.8054083E+00
   2.0613754E-04   2.9943597E+05   -1.8048603E+00
   2.0708950E-04   2.9695661E+05   -1.8043118E+00
   2.0804586E-04   2.9449852E+05   -1.8037627E+00
   2.0900664E-04   2.9206152E+05   -1.8032131E+00
   2.0997185E-04   2.8964541E+05   -1.8026629E+00
   2.1094152E-04   2.8725003E+05   -1.8021122E+00
   2.1191567E-04   2.8487517E+05   -1.8015610E+00
   2.1289432E-04   2.8252067E+05   -1.8010093E+00
   2.1387749E-04   2.8018634E+05   -1.8004570E+00
   2.1486520E-04   2.7787201E+05   -1.7999042E+00
   2.1585747E-04   2.7557749E+05   -1.7993509E+00
   2.1685432E-04   2.7330262E+05   -1.7987971E+00
   2.1785578E-04   2.7104722E+05   -1.7982429E+00
   2.1886186E-04   2.6881112E+05   -1.7976881E+00
   2.1987259E-04   2.6659414E+05   -1.7971328E+00
   2.2088798E-04   2.6439613E+05   -1.7965770E+00
   2.2190807E-04   2.6221692E+05   -1.7960208E+00
   2.2293286E-04   2.6005633E+05   -1.7954641E+00
   2.2396239E-04   2.5791420E+05   -1.7949069E+00
   2.2499667E-04   2.5579038E+05   -1.7943493E+00
   2.2603573E-04   2.5368470E+05   -1.7937912E+00
   2.2707958E-04   2.5159700E+05   -1.7932327E+00
   2.2812826E-04   2.4952712E+05   -1.7926737E+00
   2.2918178E-04   2.4747491E+05   -1.7921142E+00
   2.3024017E-04   2.4544021E+05   -1.7915544E+00
   2.3130344E-04   2.4342286E+05   -1.7909941E+00
   2.3237162E-04   2.4142272E+05   -1.7904334E+00
   2.3344474E-04   2.3943964E+05   -1.7898722E+00
   2.3452281E-04   2.3747346E+05   -1.7893107E+00
   2.3560586E-04   2.3552403E+05   -1.7887487E+00
   2.3669392E-04   2.3359121E+05   -1.7881864E+00
   2.3778699E-04   2.3167486E+05   -1.7876236E+00
   2.3888512E-04   2.2977482E+05   -1.7870605E+00
   2.3998831E-04   2.2789095E+05   -1.7864970E+00
   2.4109661E-04   2.2602312E+05   -1.7859331E+00
   2.4221001E-04   2.2417118E+05   -1.7853688E+00
   2.4332857E-04   2.2233499E+05   -1.7848041E+00
   2.4445228E-04   2.2051442E+05   -1.7842391E+00
   2.4558119E-04   2.1870932E+05   -1.7836737E+00
   2.4671531E-04   2.1691957E+05   -1.7831080E+00
   2.4785467E-04   2.1514502E+05   -1.7825420E+00
   2.4899928E-04   2.1338554E+05   -1.7819755E+00
   2.5014919E-04   2.1164101E+05   -1.7814088E+00
   2.5130440E-04   2.0991129E+05   -1.7808417E+00
   2.5246495E-04   2.0819625E+05   -1.7802743E+00
   2.5363086E-04   2.0649576E+05   -1.7797066E+00
   2.5480216E-04   2.0480970E+05   -1.7791386E+00
   2.5597886E-04   2.0313793E+05   -1.7785703E+00
   2.5716100E-04   2.0148034E+05   -1.7780017E+00
   2.5834859E-04   1.9983680E+05   -1.7774327E+00
   2.5954168E-04   1.9820718E+05   -1.7768635E+00
   2.6074027E-04   1.9659137E+05   -1.7762940E+00
   2.6194439E-04   1.9498924E+05   -1.7757243E+00
   2.6315408E-04   1.9340068E+05   -1.7751542E+00
   2.6436935E-04   1.9182556E+05   -1.7745839E+00
   2.6559024E-04   1.9026378E+05   -1.7740134E+00
   2.6681676E-04   1.8871520E+05   -1.7734425E+00
   2.6804895E-04   1.8717972E+05   -1.7728715E+00
   2.6928683E-04   1.8565722E+05   -1.7723002E+00
   2.7053042E-04   1.8414759E+05   -1.7717286E+00
   2.7177976E-04   1.8265072E+05   -1.7711569E+00
   2.7303487E-04   1.8116649E+05   -1.7705849E+00
   2.7429577E-04   1.7969480E+05   -1.7700127E+00
   2.7556250E-04   1.7823553E+05   -1.7694402E+00
   2.7683507E-04   1.7678858E+05   -1.7688676E+00
   2.7811353E-04   1.7535384E+05   -1.7682948E+00
   2.7939788E-04   1.7393120E+05   -1.7677218E+00
   2.8068817E-04   1.7252056E+05   -1.7671486E+00
   2.8198442E-04   1.7112181E+05   -1.7665752E+00
   2.8328665E-04   1.6973485E+05   -1.7660016E+00
   2.8459490E-04   1.6835957E+05   -1.7654279E+00
   2.8590919E-04   1.6699589E+05   -1.7648540E+00
   2.8722955E-04   1.6564368E+05   -1.7642799E+00
   2.8855600E-04   1.6430286E+05   -1.7637057E+00
   2.8988859E-04   1.6297332E+05   -1.7631314E+00
   2.9122732E-04   1.6165497E+05   -1.7625569E+00
   2.9257224E-04   1.6034771E+05   -1.7619822E+00
   2.9392337E-04   1.5905144E+05   -1.7614075E+00
   2.9528074E-04   1.5776607E+05   -1.7608326E+00
   2.9664438E-04   1.5649150E+05   -1.7602576E+00
   2.9801431E-04   1.5522764E+05   -1.7596825E+00
   2.9939057E-04   1.5397440E+05   -1.7591073E+00
   3.0077319E-04   1.5273167E+05   -1.7585320E+00
   3.0216219E-04   1.5149938E+05   -1.7579566E+00
   3.0355761E-04   1.5027743E+05   -1.7573811E+00
   3.0495947E-04   1.4906573E+05   -1.7568056E+00
   3.0636780E-04   1.4786420E+05   -1.7562300E+00
   3.0778264E-04   1.4667273E+05   -1.7556543E+00
   3.0920401E-04   1.4549126E+05   -1.7550785E+00
   3.1063195E-04   1.4431968E+05   -1.7545027E+00
   3.1206648E-04   1.4315792E+05   -1.7539268E+00
   3.1350764E-04   1.4200589E+05   -1.7533509E+00
   3.1495545E-04   1.4086350E+05   -1.7527750E+00
   3.1640994E-04   1.3973067E+05   -1.7521990E+00
   3.1787116E-04   1.3860732E+05   -1.7516230E+00
   3.1933912E-04   1.3749337E+05   -1.7510470E+00
   3.2081386E-04   1.3638873E+05   -1.7504710E+00
   3.2229541E-04   1.3529332E+05   -1.7498950E+00
   3.2378381E-04   1.3420707E+05   -1.7493190E+00
   3.2527908E-04   1.3312989E+05   -1.7487429E+00
   3.2678125E-04   1.3206171E+05   -1.7481669E+00
   3.2829036E-04   1.3100245E+05   -1.7475909E+00
   3.2980644E-04   1.2995203E+05   -1.7470150E+00
   3.3132952E-04   1.2891037E+05   -1.7464390E+00
   3.3285963E-04   1.2787740E+05   -1.7458632E+00
   3.3439681E-04   1.2685305E+05   -1.7452873E+00
   3.3594109E-04   1.2583723E+05   -1.7447115E+00
   3.3749250E-04   1.2482989E+05   -1.7441358E+00
   3.3905108E-04   1.2383093E+05   -1.7435601E+00
   3.4061685E-04   1.2284029E+05   -1.7429845E+00
   3.4218986E-04   1.2185791E+05   -1.7424089E+00
   3.4377013E-04   1.2088369E+05   -1.7418334E+00
   3.4535769E-04   1.1991759E+05   -1.7412581E+00
   3.4695259E-04   1.1895952E+05   -1.7406828E+00
   3.4855485E-04   1.1800942E+05   -1.7401076E+00
   3.5016452E-04   1.1706722E+05   -1.7395325E+00
   3.5178161E-04   1.1613284E+05   -1.7389575E+00
   3.5340618E-04   1.1520623E+05   -1.7383827E+00
   3.5503824E-04   1.1428732E+05   -1.7378079E+00
   3.5667785E-04   1.1337604E+05   -1.7372333E+00
   3.5832502E-04   1.1247232E+05   -1.7366589E+00
   3.5997981E-04   1.1157610E+05   -1.7360845E+00
   3.6164223E-04   1.1068731E+05   -1.7355103E+00
   3.6331233E-04   1.0980589E+05   -1.7349363E+00
   3.6499015E-04   1.0893178E+05   -1.7343624E+00
   3.6667571E-04   1.0806492E+05   -1.7337887E+00
   3.6836906E-04   1.0720523E+05   -1.7332152E+00
   3.7007022E-04   1.0635267E+05   -1.7326418E+00
   3.7177925E-04   1.0550717E+05   -1.7320686E+00
   3.7349616E-04   1.0466866E+05   -1.7314957E+00
   3.7522101E-04   1.0383709E+05   -1.7309229E+00
   3.7695382E-04   1.0301240E+05   -1.7303503E+00
   3.7869463E-04   1.0219453E+05   -1.7297779E+00
   3.8044348E-04   1.0138342E+05   -1.7292057E+00
   3.8220041E-04   1.0057901E+05   -1.7286337E+00
   3.8396545E-04   9.9781250E+04   -1.7280620E+00
   3.8573864E-04   9.8990076E+04   -1.7274905E+00
   3.8752002E-04   9.8205435E+04   -1.7269192E+00
   3.8930963E-04   9.7427268E+04   -1.7263482E+00
   3.9110750E-04   9.6655523E+04   -1.7257774E+00
   3.9291368E-04   9.5890142E+04   -1.7252069E+00
   3.9472820E-04   9.5131073E+04   -1.7246366E+00
   3.9655109E-04   9.4378260E+04   -1.7240667E+00
   3.9838241E-04   9.3631650E+04   -1.7234969E+00
   4.0022218E-04   9.2891190E+04   -1.7229275E+00
   4.0207045E-04   9.2156828E+04   -1.7223583E+00
   4.0392725E-04   9.1428511E+04   -1.7217894E+00
   4.0579263E-04   9.0706188E+04   -1.7212209E+00
   4.0766662E-04   8.9989807E+04   -1.7206526E+00
   4.0954927E-04   8.9279318E+04   -1.7200846E+00
   4.1144061E-04   8.8574670E+04   -1.7195169E+00
   4.1334068E-04   8.7875813E+04   -1.7189496E+00
   4.1524953E-04   8.7182698E+04   -1.7183826E+00
   4.1716720E-04   8.6495275E+04   -1.7178159E+00
   4.1909372E-04   8.5813497E+04   -1.7172495E+00
   4.2102914E-04   8.5137315E+04   -1.7166835E+00
   4.2297350E-04   8.4466681E+04   -1.7161178E+00
   4.2492683E-04   8.3801549E+04   -1.7155525E+00
   4.2688919E-04   8.3141870E+04   -1.7149876E+00
   4.2886061E-04   8.2487599E+04   -1.7144230E+00
   4.3084113E-04   8.1838690E+04   -1.7138587E+00
   4.3283080E-04   8.1195096E+04   -1.7132949E+00
   4.3482966E-04   8.0556773E+04   -1.7127314E+00
   4.3683775E-04   7.9923675E+04   -1.7121683E+00
   4.3885511E-04   7.9295759E+04   -1.7116056E+00
   4.4088179E-04   7.8672980E+04   -1.7110433E+00
   4.4291783E-04   7.8055294E+04   -1.7104814E+00
   4.4496327E-04   7.7442658E+04   -1.7099200E+00
   4.4701816E-04   7.6835029E+04   -1.7093589E+00
   4.4908253E-04   7.6232365E+04   -1.7087982E+00
   4.5115644E-04   7.5634623E+04   -1.7082380E+00
   4.5323993E-04   7.5041762E+04   -1.7076782E+00
   4.5533304E-04   7.4453740E+04   -1.7071188E+00
   4.5743582E-04   7.3870516E+04   -1.7065599E+00
   4.5954830E-04   7.3292049E+04   -1.7060015E+00
   4.6167054E-04   7.2718299E+04   -1.7054434E+00
   4.6380259E-04   7.2149226E+04   -1.7048859E+00
   4.6594448E-04   7.1584790E+04   -1.7043288E+00
   4.6809626E-04   7.1024953E+04   -1.7037721E+00
   4.7025797E-04   7.0469674E+04   -1.7032160E+00
   4.7242967E-04   6.9918915E+04   -1.7026603E+00
   4.7461140E-04   6.9372638E+04   -1.7021051E+00
   4.7680321E-04   6.8830805E+04   -1.7015504E+00
   4.7900514E-04   6.8293379E+04   -1.7009961E+00
   4.8121723E-04   6.7760322E+04   -1.7004424E+00
   4.8343954E-04   6.7231598E+04   -1.6998892E+00
   4.8567212E-04   6.6707168E+04   -1.6993365E+00
   4.8791500E-04   6.6186998E+04   -1.6987843E+00
   4.9016825E-04   6.5671051E+04   -1.6982326E+00
   4.9243189E-04   6.5159292E+04   -1.6976815E+00
   4.9470600E-04   6.4651685E+04   -1.6971309E+00
   4.9699060E-04   6.4148194E+04   -1.6965808E+00
   4.9928575E-04   6.3648787E+04   -1.6960313E+00
   5.0159151E-04   6.3153426E+04   -1.6954823E+00
   5.0390791E-04   6.2662080E+04   -1.6949338E+00
   5.0623501E-04   6.2174713E+04   -1.6943859E+00
   5.0857286E-04   6.1691293E+04   -1.6938386E+00
   5.1092150E-04   6.1211785E+04   -1.6932918E+00
   5.1328099E-04   6.0736158E+04   -1.6927456E+00
   5.1565137E-04   6.0264378E+04   -1.6922000E+00
   5.1803270E-04   5.9796413E+04   -1.6916550E+00
   5.2042503E-04   5.9332230E+04   -1.6911105E+00
   5.2282841E-04   5.8871799E+04   -1.6905666E+00
   5.2524289E-04   5.8415086E+04   -1.6900234E+00
   5.2766851E-04   5.7962062E+04   -1.6894807E+00
   5.3010534E-04   5.7512695E+04   -1.6889386E+00
   5.3255342E-04   5.7066954E+04   -1.6883972E+00
   5.3501281E-04   5.6624809E+04   -1.6878563E+00
   5.3748356E-04   5.6186230E+04   -1.6873161E+00
   5.3996571E-04   5.5751186E+04   -1.6867765E+00
   5.4245933E-04   5.5319648E+04   -1.6862375E+00
   5.4496446E-04   5.4891587E+04   -1.6856992E+00
   5.4748117E-04   5.4466973E+04   -1.6851615E+00
   5.5000949E-04   5.4045777E+04   -1.6846244E+00
   5.5254949E-04   5.3627972E+04   -1.6840880E+00
   5.5510123E-04   5.3213527E+04   -1.6835522E+00
   5.5766474E-04   5.2802416E+04   -1.6830171E+00
   5.6024010E-04   5.2394610E+04   -1.6824826E+00
   5.6282734E-04   5.1990081E+04   -1.6819488E+00
   5.6542654E-04   5.1588803E+04   -1.6814157E+00
   5.6803774E-04   5.1190747E+04   -1.6808832E+00
   5.7066099E-04   5.0795887E+04   -1.6803514E+00
   5.7329637E-04   5.0404197E+04   -1.6798203E+00
   5.7594391E-04   5.0015649E+04   -1.6792899E+00
   5.7860368E-04   4.9630217E+04   -1.6787602E+00
   5.8127573E-04   4.9247876E+04   -1.6782312E+00
   5.8396012E-04   4.8868600E+04   -1.6777028E+00
   5.8665691E-04   4.8492362E+04   -1.6771752E+00
   5.8936616E-04   4.8119138E+04   -1.6766483E+00
   5.9208791E-04   4.7748902E+04   -1.6761220E+00
   5.9482223E-04   4.7381630E+04   -1.6755965E+00
   5.9756919E-04   4.7017296E+04   -1.6750718E+00
   6.0032882E-04   4.6655877E+04   -1.6745477E+00
   6.0310120E-04   4.6297347E+04   -1.6740244E+00
   6.0588639E-04   4.5941684E+04   -1.6735018E+00
   6.0868443E-04   4.5588862E+04   -1.6729799E+00
   6.1149540E-04   4.5238859E+04   -1.6724588E+00
   6.1431935E-04   4.4891650E+04   -1.6719384E+00
   6.1715634E-04   4.4547213E+04   -1.6714187E+00
   6.2000644E-04   4.4205525E+04   -1.6708999E+00
   6.2286969E-04   4.3866562E+04   -1.6703817E+00
