#        a       HoverH0(a)       dlogHdloga_of_a(a)
   1.0000000E-04   1.1265108E+06   -1.8569856E+00
   1.0046181E-04   1.1169147E+06   -1.8565147E+00
   1.0092575E-04   1.1074027E+06   -1.8560428E+00
   1.0139184E-04   1.0979741E+06   -1.8555700E+00
   1.0186008E-04   1.0886282E+06   -1.8550963E+00
   1.0233048E-04   1.0793642E+06   -1.8546217E+00
   1.0280305E-04   1.0701814E+06   -1.8541461E+00
   1.0327781E-04   1.0610790E+06   -1.8536697E+00
   1.0375475E-04   1.0520564E+06   -1.8531923E+00
   1.0423390E-04   1.0431127E+06   -1.8527140E+00
   1.0471527E-04   1.0342474E+06   -1.8522349E+00
   1.0519885E-04   1.0254597E+06   -1.8517548E+00
   1.0568467E-04   1.0167489E+06   -1.8512738E+00
   1.0617274E-04   1.0081144E+06   -1.8507919E+00
   1.0666305E-04   9.9955534E+05   -1.8503091E+00
   1.0715563E-04   9.9107121E+05   -1.8498254E+00
   1.0765049E-04   9.8266128E+05   -1.8493409E+00
   1.0814763E-04   9.7432489E+05   -1.8488554E+00
   1.0864707E-04   9.6606139E+05   -1.8483691E+00
   1.0914881E-04   9.5787012E+05   -1.8478819E+00
   1.0965287E-04   9.4975043E+05   -1.8473938E+00
   1.1015926E-04   9.4170170E+05   -1.8469048E+00
   1.1066799E-04   9.3372328E+05   -1.8464149E+00
   1.1117906E-04   9.2581455E+05   -1.8459242E+00
   1.1169250E-04   9.1797488E+05   -1.8454326E+00
   1.1220831E-04   9.1020366E+05   -1.8449402E+00
   1.1272650E-04   9.0250027E+05   -1.8444468E+00
   1.1324708E-04   8.9486412E+05   -1.8439527E+00
   1.1377007E-04   8.8729461E+05   -1.8434576E+00
   1.1429547E-04   8.7979113E+05   -1.8429617E+00
   1.1482330E-04   8.7235310E+05   -1.8424650E+00
   1.1535356E-04   8.6497994E+05   -1.8419674E+00
   1.1588628E-04   8.5767106E+05   -1.8414690E+00
   1.1642145E-04   8.5042590E+05   -1.8409697E+00
   1.1695910E-04   8.4324387E+05   -1.8404696E+00
   1.1749923E-04   8.3612443E+05   -1.8399686E+00
   1.1804185E-04   8.2906702E+05   -1.8394669E+00
   1.1858698E-04   8.2207107E+05   -1.8389643E+00
   1.1913463E-04   8.1513605E+05   -1.8384608E+00
   1.1968481E-04   8.0826141E+05   -1.8379566E+00
   1.2023752E-04   8.0144661E+05   -1.8374515E+00
   1.2079279E-04   7.9469112E+05   -1.8369456E+00
   1.2135063E-04   7.8799442E+05   -1.8364389E+00
   1.2191104E-04   7.8135597E+05   -1.8359314E+00
   1.2247403E-04   7.7477526E+05   -1.8354231E+00
   1.2303963E-04   7.6825177E+05   -1.8349140E+00
   1.2360784E-04   7.6178500E+05   -1.8344041E+00
   1.2417868E-04   7.5537444E+05   -1.8338934E+00
   1.2475215E-04   7.4901959E+05   -1.8333819E+00
   1.2532826E-04   7.4271995E+05   -1.8328696E+00
   1.2590704E-04   7.3647503E+05   -1.8323566E+00
   1.2648850E-04   7.3028435E+05   -1.8318427E+00
   1.2707263E-04   7.2414742E+05   -1.8313281E+00
   1.2765947E-04   7.1806377E+05   -1.8308127E+00
   1.2824901E-04   7.1203293E+05   -1.8302966E+00
   1.2884128E-04   7.0605441E+05   -1.8297796E+00
   1.2943628E-04   7.0012776E+05   -1.8292620E+00
   1.3003403E-04   6.9425252E+05   -1.8287435E+00
   1.3063454E-04   6.8842822E+05   -1.8282243E+00
   1.3123783E-04   6.8265442E+05   -1.8277044E+00
   1.3184390E-04   6.7693067E+05   -1.8271837E+00
   1.3245277E-04   6.7125652E+05   -1.8266623E+00
   1.3306445E-04   6.6563153E+05   -1.8261401E+00
   1.3367895E-04   6.6005527E+05   -1.8256172E+00
   1.3429630E-04   6.5452730E+05   -1.8250936E+00
   1.3491649E-04   6.4904720E+05   -1.8245692E+00
   1.3553955E-04   6.4361453E+05   -1.8240441E+00
   1.3616548E-04   6.3822888E+05   -1.8235183E+00
   1.3679431E-04   6.3288983E+05   -1.8229918E+00
   1.3742604E-04   6.2759697E+05   -1.8224646E+00
   1.3806069E-04   6.2234989E+05   -1.8219367E+00
   1.3869827E-04   6.1714817E+05   -1.8214081E+00
   1.3933879E-04   6.1199143E+05   -1.8208788E+00
   1.3998227E-04   6.0687925E+05   -1.8203488E+00
   1.4062872E-04   6.0181125E+05   -1.8198181E+00
   1.4127816E-04   5.9678703E+05   -1.8192867E+00
   1.4193060E-04   5.9180620E+05   -1.8187546E+00
   1.4258605E-04   5.8686839E+05   -1.8182219E+00
   1.4324453E-04   5.8197320E+05   -1.8176885E+00
   1.4390605E-04   5.7712027E+05   -1.8171544E+00
   1.4457062E-04   5.7230921E+05   -1.8166197E+00
   1.4523826E-04   5.6753966E+05   -1.8160843E+00
   1.4590899E-04   5.6281124E+05   -1.8155483E+00
   1.4658281E-04   5.5812360E+05   -1.8150116E+00
   1.4725974E-04   5.5347637E+05   -1.8144742E+00
   1.4793981E-04   5.4886920E+05   -1.8139363E+00
   1.4862301E-04   5.4430173E+05   -1.8133977E+00
   1.4930936E-04   5.3977360E+05   -1.8128584E+00
   1.4999889E-04   5.3528448E+05   -1.8123186E+00
   1.5069160E-04   5.3083401E+05   -1.8117781E+00
   1.5138751E-04   5.2642186E+05   -1.8112370E+00
   1.5208663E-04   5.2204768E+05   -1.8106953E+00
   1.5278899E-04   5.1771114E+05   -1.8101530E+00
   1.5349458E-04   5.1341191E+05   -1.8096100E+00
   1.5420343E-04   5.0914965E+05   -1.8090665E+00
   1.5491556E-04   5.0492404E+05   -1.8085224E+00
   1.5563098E-04   5.0073476E+05   -1.8079777E+00
   1.5634970E-04   4.9658149E+05   -1.8074325E+00
   1.5707174E-04   4.9246390E+05   -1.8068866E+00
   1.5779711E-04   4.8838168E+05   -1.8063402E+00
   1.5852584E-04   4.8433452E+05   -1.8057932E+00
   1.5925792E-04   4.8032211E+05   -1.8052456E+00
   1.5999339E-04   4.7634414E+05   -1.8046975E+00
   1.6073226E-04   4.7240031E+05   -1.8041488E+00
   1.6147454E-04   4.6849032E+05   -1.8035996E+00
   1.6222024E-04   4.6461387E+05   -1.8030499E+00
   1.6296939E-04   4.6077066E+05   -1.8024996E+00
   1.6372200E-04   4.5696040E+05   -1.8019487E+00
   1.6447809E-04   4.5318280E+05   -1.8013974E+00
   1.6523767E-04   4.4943757E+05   -1.8008455E+00
   1.6600075E-04   4.4572442E+05   -1.8002931E+00
   1.6676736E-04   4.4204308E+05   -1.7997402E+00
   1.6753751E-04   4.3839326E+05   -1.7991868E+00
   1.6831122E-04   4.3477469E+05   -1.7986328E+00
   1.6908849E-04   4.3118708E+05   -1.7980784E+00
   1.6986936E-04   4.2763017E+05   -1.7975235E+00
   1.7065384E-04   4.2410369E+05   -1.7969681E+00
   1.7144193E-04   4.2060736E+05   -1.7964122E+00
   1.7223367E-04   4.1714093E+05   -1.7958559E+00
   1.7302906E-04   4.1370413E+05   -1.7952991E+00
   1.7382813E-04   4.1029669E+05   -1.7947418E+00
   1.7463089E-04   4.0691837E+05   -1.7941840E+00
   1.7543735E-04   4.0356890E+05   -1.7936258E+00
   1.7624754E-04   4.0024803E+05   -1.7930672E+00
   1.7706147E-04   3.9695551E+05   -1.7925081E+00
   1.7787916E-04   3.9369109E+05   -1.7919485E+00
   1.7870062E-04   3.9045452E+05   -1.7913886E+00
   1.7952588E-04   3.8724556E+05   -1.7908282E+00
   1.8035495E-04   3.8406396E+05   -1.7902674E+00
   1.8118785E-04   3.8090949E+05   -1.7897061E+00
   1.8202459E-04   3.7778191E+05   -1.7891445E+00
   1.8286520E-04   3.7468097E+05   -1.7885824E+00
   1.8370969E-04   3.7160645E+05   -1.7880200E+00
   1.8455808E-04   3.6855812E+05   -1.7874571E+00
   1.8541039E-04   3.6553574E+05   -1.7868939E+00
   1.8626663E-04   3.6253908E+05   -1.7863303E+00
   1.8712683E-04   3.5956793E+05   -1.7857663E+00
   1.8799100E-04   3.5662205E+05   -1.7852019E+00
   1.8885917E-04   3.5370123E+05   -1.7846372E+00
   1.8973134E-04   3.5080524E+05   -1.7840721E+00
   1.9060754E-04   3.4793387E+05   -1.7835067E+00
   1.9148778E-04   3.4508690E+05   -1.7829409E+00
   1.9237209E-04   3.4226412E+05   -1.7823747E+00
   1.9326049E-04   3.3946532E+05   -1.7818082E+00
   1.9415299E-04   3.3669028E+05   -1.7812414E+00
   1.9504960E-04   3.3393880E+05   -1.7806743E+00
   1.9595036E-04   3.3121067E+05   -1.7801068E+00
   1.9685528E-04   3.2850569E+05   -1.7795390E+00
   1.9776438E-04   3.2582365E+05   -1.7789709E+00
   1.9867768E-04   3.2316435E+05   -1.7784026E+00
   1.9959519E-04   3.2052760E+05   -1.7778339E+00
   2.0051694E-04   3.1791320E+05   -1.7772649E+00
   2.0144295E-04   3.1532095E+05   -1.7766956E+00
   2.0237324E-04   3.1275065E+05   -1.7761261E+00
   2.0330782E-04   3.1020212E+05   -1.7755563E+00
   2.0424671E-04   3.0767516E+05   -1.7749862E+00
   2.0518995E-04   3.0516960E+05   -1.7744158E+00
   2.0613754E-04   3.0268523E+05   -1.7738452E+00
   2.0708950E-04   3.0022188E+05   -1.7732743E+00
   2.0804586E-04   2.9777935E+05   -1.7727032E+00
   2.0900664E-04   2.9535748E+05   -1.7721319E+00
   2.0997185E-04   2.9295608E+05   -1.7715603E+00
   2.1094152E-04   2.9057496E+05   -1.7709885E+00
   2.1191567E-04   2.8821396E+05   -1.7704165E+00
   2.1289432E-04   2.8587290E+05   -1.7698442E+00
   2.1387749E-04   2.8355160E+05   -1.7692718E+00
   2.1486520E-04   2.8124989E+05   -1.7686991E+00
   2.1585747E-04   2.7896760E+05   -1.7681263E+00
   2.1685432E-04   2.7670456E+05   -1.7675532E+00
   2.1785578E-04   2.7446060E+05   -1.7669800E+00
   2.1886186E-04   2.7223556E+05   -1.7664066E+00
   2.1987259E-04   2.7002927E+05   -1.7658330E+00
   2.2088798E-04   2.6784157E+05   -1.7652592E+00
   2.2190807E-04   2.6567230E+05   -1.7646853E+00
   2.2293286E-04   2.6352130E+05   -1.7641113E+00
   2.2396239E-04   2.6138840E+05   -1.7635370E+00
   2.2499667E-04   2.5927345E+05   -1.7629627E+00
   2.2603573E-04   2.5717629E+05   -1.7623882E+00
   2.2707958E-04   2.5509677E+05   -1.7618135E+00
   2.2812826E-04   2.5303474E+05   -1.7612388E+00
   2.2918178E-04   2.5099004E+05   -1.7606639E+00
   2.3024017E-04   2.4896252E+05   -1.7600889E+00
   2.3130344E-04   2.4695203E+05   -1.7595138E+00
   2.3237162E-04   2.4495843E+05   -1.7589386E+00
   2.3344474E-04   2.4298157E+05   -1.7583633E+00
   2.3452281E-04   2.4102130E+05   -1.7577879E+00
   2.3560586E-04   2.3907748E+05   -1.7572125E+00
   2.3669392E-04   2.3714996E+05   -1.7566369E+00
   2.3778699E-04   2.3523861E+05   -1.7560613E+00
   2.3888512E-04   2.3334328E+05   -1.7554856E+00
   2.3998831E-04   2.3146384E+05   -1.7549099E+00
   2.4109661E-04   2.2960014E+05   -1.7543341E+00
   2.4221001E-04   2.2775205E+05   -1.7537583E+00
   2.4332857E-04   2.2591944E+05   -1.7531824E+00
   2.4445228E-04   2.2410217E+05   -1.7526065E+00
   2.4558119E-04   2.2230011E+05   -1.7520305E+00
   2.4671531E-04   2.2051312E+05   -1.7514546E+00
   2.4785467E-04   2.1874108E+05   -1.7508786E+00
   2.4899928E-04   2.1698385E+05   -1.7503026E+00
   2.5014919E-04   2.1524131E+05   -1.7497266E+00
   2.5130440E-04   2.1351334E+05   -1.7491506E+00
   2.5246495E-04   2.1179979E+05   -1.7485747E+00
   2.5363086E-04   2.1010056E+05   -1.7479987E+00
   2.5480216E-04   2.0841551E+05   -1.7474227E+00
   2.5597886E-04   2.0674453E+05   -1.7468468E+00
   2.5716100E-04   2.0508748E+05   -1.7462709E+00
   2.5834859E-04   2.0344426E+05   -1.7456951E+00
   2.5954168E-04   2.0181474E+05   -1.7451193E+00
   2.6074027E-04   2.0019880E+05   -1.7445436E+00
   2.6194439E-04   1.9859633E+05   -1.7439679E+00
   2.6315408E-04   1.9700721E+05   -1.7433922E+00
   2.6436935E-04   1.9543132E+05   -1.7428167E+00
   2.6559024E-04   1.9386855E+05   -1.7422412E+00
   2.6681676E-04   1.9231879E+05   -1.7416658E+00
   2.6804895E-04   1.9078192E+05   -1.7410905E+00
   2.6928683E-04   1.8925783E+05   -1.7405153E+00
   2.7053042E-04   1.8774642E+05   -1.7399402E+00
   2.7177976E-04   1.8624757E+05   -1.7393652E+00
   2.7303487E-04   1.8476118E+05   -1.7387903E+00
   2.7429577E-04   1.8328714E+05   -1.7382155E+00
   2.7556250E-04   1.8182533E+05   -1.7376408E+00
   2.7683507E-04   1.8037566E+05   -1.7370663E+00
   2.7811353E-04   1.7893803E+05   -1.7364919E+00
   2.7939788E-04   1.7751232E+05   -1.7359177E+00
   2.8068817E-04   1.7609844E+05   -1.7353436E+00
   2.8198442E-04   1.7469628E+05   -1.7347696E+00
   2.8328665E-04   1.7330574E+05   -1.7341958E+00
   2.8459490E-04   1.7192673E+05   -1.7336222E+00
   2.8590919E-04   1.7055914E+05   -1.7330488E+00
   2.8722955E-04   1.6920288E+05   -1.7324755E+00
   2.8855600E-04   1.6785784E+05   -1.7319024E+00
   2.8988859E-04   1.6652393E+05   -1.7313295E+00
   2.9122732E-04   1.6520107E+05   -1.7307568E+00
   2.9257224E-04   1.6388914E+05   -1.7301844E+00
   2.9392337E-04   1.6258806E+05   -1.7296121E+00
   2.9528074E-04   1.6129773E+05   -1.7290400E+00
   2.9664438E-04   1.6001807E+05   -1.7284682E+00
   2.9801431E-04   1.5874898E+05   -1.7278965E+00
   2.9939057E-04   1.5749036E+05   -1.7273252E+00
   3.0077319E-04   1.5624214E+05   -1.7267540E+00
   3.0216219E-04   1.5500422E+05   -1.7261831E+00
   3.0355761E-04   1.5377651E+05   -1.7256124E+00
   3.0495947E-04   1.5255892E+05   -1.7250420E+00
   3.0636780E-04   1.5135137E+05   -1.7244719E+00
   3.0778264E-04   1.5015378E+05   -1.7239020E+00
   3.0920401E-04   1.4896605E+05   -1.7233324E+00
   3.1063195E-04   1.4778811E+05   -1.7227631E+00
   3.1206648E-04   1.4661986E+05   -1.7221941E+00
   3.1350764E-04   1.4546123E+05   -1.7216254E+00
   3.1495545E-04   1.4431214E+05   -1.7210569E+00
   3.1640994E-04   1.4317250E+05   -1.7204888E+00
   3.1787116E-04   1.4204222E+05   -1.7199209E+00
   3.1933912E-04   1.4092124E+05   -1.7193534E+00
   3.2081386E-04   1.3980948E+05   -1.7187862E+00
   3.2229541E-04   1.3870684E+05   -1.7182193E+00
   3.2378381E-04   1.3761326E+05   -1.7176528E+00
   3.2527908E-04   1.3652866E+05   -1.7170866E+00
   3.2678125E-04   1.3545296E+05   -1.7165207E+00
   3.2829036E-04   1.3438609E+05   -1.7159552E+00
   3.2980644E-04   1.3332797E+05   -1.7153901E+00
   3.3132952E-04   1.3227852E+05   -1.7148253E+00
   3.3285963E-04   1.3123767E+05   -1.7142608E+00
   3.3439681E-04   1.3020536E+05   -1.7136968E+00
   3.3594109E-04   1.2918150E+05   -1.7131331E+00
   3.3749250E-04   1.2816602E+05   -1.7125698E+00
   3.3905108E-04   1.2715885E+05   -1.7120069E+00
   3.4061685E-04   1.2615993E+05   -1.7114443E+00
   3.4218986E-04   1.2516918E+05   -1.7108822E+00
   3.4377013E-04   1.2418653E+05   -1.7103205E+00
   3.4535769E-04   1.2321191E+05   -1.7097592E+00
   3.4695259E-04   1.2224526E+05   -1.7091983E+00
   3.4855485E-04   1.2128651E+05   -1.7086378E+00
   3.5016452E-04   1.2033558E+05   -1.7080778E+00
   3.5178161E-04   1.1939242E+05   -1.7075182E+00
   3.5340618E-04   1.1845696E+05   -1.7069590E+00
   3.5503824E-04   1.1752912E+05   -1.7064003E+00
   3.5667785E-04   1.1660886E+05   -1.7058420E+00
   3.5832502E-04   1.1569610E+05   -1.7052841E+00
   3.5997981E-04   1.1479078E+05   -1.7047268E+00
   3.6164223E-04   1.1389283E+05   -1.7041699E+00
   3.6331233E-04   1.1300220E+05   -1.7036134E+00
   3.6499015E-04   1.1211883E+05   -1.7030575E+00
   3.6667571E-04   1.1124264E+05   -1.7025020E+00
   3.6836906E-04   1.1037358E+05   -1.7019470E+00
   3.7007022E-04   1.0951159E+05   -1.7013925E+00
   3.7177925E-04   1.0865661E+05   -1.7008385E+00
   3.7349616E-04   1.0780858E+05   -1.7002849E+00
   3.7522101E-04   1.0696744E+05   -1.6997319E+00
   3.7695382E-04   1.0613314E+05   -1.6991794E+00
   3.7869463E-04   1.0530561E+05   -1.6986275E+00
   3.8044348E-04   1.0448479E+05   -1.6980760E+00
   3.8220041E-04   1.0367064E+05   -1.6975251E+00
   3.8396545E-04   1.0286310E+05   -1.6969747E+00
   3.8573864E-04   1.0206210E+05   -1.6964248E+00
   3.8752002E-04   1.0126760E+05   -1.6958755E+00
   3.8930963E-04   1.0047953E+05   -1.6953267E+00
   3.9110750E-04   9.9697851E+04   -1.6947785E+00
   3.9291368E-04   9.8922502E+04   -1.6942309E+00
   3.9472820E-04   9.8153430E+04   -1.6936838E+00
   3.9655109E-04   9.7390583E+04   -1.6931372E+00
   3.9838241E-04   9.6633908E+04   -1.6925913E+00
   4.0022218E-04   9.5883353E+04   -1.6920459E+00
   4.0207045E-04   9.5138867E+04   -1.6915011E+00
   4.0392725E-04   9.4400398E+04   -1.6909569E+00
   4.0579263E-04   9.3667896E+04   -1.6904132E+00
   4.0766662E-04   9.2941310E+04   -1.6898702E+00
   4.0954927E-04   9.2220591E+04   -1.6893278E+00
   4.1144061E-04   9.1505690E+04   -1.6887860E+00
   4.1334068E-04   9.0796557E+04   -1.6882447E+00
   4.1524953E-04   9.0093144E+04   -1.6877041E+00
   4.1716720E-04   8.9395403E+04   -1.6871642E+00
   4.1909372E-04   8.8703286E+04   -1.6866248E+00
   4.2102914E-04   8.8016746E+04   -1.6860861E+00
   4.2297350E-04   8.7335737E+04   -1.6855480E+00
   4.2492683E-04   8.6660211E+04   -1.6850105E+00
   4.2688919E-04   8.5990124E+04   -1.6844737E+00
   4.2886061E-04   8.5325429E+04   -1.6839376E+00
   4.3084113E-04   8.4666080E+04   -1.6834021E+00
   4.3283080E-04   8.4012035E+04   -1.6828672E+00
   4.3482966E-04   8.3363246E+04   -1.6823330E+00
   4.3683775E-04   8.2719672E+04   -1.6817995E+00
   4.3885511E-04   8.2081268E+04   -1.6812666E+00
   4.4088179E-04   8.1447990E+04   -1.6807344E+00
   4.4291783E-04   8.0819797E+04   -1.6802029E+00
   4.4496327E-04   8.0196645E+04   -1.6796721E+00
   4.4701816E-04   7.9578492E+04   -1.6791420E+00
   4.4908253E-04   7.8965296E+04   -1.6786125E+00
   4.5115644E-04   7.8357017E+04   -1.6780837E+00
   4.5323993E-04   7.7753612E+04   -1.6775557E+00
   4.5533304E-04   7.7155042E+04   -1.6770283E+00
   4.5743582E-04   7.6561266E+04   -1.6765017E+00
   4.5954830E-04   7.5972244E+04   -1.6759758E+00
   4.6167054E-04   7.5387936E+04   -1.6754506E+00
   4.6380259E-04   7.4808302E+04   -1.6749261E+00
   4.6594448E-04   7.4233305E+04   -1.6744023E+00
   4.6809626E-04   7.3662904E+04   -1.6738793E+00
   4.7025797E-04   7.3097063E+04   -1.6733569E+00
   4.7242967E-04   7.2535743E+04   -1.6728354E+00
   4.7461140E-04   7.1978905E+04   -1.6723145E+00
   4.7680321E-04   7.1426514E+04   -1.6717945E+00
   4.7900514E-04   7.0878532E+04   -1.6712751E+00
   4.8121723E-04   7.0334922E+04   -1.6707565E+00
   4.8343954E-04   6.9795648E+04   -1.6702387E+00
   4.8567212E-04   6.9260674E+04   -1.6697216E+00
   4.8791500E-04   6.8729964E+04   -1.6692053E+00
   4.9016825E-04   6.8203483E+04   -1.6686898E+00
   4.9243189E-04   6.7681195E+04   -1.6681750E+00
   4.9470600E-04   6.7163066E+04   -1.6676610E+00
   4.9699060E-04   6.6649061E+04   -1.6671478E+00
   4.9928575E-04   6.6139147E+04   -1.6666354E+00
   5.0159151E-04   6.5633288E+04   -1.6661237E+00
   5.0390791E-04   6.5131452E+04   -1.6656129E+00
   5.0623501E-04   6.4633604E+04   -1.6651028E+00
   5.0857286E-04   6.4139713E+04   -1.6645935E+00
   5.1092150E-04   6.3649745E+04   -1.6640851E+00
   5.1328099E-04   6.3163668E+04   -1.6635774E+00
   5.1565137E-04   6.2681450E+04   -1.6630705E+00
   5.1803270E-04   6.2203058E+04   -1.6625645E+00
   5.2042503E-04   6.1728461E+04   -1.6620592E+00
   5.2282841E-04   6.1257627E+04   -1.6615548E+00
   5.2524289E-04   6.0790526E+04   -1.6610512E+00
   5.2766851E-04   6.0327127E+04   -1.6605485E+00
   5.3010534E-04   5.9867398E+04   -1.6600465E+00
   5.3255342E-04   5.9411311E+04   -1.6595454E+00
   5.3501281E-04   5.8958833E+04   -1.6590451E+00
   5.3748356E-04   5.8509937E+04   -1.6585457E+00
   5.3996571E-04   5.8064592E+04   -1.6580471E+00
   5.4245933E-04   5.7622769E+04   -1.6575493E+00
   5.4496446E-04   5.7184439E+04   -1.6570524E+00
   5.4748117E-04   5.6749573E+04   -1.6565563E+00
   5.5000949E-04   5.6318143E+04   -1.6560611E+00
   5.5254949E-04   5.5890120E+04   -1.6555668E+00
   5.5510123E-04   5.5465476E+04   -1.6550733E+00
   5.5766474E-04   5.5044184E+04   -1.6545806E+00
   5.6024010E-04   5.4626215E+04   -1.6540889E+00
   5.6282734E-04   5.4211543E+04   -1.6535980E+00
   5.6542654E-04   5.3800141E+04   -1.6531079E+00
   5.6803774E-04   5.3391980E+04   -1.6526188E+00
   5.7066099E-04   5.2987036E+04   -1.6521305E+00
   5.7329637E-04   5.2585281E+04   -1.6516431E+00
   5.7594391E-04   5.2186690E+04   -1.6511565E+00
   5.7860368E-04   5.1791235E+04   -1.6506709E+00
   5.8127573E-04   5.1398893E+04   -1.6501862E+00
   5.8396012E-04   5.1009636E+04   -1.6497023E+00
   5.8665691E-04   5.0623440E+04   -1.6492193E+00
   5.8936616E-04   5.0240279E+04   -1.6487372E+00
   5.9208791E-04   4.9860130E+04   -1.6482561E+00
   5.9482223E-04   4.9482966E+04   -1.6477758E+00
   5.9756919E-04   4.9108764E+04   -1.6472964E+00
   6.0032882E-04   4.8737499E+04   -1.6468179E+00
   6.0310120E-04   4.8369148E+04   -1.6463404E+00
   6.0588639E-04   4.8003686E+04   -1.6458637E+00
   6.0868443E-04   4.7641090E+04   -1.6453880E+00
   6.1149540E-04   4.7281336E+04   -1.6449132E+00
   6.1431935E-04   4.6924401E+04   -1.6444393E+00
   6.1715634E-04   4.6570263E+04   -1.6439663E+00
   6.2000644E-04   4.6218898E+04   -1.6434942E+00
   6.2286969E-04   4.5870284E+04   -1.6430231E+00
