#        a       HoverH0(a)       dlogHdloga_of_a(a)
   1.0000000E-04   1.0814901E+06   -1.8481509E+00
   1.0046181E-04   1.0723212E+06   -1.8476633E+00
   1.0092575E-04   1.0632324E+06   -1.8471748E+00
   1.0139184E-04   1.0542231E+06   -1.8466854E+00
   1.0186008E-04   1.0452924E+06   -1.8461952E+00
   1.0233048E-04   1.0364397E+06   -1.8457040E+00
   1.0280305E-04   1.0276643E+06   -1.8452121E+00
   1.0327781E-04   1.0189655E+06   -1.8447192E+00
   1.0375475E-04   1.0103427E+06   -1.8442255E+00
   1.0423390E-04   1.0017951E+06   -1.8437310E+00
   1.0471527E-04   9.9332209E+05   -1.8432355E+00
   1.0519885E-04   9.8492299E+05   -1.8427393E+00
   1.0568467E-04   9.7659714E+05   -1.8422422E+00
   1.0617274E-04   9.6834389E+05   -1.8417442E+00
   1.0666305E-04   9.6016260E+05   -1.8412454E+00
   1.0715563E-04   9.5205262E+05   -1.8407457E+00
   1.0765049E-04   9.4401332E+05   -1.8402453E+00
   1.0814763E-04   9.3604406E+05   -1.8397439E+00
   1.0864707E-04   9.2814422E+05   -1.8392418E+00
   1.0914881E-04   9.2031319E+05   -1.8387388E+00
   1.0965287E-04   9.1255034E+05   -1.8382350E+00
   1.1015926E-04   9.0485508E+05   -1.8377304E+00
   1.1066799E-04   8.9722679E+05   -1.8372250E+00
   1.1117906E-04   8.8966489E+05   -1.8367187E+00
   1.1169250E-04   8.8216878E+05   -1.8362117E+00
   1.1220831E-04   8.7473787E+05   -1.8357038E+00
   1.1272650E-04   8.6737159E+05   -1.8351951E+00
   1.1324708E-04   8.6006936E+05   -1.8346857E+00
   1.1377007E-04   8.5283061E+05   -1.8341754E+00
   1.1429547E-04   8.4565478E+05   -1.8336644E+00
   1.1482330E-04   8.3854130E+05   -1.8331525E+00
   1.1535356E-04   8.3148962E+05   -1.8326399E+00
   1.1588628E-04   8.2449919E+05   -1.8321265E+00
   1.1642145E-04   8.1756946E+05   -1.8316123E+00
   1.1695910E-04   8.1069990E+05   -1.8310973E+00
   1.1749923E-04   8.0388996E+05   -1.8305816E+00
   1.1804185E-04   7.9713913E+05   -1.8300651E+00
   1.1858698E-04   7.9044687E+05   -1.8295479E+00
   1.1913463E-04   7.8381266E+05   -1.8290298E+00
   1.1968481E-04   7.7723599E+05   -1.8285111E+00
   1.2023752E-04   7.7071635E+05   -1.8279915E+00
   1.2079279E-04   7.6425323E+05   -1.8274713E+00
   1.2135063E-04   7.5784612E+05   -1.8269502E+00
   1.2191104E-04   7.5149454E+05   -1.8264285E+00
   1.2247403E-04   7.4519797E+05   -1.8259060E+00
   1.2303963E-04   7.3895595E+05   -1.8253828E+00
   1.2360784E-04   7.3276798E+05   -1.8248588E+00
   1.2417868E-04   7.2663358E+05   -1.8243342E+00
   1.2475215E-04   7.2055228E+05   -1.8238088E+00
   1.2532826E-04   7.1452360E+05   -1.8232826E+00
   1.2590704E-04   7.0854709E+05   -1.8227558E+00
   1.2648850E-04   7.0262227E+05   -1.8222283E+00
   1.2707263E-04   6.9674868E+05   -1.8217001E+00
   1.2765947E-04   6.9092588E+05   -1.8211711E+00
   1.2824901E-04   6.8515342E+05   -1.8206415E+00
   1.2884128E-04   6.7943084E+05   -1.8201112E+00
   1.2943628E-04   6.7375770E+05   -1.8195802E+00
   1.3003403E-04   6.6813357E+05   -1.8190485E+00
   1.3063454E-04   6.6255801E+05   -1.8185162E+00
   1.3123783E-04   6.5703059E+05   -1.8179831E+00
   1.3184390E-04   6.5155089E+05   -1.8174494E+00
   1.3245277E-04   6.4611847E+05   -1.8169151E+00
   1.3306445E-04   6.4073293E+05   -1.8163801E+00
   1.3367895E-04   6.3539385E+05   -1.8158444E+00
   1.3429630E-04   6.3010081E+05   -1.8153081E+00
   1.3491649E-04   6.2485340E+05   -1.8147711E+00
   1.3553955E-04   6.1965123E+05   -1.8142335E+00
   1.3616548E-04   6.1449390E+05   -1.8136952E+00
   1.3679431E-04   6.0938100E+05   -1.8131563E+00
   1.3742604E-04   6.0431215E+05   -1.8126168E+00
   1.3806069E-04   5.9928694E+05   -1.8120767E+00
   1.3869827E-04   5.9430501E+05   -1.8115359E+00
   1.3933879E-04   5.8936596E+05   -1.8109946E+00
   1.3998227E-04   5.8446942E+05   -1.8104526E+00
   1.4062872E-04   5.7961500E+05   -1.8099100E+00
   1.4127816E-04   5.7480234E+05   -1.8093668E+00
   1.4193060E-04   5.7003107E+05   -1.8088230E+00
   1.4258605E-04   5.6530082E+05   -1.8082787E+00
   1.4324453E-04   5.6061123E+05   -1.8077337E+00
   1.4390605E-04   5.5596194E+05   -1.8071882E+00
   1.4457062E-04   5.5135260E+05   -1.8066421E+00
   1.4523826E-04   5.4678285E+05   -1.8060954E+00
   1.4590899E-04   5.4225234E+05   -1.8055482E+00
   1.4658281E-04   5.3776072E+05   -1.8050004E+00
   1.4725974E-04   5.3330766E+05   -1.8044520E+00
   1.4793981E-04   5.2889281E+05   -1.8039031E+00
   1.4862301E-04   5.2451583E+05   -1.8033536E+00
   1.4930936E-04   5.2017639E+05   -1.8028036E+00
   1.4999889E-04   5.1587416E+05   -1.8022531E+00
   1.5069160E-04   5.1160882E+05   -1.8017020E+00
   1.5138751E-04   5.0738002E+05   -1.8011505E+00
   1.5208663E-04   5.0318746E+05   -1.8005983E+00
   1.5278899E-04   4.9903082E+05   -1.8000457E+00
   1.5349458E-04   4.9490977E+05   -1.7994926E+00
   1.5420343E-04   4.9082401E+05   -1.7989389E+00
   1.5491556E-04   4.8677322E+05   -1.7983848E+00
   1.5563098E-04   4.8275709E+05   -1.7978302E+00
   1.5634970E-04   4.7877532E+05   -1.7972751E+00
   1.5707174E-04   4.7482761E+05   -1.7967194E+00
   1.5779711E-04   4.7091366E+05   -1.7961634E+00
   1.5852584E-04   4.6703316E+05   -1.7956068E+00
   1.5925792E-04   4.6318583E+05   -1.7950498E+00
   1.5999339E-04   4.5937137E+05   -1.7944923E+00
   1.6073226E-04   4.5558950E+05   -1.7939343E+00
   1.6147454E-04   4.5183992E+05   -1.7933759E+00
   1.6222024E-04   4.4812236E+05   -1.7928171E+00
   1.6296939E-04   4.4443652E+05   -1.7922578E+00
   1.6372200E-04   4.4078215E+05   -1.7916981E+00
   1.6447809E-04   4.3715894E+05   -1.7911379E+00
   1.6523767E-04   4.3356664E+05   -1.7905773E+00
   1.6600075E-04   4.3000497E+05   -1.7900163E+00
   1.6676736E-04   4.2647366E+05   -1.7894549E+00
   1.6753751E-04   4.2297245E+05   -1.7888931E+00
   1.6831122E-04   4.1950106E+05   -1.7883309E+00
   1.6908849E-04   4.1605924E+05   -1.7877683E+00
   1.6986936E-04   4.1264673E+05   -1.7872052E+00
   1.7065384E-04   4.0926328E+05   -1.7866418E+00
   1.7144193E-04   4.0590862E+05   -1.7860781E+00
   1.7223367E-04   4.0258250E+05   -1.7855139E+00
   1.7302906E-04   3.9928467E+05   -1.7849494E+00
   1.7382813E-04   3.9601490E+05   -1.7843845E+00
   1.7463089E-04   3.9277292E+05   -1.7838192E+00
   1.7543735E-04   3.8955849E+05   -1.7832536E+00
   1.7624754E-04   3.8637138E+05   -1.7826877E+00
   1.7706147E-04   3.8321135E+05   -1.7821214E+00
   1.7787916E-04   3.8007815E+05   -1.7815548E+00
   1.7870062E-04   3.7697155E+05   -1.7809878E+00
   1.7952588E-04   3.7389132E+05   -1.7804205E+00
   1.8035495E-04   3.7083723E+05   -1.7798530E+00
   1.8118785E-04   3.6780905E+05   -1.7792850E+00
   1.8202459E-04   3.6480655E+05   -1.7787168E+00
   1.8286520E-04   3.6182951E+05   -1.7781483E+00
   1.8370969E-04   3.5887770E+05   -1.7775795E+00
   1.8455808E-04   3.5595091E+05   -1.7770104E+00
   1.8541039E-04   3.5304892E+05   -1.7764410E+00
   1.8626663E-04   3.5017150E+05   -1.7758713E+00
   1.8712683E-04   3.4731844E+05   -1.7753014E+00
   1.8799100E-04   3.4448954E+05   -1.7747312E+00
   1.8885917E-04   3.4168457E+05   -1.7741607E+00
   1.8973134E-04   3.3890334E+05   -1.7735900E+00
   1.9060754E-04   3.3614562E+05   -1.7730191E+00
   1.9148778E-04   3.3341123E+05   -1.7724479E+00
   1.9237209E-04   3.3069994E+05   -1.7718764E+00
   1.9326049E-04   3.2801157E+05   -1.7713047E+00
   1.9415299E-04   3.2534591E+05   -1.7707328E+00
   1.9504960E-04   3.2270277E+05   -1.7701607E+00
   1.9595036E-04   3.2008194E+05   -1.7695884E+00
   1.9685528E-04   3.1748324E+05   -1.7690158E+00
   1.9776438E-04   3.1490646E+05   -1.7684431E+00
   1.9867768E-04   3.1235142E+05   -1.7678702E+00
   1.9959519E-04   3.0981793E+05   -1.7672970E+00
   2.0051694E-04   3.0730581E+05   -1.7667237E+00
   2.0144295E-04   3.0481485E+05   -1.7661503E+00
   2.0237324E-04   3.0234489E+05   -1.7655766E+00
   2.0330782E-04   2.9989573E+05   -1.7650028E+00
   2.0424671E-04   2.9746720E+05   -1.7644288E+00
   2.0518995E-04   2.9505912E+05   -1.7638547E+00
   2.0613754E-04   2.9267130E+05   -1.7632804E+00
   2.0708950E-04   2.9030358E+05   -1.7627060E+00
   2.0804586E-04   2.8795577E+05   -1.7621314E+00
   2.0900664E-04   2.8562771E+05   -1.7615567E+00
   2.0997185E-04   2.8331922E+05   -1.7609819E+00
   2.1094152E-04   2.8103013E+05   -1.7604070E+00
   2.1191567E-04   2.7876028E+05   -1.7598320E+00
   2.1289432E-04   2.7650949E+05   -1.7592569E+00
   2.1387749E-04   2.7427760E+05   -1.7586816E+00
   2.1486520E-04   2.7206445E+05   -1.7581063E+00
   2.1585747E-04   2.6986987E+05   -1.7575309E+00
   2.1685432E-04   2.6769370E+05   -1.7569554E+00
   2.1785578E-04   2.6553579E+05   -1.7563798E+00
   2.1886186E-04   2.6339596E+05   -1.7558042E+00
   2.1987259E-04   2.6127408E+05   -1.7552285E+00
   2.2088798E-04   2.5916998E+05   -1.7546527E+00
   2.2190807E-04   2.5708350E+05   -1.7540769E+00
   2.2293286E-04   2.5501450E+05   -1.7535011E+00
   2.2396239E-04   2.5296282E+05   -1.7529252E+00
   2.2499667E-04   2.5092831E+05   -1.7523493E+00
   2.2603573E-04   2.4891083E+05   -1.7517733E+00
   2.2707958E-04   2.4691022E+05   -1.7511974E+00
   2.2812826E-04   2.4492634E+05   -1.7506214E+00
   2.2918178E-04   2.4295905E+05   -1.7500454E+00
   2.3024017E-04   2.4100820E+05   -1.7494694E+00
   2.3130344E-04   2.3907364E+05   -1.7488935E+00
   2.3237162E-04   2.3715525E+05   -1.7483175E+00
   2.3344474E-04   2.3525287E+05   -1.7477416E+00
   2.3452281E-04   2.3336637E+05   -1.7471656E+00
   2.3560586E-04   2.3149562E+05   -1.7465897E+00
   2.3669392E-04   2.2964047E+05   -1.7460139E+00
   2.3778699E-04   2.2780079E+05   -1.7454381E+00
   2.3888512E-04   2.2597645E+05   -1.7448623E+00
   2.3998831E-04   2.2416731E+05   -1.7442866E+00
   2.4109661E-04   2.2237325E+05   -1.7437109E+00
   2.4221001E-04   2.2059413E+05   -1.7431353E+00
   2.4332857E-04   2.1882982E+05   -1.7425598E+00
   2.4445228E-04   2.1708021E+05   -1.7419844E+00
   2.4558119E-04   2.1534515E+05   -1.7414090E+00
   2.4671531E-04   2.1362452E+05   -1.7408338E+00
   2.4785467E-04   2.1191821E+05   -1.7402586E+00
   2.4899928E-04   2.1022608E+05   -1.7396836E+00
   2.5014919E-04   2.0854801E+05   -1.7391086E+00
   2.5130440E-04   2.0688389E+05   -1.7385338E+00
   2.5246495E-04   2.0523359E+05   -1.7379591E+00
   2.5363086E-04   2.0359699E+05   -1.7373845E+00
   2.5480216E-04   2.0197398E+05   -1.7368100E+00
   2.5597886E-04   2.0036444E+05   -1.7362357E+00
   2.5716100E-04   1.9876825E+05   -1.7356615E+00
   2.5834859E-04   1.9718530E+05   -1.7350875E+00
   2.5954168E-04   1.9561547E+05   -1.7345137E+00
   2.6074027E-04   1.9405865E+05   -1.7339400E+00
   2.6194439E-04   1.9251473E+05   -1.7333664E+00
   2.6315408E-04   1.9098359E+05   -1.7327931E+00
   2.6436935E-04   1.8946514E+05   -1.7322199E+00
   2.6559024E-04   1.8795926E+05   -1.7316469E+00
   2.6681676E-04   1.8646583E+05   -1.7310741E+00
   2.6804895E-04   1.8498476E+05   -1.7305015E+00
   2.6928683E-04   1.8351594E+05   -1.7299291E+00
   2.7053042E-04   1.8205926E+05   -1.7293570E+00
   2.7177976E-04   1.8061462E+05   -1.7287850E+00
   2.7303487E-04   1.7918192E+05   -1.7282133E+00
   2.7429577E-04   1.7776105E+05   -1.7276418E+00
   2.7556250E-04   1.7635191E+05   -1.7270705E+00
   2.7683507E-04   1.7495440E+05   -1.7264995E+00
   2.7811353E-04   1.7356842E+05   -1.7259287E+00
   2.7939788E-04   1.7219387E+05   -1.7253582E+00
   2.8068817E-04   1.7083066E+05   -1.7247879E+00
   2.8198442E-04   1.6947869E+05   -1.7242179E+00
   2.8328665E-04   1.6813785E+05   -1.7236481E+00
   2.8459490E-04   1.6680807E+05   -1.7230787E+00
   2.8590919E-04   1.6548923E+05   -1.7225095E+00
   2.8722955E-04   1.6418125E+05   -1.7219406E+00
   2.8855600E-04   1.6288404E+05   -1.7213720E+00
   2.8988859E-04   1.6159750E+05   -1.7208037E+00
   2.9122732E-04   1.6032154E+05   -1.7202357E+00
   2.9257224E-04   1.5905607E+05   -1.7196680E+00
   2.9392337E-04   1.5780100E+05   -1.7191007E+00
   2.9528074E-04   1.5655625E+05   -1.7185336E+00
   2.9664438E-04   1.5532172E+05   -1.7179669E+00
   2.9801431E-04   1.5409732E+05   -1.7174005E+00
   2.9939057E-04   1.5288298E+05   -1.7168345E+00
   3.0077319E-04   1.5167860E+05   -1.7162688E+00
   3.0216219E-04   1.5048411E+05   -1.7157035E+00
   3.0355761E-04   1.4929940E+05   -1.7151385E+00
   3.0495947E-04   1.4812442E+05   -1.7145739E+00
   3.0636780E-04   1.4695905E+05   -1.7140096E+00
   3.0778264E-04   1.4580324E+05   -1.7134457E+00
   3.0920401E-04   1.4465689E+05   -1.7128822E+00
   3.1063195E-04   1.4351993E+05   -1.7123191E+00
   3.1206648E-04   1.4239228E+05   -1.7117564E+00
   3.1350764E-04   1.4127385E+05   -1.7111940E+00
   3.1495545E-04   1.4016456E+05   -1.7106321E+00
   3.1640994E-04   1.3906435E+05   -1.7100706E+00
   3.1787116E-04   1.3797313E+05   -1.7095095E+00
   3.1933912E-04   1.3689083E+05   -1.7089488E+00
   3.2081386E-04   1.3581737E+05   -1.7083885E+00
   3.2229541E-04   1.3475267E+05   -1.7078287E+00
   3.2378381E-04   1.3369667E+05   -1.7072693E+00
   3.2527908E-04   1.3264928E+05   -1.7067103E+00
   3.2678125E-04   1.3161044E+05   -1.7061518E+00
   3.2829036E-04   1.3058006E+05   -1.7055937E+00
   3.2980644E-04   1.2955809E+05   -1.7050361E+00
   3.3132952E-04   1.2854445E+05   -1.7044789E+00
   3.3285963E-04   1.2753906E+05   -1.7039223E+00
   3.3439681E-04   1.2654186E+05   -1.7033660E+00
   3.3594109E-04   1.2555278E+05   -1.7028103E+00
   3.3749250E-04   1.2457175E+05   -1.7022551E+00
   3.3905108E-04   1.2359870E+05   -1.7017003E+00
   3.4061685E-04   1.2263357E+05   -1.7011460E+00
   3.4218986E-04   1.2167628E+05   -1.7005922E+00
   3.4377013E-04   1.2072677E+05   -1.7000390E+00
   3.4535769E-04   1.1978498E+05   -1.6994862E+00
   3.4695259E-04   1.1885084E+05   -1.6989340E+00
   3.4855485E-04   1.1792428E+05   -1.6983822E+00
   3.5016452E-04   1.1700524E+05   -1.6978310E+00
   3.5178161E-04   1.1609366E+05   -1.6972804E+00
   3.5340618E-04   1.1518948E+05   -1.6967302E+00
   3.5503824E-04   1.1429262E+05   -1.6961806E+00
   3.5667785E-04   1.1340304E+05   -1.6956315E+00
   3.5832502E-04   1.1252066E+05   -1.6950830E+00
   3.5997981E-04   1.1164543E+05   -1.6945351E+00
   3.6164223E-04   1.1077729E+05   -1.6939877E+00
   3.6331233E-04   1.0991618E+05   -1.6934409E+00
   3.6499015E-04   1.0906203E+05   -1.6928946E+00
   3.6667571E-04   1.0821480E+05   -1.6923489E+00
   3.6836906E-04   1.0737441E+05   -1.6918038E+00
   3.7007022E-04   1.0654082E+05   -1.6912593E+00
   3.7177925E-04   1.0571397E+05   -1.6907153E+00
   3.7349616E-04   1.0489380E+05   -1.6901720E+00
   3.7522101E-04   1.0408025E+05   -1.6896292E+00
   3.7695382E-04   1.0327327E+05   -1.6890871E+00
   3.7869463E-04   1.0247280E+05   -1.6885456E+00
   3.8044348E-04   1.0167878E+05   -1.6880046E+00
   3.8220041E-04   1.0089118E+05   -1.6874643E+00
   3.8396545E-04   1.0010992E+05   -1.6869247E+00
   3.8573864E-04   9.9334959E+04   -1.6863856E+00
   3.8752002E-04   9.8566242E+04   -1.6858472E+00
   3.8930963E-04   9.7803716E+04   -1.6853094E+00
   3.9110750E-04   9.7047329E+04   -1.6847722E+00
   3.9291368E-04   9.6297030E+04   -1.6842357E+00
   3.9472820E-04   9.5552768E+04   -1.6836999E+00
   3.9655109E-04   9.4814492E+04   -1.6831647E+00
   3.9838241E-04   9.4082153E+04   -1.6826301E+00
   4.0022218E-04   9.3355699E+04   -1.6820962E+00
   4.0207045E-04   9.2635083E+04   -1.6815630E+00
   4.0392725E-04   9.1920255E+04   -1.6810305E+00
   4.0579263E-04   9.1211166E+04   -1.6804986E+00
   4.0766662E-04   9.0507769E+04   -1.6799674E+00
   4.0954927E-04   8.9810017E+04   -1.6794369E+00
   4.1144061E-04   8.9117861E+04   -1.6789071E+00
   4.1334068E-04   8.8431255E+04   -1.6783780E+00
   4.1524953E-04   8.7750153E+04   -1.6778496E+00
   4.1716720E-04   8.7074509E+04   -1.6773218E+00
   4.1909372E-04   8.6404277E+04   -1.6767948E+00
   4.2102914E-04   8.5739411E+04   -1.6762685E+00
   4.2297350E-04   8.5079868E+04   -1.6757429E+00
   4.2492683E-04   8.4425603E+04   -1.6752181E+00
   4.2688919E-04   8.3776572E+04   -1.6746939E+00
   4.2886061E-04   8.3132730E+04   -1.6741705E+00
   4.3084113E-04   8.2494036E+04   -1.6736478E+00
   4.3283080E-04   8.1860446E+04   -1.6731258E+00
   4.3482966E-04   8.1231917E+04   -1.6726046E+00
   4.3683775E-04   8.0608407E+04   -1.6720841E+00
   4.3885511E-04   7.9989875E+04   -1.6715644E+00
   4.4088179E-04   7.9376279E+04   -1.6710454E+00
   4.4291783E-04   7.8767578E+04   -1.6705272E+00
   4.4496327E-04   7.8163732E+04   -1.6700097E+00
   4.4701816E-04   7.7564699E+04   -1.6694930E+00
   4.4908253E-04   7.6970440E+04   -1.6689770E+00
   4.5115644E-04   7.6380916E+04   -1.6684619E+00
   4.5323993E-04   7.5796087E+04   -1.6679474E+00
   4.5533304E-04   7.5215914E+04   -1.6674338E+00
   4.5743582E-04   7.4640358E+04   -1.6669210E+00
   4.5954830E-04   7.4069381E+04   -1.6664089E+00
   4.6167054E-04   7.3502946E+04   -1.6658976E+00
   4.6380259E-04   7.2941013E+04   -1.6653871E+00
   4.6594448E-04   7.2383547E+04   -1.6648775E+00
   4.6809626E-04   7.1830510E+04   -1.6643686E+00
   4.7025797E-04   7.1281866E+04   -1.6638605E+00
   4.7242967E-04   7.0737577E+04   -1.6633532E+00
   4.7461140E-04   7.0197608E+04   -1.6628467E+00
   4.7680321E-04   6.9661924E+04   -1.6623410E+00
   4.7900514E-04   6.9130488E+04   -1.6618362E+00
   4.8121723E-04   6.8603266E+04   -1.6613322E+00
   4.8343954E-04   6.8080223E+04   -1.6608290E+00
   4.8567212E-04   6.7561324E+04   -1.6603266E+00
   4.8791500E-04   6.7046536E+04   -1.6598250E+00
   4.9016825E-04   6.6535823E+04   -1.6593243E+00
   4.9243189E-04   6.6029153E+04   -1.6588244E+00
   4.9470600E-04   6.5526492E+04   -1.6583254E+00
   4.9699060E-04   6.5027806E+04   -1.6578272E+00
   4.9928575E-04   6.4533064E+04   -1.6573298E+00
   5.0159151E-04   6.4042233E+04   -1.6568333E+00
   5.0390791E-04   6.3555280E+04   -1.6563376E+00
   5.0623501E-04   6.3072174E+04   -1.6558428E+00
   5.0857286E-04   6.2592883E+04   -1.6553489E+00
   5.1092150E-04   6.2117375E+04   -1.6548558E+00
   5.1328099E-04   6.1645619E+04   -1.6543635E+00
   5.1565137E-04   6.1177585E+04   -1.6538722E+00
   5.1803270E-04   6.0713242E+04   -1.6533817E+00
   5.2042503E-04   6.0252559E+04   -1.6528921E+00
   5.2282841E-04   5.9795506E+04   -1.6524033E+00
   5.2524289E-04   5.9342054E+04   -1.6519154E+00
   5.2766851E-04   5.8892173E+04   -1.6514285E+00
   5.3010534E-04   5.8445833E+04   -1.6509423E+00
   5.3255342E-04   5.8003006E+04   -1.6504571E+00
   5.3501281E-04   5.7563663E+04   -1.6499728E+00
   5.3748356E-04   5.7127775E+04   -1.6494894E+00
   5.3996571E-04   5.6695314E+04   -1.6490068E+00
   5.4245933E-04   5.6266251E+04   -1.6485252E+00
   5.4496446E-04   5.5840560E+04   -1.6480444E+00
   5.4748117E-04   5.5418212E+04   -1.6475645E+00
   5.5000949E-04   5.4999179E+04   -1.6470856E+00
   5.5254949E-04   5.4583436E+04   -1.6466076E+00
   5.5510123E-04   5.4170954E+04   -1.6461304E+00
   5.5766474E-04   5.3761707E+04   -1.6456542E+00
   5.6024010E-04   5.3355669E+04   -1.6451789E+00
   5.6282734E-04   5.2952814E+04   -1.6447045E+00
   5.6542654E-04   5.2553115E+04   -1.6442310E+00
   5.6803774E-04   5.2156547E+04   -1.6437585E+00
   5.7066099E-04   5.1763084E+04   -1.6432869E+00
   5.7329637E-04   5.1372700E+04   -1.6428162E+00
   5.7594391E-04   5.0985371E+04   -1.6423464E+00
   5.7860368E-04   5.0601072E+04   -1.6418776E+00
   5.8127573E-04   5.0219778E+04   -1.6414096E+00
   5.8396012E-04   4.9841465E+04   -1.6409427E+00
   5.8665691E-04   4.9466107E+04   -1.6404766E+00
   5.8936616E-04   4.9093682E+04   -1.6400115E+00
   5.9208791E-04   4.8724165E+04   -1.6395474E+00
   5.9482223E-04   4.8357533E+04   -1.6390842E+00
   5.9756919E-04   4.7993762E+04   -1.6386219E+00
   6.0032882E-04   4.7632828E+04   -1.6381606E+00
   6.0310120E-04   4.7274710E+04   -1.6377002E+00
   6.0588639E-04   4.6919383E+04   -1.6372408E+00
   6.0868443E-04   4.6566825E+04   -1.6367823E+00
   6.1149540E-04   4.6217014E+04   -1.6363248E+00
   6.1431935E-04   4.5869928E+04   -1.6358682E+00
   6.1715634E-04   4.5525543E+04   -1.6354126E+00
   6.2000644E-04   4.5183840E+04   -1.6349580E+00
   6.2286969E-04   4.4844794E+04   -1.6345043E+00
