#        a       HoverH0(a)       dlogHdloga_of_a(a)
   1.0000000E-04   1.0903319E+06   -1.8463121E+00
   1.0046181E-04   1.0810972E+06   -1.8458212E+00
   1.0092575E-04   1.0719431E+06   -1.8453294E+00
   1.0139184E-04   1.0628690E+06   -1.8448367E+00
   1.0186008E-04   1.0538741E+06   -1.8443432E+00
   1.0233048E-04   1.0449576E+06   -1.8438489E+00
   1.0280305E-04   1.0361190E+06   -1.8433537E+00
   1.0327781E-04   1.0273575E+06   -1.8428576E+00
   1.0375475E-04   1.0186723E+06   -1.8423607E+00
   1.0423390E-04   1.0100630E+06   -1.8418629E+00
   1.0471527E-04   1.0015287E+06   -1.8413643E+00
   1.0519885E-04   9.9306873E+05   -1.8408649E+00
   1.0568467E-04   9.8468253E+05   -1.8403646E+00
   1.0617274E-04   9.7636941E+05   -1.8398635E+00
   1.0666305E-04   9.6812871E+05   -1.8393615E+00
   1.0715563E-04   9.5995978E+05   -1.8388588E+00
   1.0765049E-04   9.5186199E+05   -1.8383552E+00
   1.0814763E-04   9.4383470E+05   -1.8378507E+00
   1.0864707E-04   9.3587729E+05   -1.8373455E+00
   1.0914881E-04   9.2798912E+05   -1.8368394E+00
   1.0965287E-04   9.2016959E+05   -1.8363326E+00
   1.1015926E-04   9.1241808E+05   -1.8358249E+00
   1.1066799E-04   9.0473398E+05   -1.8353164E+00
   1.1117906E-04   8.9711670E+05   -1.8348072E+00
   1.1169250E-04   8.8956564E+05   -1.8342971E+00
   1.1220831E-04   8.8208022E+05   -1.8337862E+00
   1.1272650E-04   8.7465984E+05   -1.8332746E+00
   1.1324708E-04   8.6730393E+05   -1.8327621E+00
   1.1377007E-04   8.6001192E+05   -1.8322489E+00
   1.1429547E-04   8.5278324E+05   -1.8317349E+00
   1.1482330E-04   8.4561732E+05   -1.8312201E+00
   1.1535356E-04   8.3851360E+05   -1.8307046E+00
   1.1588628E-04   8.3147154E+05   -1.8301883E+00
   1.1642145E-04   8.2449058E+05   -1.8296712E+00
   1.1695910E-04   8.1757018E+05   -1.8291534E+00
   1.1749923E-04   8.1070980E+05   -1.8286348E+00
   1.1804185E-04   8.0390892E+05   -1.8281154E+00
   1.1858698E-04   7.9716699E+05   -1.8275953E+00
   1.1913463E-04   7.9048350E+05   -1.8270745E+00
   1.1968481E-04   7.8385792E+05   -1.8265529E+00
   1.2023752E-04   7.7728975E+05   -1.8260306E+00
   1.2079279E-04   7.7077847E+05   -1.8255075E+00
   1.2135063E-04   7.6432358E+05   -1.8249838E+00
   1.2191104E-04   7.5792458E+05   -1.8244593E+00
   1.2247403E-04   7.5158096E+05   -1.8239340E+00
   1.2303963E-04   7.4529225E+05   -1.8234081E+00
   1.2360784E-04   7.3905795E+05   -1.8228815E+00
   1.2417868E-04   7.3287757E+05   -1.8223541E+00
   1.2475215E-04   7.2675065E+05   -1.8218260E+00
   1.2532826E-04   7.2067670E+05   -1.8212973E+00
   1.2590704E-04   7.1465526E+05   -1.8207678E+00
   1.2648850E-04   7.0868586E+05   -1.8202377E+00
   1.2707263E-04   7.0276804E+05   -1.8197068E+00
   1.2765947E-04   6.9690134E+05   -1.8191753E+00
   1.2824901E-04   6.9108531E+05   -1.8186431E+00
   1.2884128E-04   6.8531950E+05   -1.8181102E+00
   1.2943628E-04   6.7960346E+05   -1.8175767E+00
   1.3003403E-04   6.7393676E+05   -1.8170425E+00
   1.3063454E-04   6.6831896E+05   -1.8165076E+00
   1.3123783E-04   6.6274961E+05   -1.8159721E+00
   1.3184390E-04   6.5722830E+05   -1.8154359E+00
   1.3245277E-04   6.5175460E+05   -1.8148991E+00
   1.3306445E-04   6.4632809E+05   -1.8143617E+00
   1.3367895E-04   6.4094834E+05   -1.8138236E+00
   1.3429630E-04   6.3561495E+05   -1.8132848E+00
   1.3491649E-04   6.3032751E+05   -1.8127455E+00
   1.3553955E-04   6.2508560E+05   -1.8122055E+00
   1.3616548E-04   6.1988883E+05   -1.8116649E+00
   1.3679431E-04   6.1473680E+05   -1.8111237E+00
   1.3742604E-04   6.0962911E+05   -1.8105818E+00
   1.3806069E-04   6.0456537E+05   -1.8100394E+00
   1.3869827E-04   5.9954518E+05   -1.8094963E+00
   1.3933879E-04   5.9456817E+05   -1.8089527E+00
   1.3998227E-04   5.8963396E+05   -1.8084085E+00
   1.4062872E-04   5.8474216E+05   -1.8078637E+00
   1.4127816E-04   5.7989240E+05   -1.8073183E+00
   1.4193060E-04   5.7508431E+05   -1.8067723E+00
   1.4258605E-04   5.7031752E+05   -1.8062258E+00
   1.4324453E-04   5.6559166E+05   -1.8056787E+00
   1.4390605E-04   5.6090638E+05   -1.8051310E+00
   1.4457062E-04   5.5626132E+05   -1.8045828E+00
   1.4523826E-04   5.5165612E+05   -1.8040340E+00
   1.4590899E-04   5.4709043E+05   -1.8034847E+00
   1.4658281E-04   5.4256390E+05   -1.8029348E+00
   1.4725974E-04   5.3807619E+05   -1.8023844E+00
   1.4793981E-04   5.3362695E+05   -1.8018335E+00
   1.4862301E-04   5.2921584E+05   -1.8012820E+00
   1.4930936E-04   5.2484253E+05   -1.8007300E+00
   1.4999889E-04   5.2050669E+05   -1.8001775E+00
   1.5069160E-04   5.1620797E+05   -1.7996245E+00
   1.5138751E-04   5.1194607E+05   -1.7990710E+00
   1.5208663E-04   5.0772065E+05   -1.7985170E+00
   1.5278899E-04   5.0353138E+05   -1.7979624E+00
   1.5349458E-04   4.9937797E+05   -1.7974074E+00
   1.5420343E-04   4.9526008E+05   -1.7968520E+00
   1.5491556E-04   4.9117740E+05   -1.7962960E+00
   1.5563098E-04   4.8712963E+05   -1.7957395E+00
   1.5634970E-04   4.8311645E+05   -1.7951826E+00
   1.5707174E-04   4.7913757E+05   -1.7946252E+00
   1.5779711E-04   4.7519267E+05   -1.7940674E+00
   1.5852584E-04   4.7128147E+05   -1.7935091E+00
   1.5925792E-04   4.6740366E+05   -1.7929504E+00
   1.5999339E-04   4.6355895E+05   -1.7923912E+00
   1.6073226E-04   4.5974706E+05   -1.7918316E+00
   1.6147454E-04   4.5596768E+05   -1.7912715E+00
   1.6222024E-04   4.5222054E+05   -1.7907110E+00
   1.6296939E-04   4.4850536E+05   -1.7901501E+00
   1.6372200E-04   4.4482184E+05   -1.7895888E+00
   1.6447809E-04   4.4116972E+05   -1.7890271E+00
   1.6523767E-04   4.3754872E+05   -1.7884650E+00
   1.6600075E-04   4.3395856E+05   -1.7879024E+00
   1.6676736E-04   4.3039898E+05   -1.7873395E+00
   1.6753751E-04   4.2686970E+05   -1.7867762E+00
   1.6831122E-04   4.2337046E+05   -1.7862125E+00
   1.6908849E-04   4.1990099E+05   -1.7856485E+00
   1.6986936E-04   4.1646104E+05   -1.7850840E+00
   1.7065384E-04   4.1305035E+05   -1.7845192E+00
   1.7144193E-04   4.0966865E+05   -1.7839541E+00
   1.7223367E-04   4.0631570E+05   -1.7833885E+00
   1.7302906E-04   4.0299125E+05   -1.7828227E+00
   1.7382813E-04   3.9969503E+05   -1.7822565E+00
   1.7463089E-04   3.9642681E+05   -1.7816899E+00
   1.7543735E-04   3.9318635E+05   -1.7811231E+00
   1.7624754E-04   3.8997338E+05   -1.7805558E+00
   1.7706147E-04   3.8678769E+05   -1.7799883E+00
   1.7787916E-04   3.8362902E+05   -1.7794205E+00
   1.7870062E-04   3.8049714E+05   -1.7788524E+00
   1.7952588E-04   3.7739182E+05   -1.7782839E+00
   1.8035495E-04   3.7431282E+05   -1.7777152E+00
   1.8118785E-04   3.7125992E+05   -1.7771461E+00
   1.8202459E-04   3.6823288E+05   -1.7765768E+00
   1.8286520E-04   3.6523148E+05   -1.7760072E+00
   1.8370969E-04   3.6225549E+05   -1.7754373E+00
   1.8455808E-04   3.5930470E+05   -1.7748672E+00
   1.8541039E-04   3.5637888E+05   -1.7742968E+00
   1.8626663E-04   3.5347782E+05   -1.7737262E+00
   1.8712683E-04   3.5060129E+05   -1.7731552E+00
   1.8799100E-04   3.4774909E+05   -1.7725841E+00
   1.8885917E-04   3.4492099E+05   -1.7720127E+00
   1.8973134E-04   3.4211680E+05   -1.7714411E+00
   1.9060754E-04   3.3933630E+05   -1.7708692E+00
   1.9148778E-04   3.3657928E+05   -1.7702972E+00
   1.9237209E-04   3.3384555E+05   -1.7697249E+00
   1.9326049E-04   3.3113489E+05   -1.7691524E+00
   1.9415299E-04   3.2844710E+05   -1.7685797E+00
   1.9504960E-04   3.2578200E+05   -1.7680068E+00
   1.9595036E-04   3.2313937E+05   -1.7674338E+00
   1.9685528E-04   3.2051902E+05   -1.7668605E+00
   1.9776438E-04   3.1792077E+05   -1.7662871E+00
   1.9867768E-04   3.1534440E+05   -1.7657134E+00
   1.9959519E-04   3.1278975E+05   -1.7651397E+00
   2.0051694E-04   3.1025661E+05   -1.7645657E+00
   2.0144295E-04   3.0774479E+05   -1.7639916E+00
   2.0237324E-04   3.0525412E+05   -1.7634174E+00
   2.0330782E-04   3.0278441E+05   -1.7628430E+00
   2.0424671E-04   3.0033548E+05   -1.7622685E+00
   2.0518995E-04   2.9790714E+05   -1.7616938E+00
   2.0613754E-04   2.9549922E+05   -1.7611191E+00
   2.0708950E-04   2.9311154E+05   -1.7605442E+00
   2.0804586E-04   2.9074392E+05   -1.7599692E+00
   2.0900664E-04   2.8839619E+05   -1.7593941E+00
   2.0997185E-04   2.8606818E+05   -1.7588188E+00
   2.1094152E-04   2.8375971E+05   -1.7582435E+00
   2.1191567E-04   2.8147061E+05   -1.7576681E+00
   2.1289432E-04   2.7920072E+05   -1.7570927E+00
   2.1387749E-04   2.7694987E+05   -1.7565171E+00
   2.1486520E-04   2.7471790E+05   -1.7559415E+00
   2.1585747E-04   2.7250463E+05   -1.7553658E+00
   2.1685432E-04   2.7030991E+05   -1.7547901E+00
   2.1785578E-04   2.6813359E+05   -1.7542143E+00
   2.1886186E-04   2.6597548E+05   -1.7536385E+00
   2.1987259E-04   2.6383545E+05   -1.7530626E+00
   2.2088798E-04   2.6171333E+05   -1.7524867E+00
   2.2190807E-04   2.5960897E+05   -1.7519107E+00
   2.2293286E-04   2.5752222E+05   -1.7513348E+00
   2.2396239E-04   2.5545291E+05   -1.7507588E+00
   2.2499667E-04   2.5340091E+05   -1.7501828E+00
   2.2603573E-04   2.5136605E+05   -1.7496069E+00
   2.2707958E-04   2.4934820E+05   -1.7490309E+00
   2.2812826E-04   2.4734720E+05   -1.7484549E+00
   2.2918178E-04   2.4536291E+05   -1.7478790E+00
   2.3024017E-04   2.4339519E+05   -1.7473030E+00
   2.3130344E-04   2.4144388E+05   -1.7467271E+00
   2.3237162E-04   2.3950886E+05   -1.7461513E+00
   2.3344474E-04   2.3758997E+05   -1.7455755E+00
   2.3452281E-04   2.3568709E+05   -1.7449997E+00
   2.3560586E-04   2.3380006E+05   -1.7444240E+00
   2.3669392E-04   2.3192876E+05   -1.7438483E+00
   2.3778699E-04   2.3007304E+05   -1.7432727E+00
   2.3888512E-04   2.2823278E+05   -1.7426972E+00
   2.3998831E-04   2.2640784E+05   -1.7421217E+00
   2.4109661E-04   2.2459809E+05   -1.7415463E+00
   2.4221001E-04   2.2280339E+05   -1.7409711E+00
   2.4332857E-04   2.2102362E+05   -1.7403959E+00
   2.4445228E-04   2.1925864E+05   -1.7398208E+00
   2.4558119E-04   2.1750834E+05   -1.7392458E+00
   2.4671531E-04   2.1577258E+05   -1.7386709E+00
   2.4785467E-04   2.1405124E+05   -1.7380962E+00
   2.4899928E-04   2.1234420E+05   -1.7375216E+00
   2.5014919E-04   2.1065132E+05   -1.7369471E+00
   2.5130440E-04   2.0897250E+05   -1.7363728E+00
   2.5246495E-04   2.0730760E+05   -1.7357985E+00
   2.5363086E-04   2.0565651E+05   -1.7352245E+00
   2.5480216E-04   2.0401911E+05   -1.7346506E+00
   2.5597886E-04   2.0239529E+05   -1.7340769E+00
   2.5716100E-04   2.0078491E+05   -1.7335033E+00
   2.5834859E-04   1.9918788E+05   -1.7329299E+00
   2.5954168E-04   1.9760407E+05   -1.7323567E+00
   2.6074027E-04   1.9603338E+05   -1.7317837E+00
   2.6194439E-04   1.9447568E+05   -1.7312108E+00
   2.6315408E-04   1.9293086E+05   -1.7306382E+00
   2.6436935E-04   1.9139883E+05   -1.7300657E+00
   2.6559024E-04   1.8987946E+05   -1.7294935E+00
   2.6681676E-04   1.8837265E+05   -1.7289215E+00
   2.6804895E-04   1.8687829E+05   -1.7283497E+00
   2.6928683E-04   1.8539627E+05   -1.7277782E+00
   2.7053042E-04   1.8392649E+05   -1.7272068E+00
   2.7177976E-04   1.8246884E+05   -1.7266358E+00
   2.7303487E-04   1.8102321E+05   -1.7260649E+00
   2.7429577E-04   1.7958952E+05   -1.7254943E+00
   2.7556250E-04   1.7816765E+05   -1.7249240E+00
   2.7683507E-04   1.7675750E+05   -1.7243539E+00
   2.7811353E-04   1.7535897E+05   -1.7237841E+00
   2.7939788E-04   1.7397196E+05   -1.7232146E+00
   2.8068817E-04   1.7259637E+05   -1.7226454E+00
   2.8198442E-04   1.7123212E+05   -1.7220764E+00
   2.8328665E-04   1.6987909E+05   -1.7215077E+00
   2.8459490E-04   1.6853719E+05   -1.7209394E+00
   2.8590919E-04   1.6720633E+05   -1.7203713E+00
   2.8722955E-04   1.6588642E+05   -1.7198036E+00
   2.8855600E-04   1.6457735E+05   -1.7192361E+00
   2.8988859E-04   1.6327904E+05   -1.7186690E+00
   2.9122732E-04   1.6199140E+05   -1.7181022E+00
   2.9257224E-04   1.6071433E+05   -1.7175358E+00
   2.9392337E-04   1.5944774E+05   -1.7169696E+00
   2.9528074E-04   1.5819155E+05   -1.7164039E+00
   2.9664438E-04   1.5694566E+05   -1.7158384E+00
   2.9801431E-04   1.5570999E+05   -1.7152734E+00
   2.9939057E-04   1.5448446E+05   -1.7147087E+00
   3.0077319E-04   1.5326896E+05   -1.7141443E+00
   3.0216219E-04   1.5206343E+05   -1.7135803E+00
   3.0355761E-04   1.5086777E+05   -1.7130168E+00
   3.0495947E-04   1.4968190E+05   -1.7124535E+00
   3.0636780E-04   1.4850574E+05   -1.7118907E+00
   3.0778264E-04   1.4733920E+05   -1.7113283E+00
   3.0920401E-04   1.4618220E+05   -1.7107663E+00
   3.1063195E-04   1.4503466E+05   -1.7102047E+00
   3.1206648E-04   1.4389651E+05   -1.7096435E+00
   3.1350764E-04   1.4276765E+05   -1.7090827E+00
   3.1495545E-04   1.4164802E+05   -1.7085223E+00
   3.1640994E-04   1.4053753E+05   -1.7079624E+00
   3.1787116E-04   1.3943610E+05   -1.7074028E+00
   3.1933912E-04   1.3834367E+05   -1.7068438E+00
   3.2081386E-04   1.3726014E+05   -1.7062852E+00
   3.2229541E-04   1.3618545E+05   -1.7057270E+00
   3.2378381E-04   1.3511953E+05   -1.7051693E+00
   3.2527908E-04   1.3406229E+05   -1.7046120E+00
   3.2678125E-04   1.3301367E+05   -1.7040552E+00
   3.2829036E-04   1.3197358E+05   -1.7034989E+00
   3.2980644E-04   1.3094197E+05   -1.7029430E+00
   3.3132952E-04   1.2991875E+05   -1.7023877E+00
   3.3285963E-04   1.2890385E+05   -1.7018328E+00
   3.3439681E-04   1.2789721E+05   -1.7012784E+00
   3.3594109E-04   1.2689876E+05   -1.7007245E+00
   3.3749250E-04   1.2590842E+05   -1.7001711E+00
   3.3905108E-04   1.2492613E+05   -1.6996182E+00
   3.4061685E-04   1.2395182E+05   -1.6990659E+00
   3.4218986E-04   1.2298542E+05   -1.6985140E+00
   3.4377013E-04   1.2202687E+05   -1.6979627E+00
   3.4535769E-04   1.2107609E+05   -1.6974119E+00
   3.4695259E-04   1.2013303E+05   -1.6968616E+00
   3.4855485E-04   1.1919761E+05   -1.6963119E+00
   3.5016452E-04   1.1826978E+05   -1.6957627E+00
   3.5178161E-04   1.1734946E+05   -1.6952141E+00
   3.5340618E-04   1.1643660E+05   -1.6946660E+00
   3.5503824E-04   1.1553114E+05   -1.6941185E+00
   3.5667785E-04   1.1463300E+05   -1.6935715E+00
   3.5832502E-04   1.1374213E+05   -1.6930251E+00
   3.5997981E-04   1.1285847E+05   -1.6924793E+00
   3.6164223E-04   1.1198196E+05   -1.6919340E+00
   3.6331233E-04   1.1111253E+05   -1.6913894E+00
   3.6499015E-04   1.1025013E+05   -1.6908453E+00
   3.6667571E-04   1.0939470E+05   -1.6903018E+00
   3.6836906E-04   1.0854618E+05   -1.6897589E+00
   3.7007022E-04   1.0770450E+05   -1.6892166E+00
   3.7177925E-04   1.0686962E+05   -1.6886750E+00
   3.7349616E-04   1.0604148E+05   -1.6881339E+00
   3.7522101E-04   1.0522002E+05   -1.6875934E+00
   3.7695382E-04   1.0440518E+05   -1.6870536E+00
   3.7869463E-04   1.0359690E+05   -1.6865144E+00
   3.8044348E-04   1.0279514E+05   -1.6859758E+00
   3.8220041E-04   1.0199984E+05   -1.6854379E+00
   3.8396545E-04   1.0121094E+05   -1.6849006E+00
   3.8573864E-04   1.0042840E+05   -1.6843639E+00
   3.8752002E-04   9.9652145E+04   -1.6838279E+00
   3.8930963E-04   9.8882138E+04   -1.6832926E+00
   3.9110750E-04   9.8118322E+04   -1.6827579E+00
   3.9291368E-04   9.7360647E+04   -1.6822238E+00
   3.9472820E-04   9.6609059E+04   -1.6816905E+00
   3.9655109E-04   9.5863509E+04   -1.6811578E+00
   3.9838241E-04   9.5123946E+04   -1.6806257E+00
   4.0022218E-04   9.4390319E+04   -1.6800944E+00
   4.0207045E-04   9.3662580E+04   -1.6795637E+00
   4.0392725E-04   9.2940678E+04   -1.6790338E+00
   4.0579263E-04   9.2224566E+04   -1.6785045E+00
   4.0766662E-04   9.1514195E+04   -1.6779759E+00
   4.0954927E-04   9.0809516E+04   -1.6774480E+00
   4.1144061E-04   9.0110482E+04   -1.6769208E+00
   4.1334068E-04   8.9417047E+04   -1.6763943E+00
   4.1524953E-04   8.8729162E+04   -1.6758686E+00
   4.1716720E-04   8.8046783E+04   -1.6753435E+00
   4.1909372E-04   8.7369863E+04   -1.6748192E+00
   4.2102914E-04   8.6698356E+04   -1.6742956E+00
   4.2297350E-04   8.6032218E+04   -1.6737728E+00
   4.2492683E-04   8.5371404E+04   -1.6732506E+00
   4.2688919E-04   8.4715869E+04   -1.6727292E+00
   4.2886061E-04   8.4065569E+04   -1.6722086E+00
   4.3084113E-04   8.3420462E+04   -1.6716887E+00
   4.3283080E-04   8.2780503E+04   -1.6711695E+00
   4.3482966E-04   8.2145649E+04   -1.6706511E+00
   4.3683775E-04   8.1515859E+04   -1.6701334E+00
   4.3885511E-04   8.0891091E+04   -1.6696165E+00
   4.4088179E-04   8.0271301E+04   -1.6691004E+00
   4.4291783E-04   7.9656450E+04   -1.6685851E+00
   4.4496327E-04   7.9046496E+04   -1.6680705E+00
   4.4701816E-04   7.8441399E+04   -1.6675567E+00
   4.4908253E-04   7.7841117E+04   -1.6670436E+00
   4.5115644E-04   7.7245612E+04   -1.6665314E+00
   4.5323993E-04   7.6654843E+04   -1.6660199E+00
   4.5533304E-04   7.6068772E+04   -1.6655093E+00
   4.5743582E-04   7.5487359E+04   -1.6649994E+00
   4.5954830E-04   7.4910565E+04   -1.6644903E+00
   4.6167054E-04   7.4338353E+04   -1.6639820E+00
   4.6380259E-04   7.3770685E+04   -1.6634746E+00
   4.6594448E-04   7.3207523E+04   -1.6629679E+00
   4.6809626E-04   7.2648829E+04   -1.6624620E+00
   4.7025797E-04   7.2094567E+04   -1.6619570E+00
   4.7242967E-04   7.1544699E+04   -1.6614528E+00
   4.7461140E-04   7.0999191E+04   -1.6609494E+00
   4.7680321E-04   7.0458005E+04   -1.6604468E+00
   4.7900514E-04   6.9921106E+04   -1.6599450E+00
   4.8121723E-04   6.9388458E+04   -1.6594441E+00
   4.8343954E-04   6.8860027E+04   -1.6589440E+00
   4.8567212E-04   6.8335778E+04   -1.6584448E+00
   4.8791500E-04   6.7815676E+04   -1.6579464E+00
   4.9016825E-04   6.7299686E+04   -1.6574488E+00
   4.9243189E-04   6.6787776E+04   -1.6569521E+00
   4.9470600E-04   6.6279911E+04   -1.6564563E+00
   4.9699060E-04   6.5776058E+04   -1.6559613E+00
   4.9928575E-04   6.5276184E+04   -1.6554671E+00
   5.0159151E-04   6.4780256E+04   -1.6549738E+00
   5.0390791E-04   6.4288242E+04   -1.6544814E+00
   5.0623501E-04   6.3800109E+04   -1.6539898E+00
   5.0857286E-04   6.3315826E+04   -1.6534991E+00
   5.1092150E-04   6.2835361E+04   -1.6530093E+00
   5.1328099E-04   6.2358683E+04   -1.6525203E+00
   5.1565137E-04   6.1885760E+04   -1.6520323E+00
   5.1803270E-04   6.1416562E+04   -1.6515451E+00
   5.2042503E-04   6.0951057E+04   -1.6510588E+00
   5.2282841E-04   6.0489217E+04   -1.6505733E+00
   5.2524289E-04   6.0031010E+04   -1.6500888E+00
   5.2766851E-04   5.9576406E+04   -1.6496051E+00
   5.3010534E-04   5.9125377E+04   -1.6491224E+00
   5.3255342E-04   5.8677893E+04   -1.6486405E+00
   5.3501281E-04   5.8233925E+04   -1.6481596E+00
   5.3748356E-04   5.7793444E+04   -1.6476795E+00
   5.3996571E-04   5.7356421E+04   -1.6472003E+00
   5.4245933E-04   5.6922829E+04   -1.6467221E+00
   5.4496446E-04   5.6492639E+04   -1.6462447E+00
   5.4748117E-04   5.6065823E+04   -1.6457683E+00
   5.5000949E-04   5.5642354E+04   -1.6452928E+00
   5.5254949E-04   5.5222205E+04   -1.6448182E+00
   5.5510123E-04   5.4805347E+04   -1.6443445E+00
   5.5766474E-04   5.4391755E+04   -1.6438717E+00
   5.6024010E-04   5.3981402E+04   -1.6433999E+00
   5.6282734E-04   5.3574260E+04   -1.6429290E+00
   5.6542654E-04   5.3170305E+04   -1.6424590E+00
   5.6803774E-04   5.2769510E+04   -1.6419899E+00
   5.7066099E-04   5.2371849E+04   -1.6415218E+00
   5.7329637E-04   5.1977296E+04   -1.6410546E+00
   5.7594391E-04   5.1585827E+04   -1.6405883E+00
   5.7860368E-04   5.1197417E+04   -1.6401230E+00
   5.8127573E-04   5.0812040E+04   -1.6396586E+00
   5.8396012E-04   5.0429671E+04   -1.6391952E+00
   5.8665691E-04   5.0050286E+04   -1.6387327E+00
   5.8936616E-04   4.9673862E+04   -1.6382712E+00
   5.9208791E-04   4.9300373E+04   -1.6378106E+00
   5.9482223E-04   4.8929796E+04   -1.6373509E+00
   5.9756919E-04   4.8562107E+04   -1.6368922E+00
   6.0032882E-04   4.8197283E+04   -1.6364345E+00
   6.0310120E-04   4.7835301E+04   -1.6359777E+00
   6.0588639E-04   4.7476137E+04   -1.6355219E+00
   6.0868443E-04   4.7119769E+04   -1.6350670E+00
   6.1149540E-04   4.6766173E+04   -1.6346131E+00
   6.1431935E-04   4.6415328E+04   -1.6341602E+00
   6.1715634E-04   4.6067211E+04   -1.6337082E+00
   6.2000644E-04   4.5721800E+04   -1.6332572E+00
   6.2286969E-04   4.5379074E+04   -1.6328071E+00
