#        a       HoverH0(a)       dlogHdloga_of_a(a)
   1.0000000E-04   1.0569299E+06   -1.8855762E+00
   1.0046181E-04   1.0477884E+06   -1.8851692E+00
   1.0092575E-04   1.0387278E+06   -1.8847611E+00
   1.0139184E-04   1.0297475E+06   -1.8843520E+00
   1.0186008E-04   1.0208468E+06   -1.8839418E+00
   1.0233048E-04   1.0120249E+06   -1.8835307E+00
   1.0280305E-04   1.0032812E+06   -1.8831186E+00
   1.0327781E-04   9.9461494E+05   -1.8827054E+00
   1.0375475E-04   9.8602539E+05   -1.8822912E+00
   1.0423390E-04   9.7751188E+05   -1.8818760E+00
   1.0471527E-04   9.6907374E+05   -1.8814598E+00
   1.0519885E-04   9.6071029E+05   -1.8810426E+00
   1.0568467E-04   9.5242085E+05   -1.8806244E+00
   1.0617274E-04   9.4420475E+05   -1.8802052E+00
   1.0666305E-04   9.3606134E+05   -1.8797850E+00
   1.0715563E-04   9.2798997E+05   -1.8793637E+00
   1.0765049E-04   9.1998998E+05   -1.8789415E+00
   1.0814763E-04   9.1206073E+05   -1.8785182E+00
   1.0864707E-04   9.0420159E+05   -1.8780940E+00
   1.0914881E-04   8.9641192E+05   -1.8776687E+00
   1.0965287E-04   8.8869111E+05   -1.8772425E+00
   1.1015926E-04   8.8103852E+05   -1.8768152E+00
   1.1066799E-04   8.7345356E+05   -1.8763870E+00
   1.1117906E-04   8.6593560E+05   -1.8759577E+00
   1.1169250E-04   8.5848406E+05   -1.8755275E+00
   1.1220831E-04   8.5109832E+05   -1.8750962E+00
   1.1272650E-04   8.4377780E+05   -1.8746640E+00
   1.1324708E-04   8.3652192E+05   -1.8742308E+00
   1.1377007E-04   8.2933009E+05   -1.8737965E+00
   1.1429547E-04   8.2220174E+05   -1.8733613E+00
   1.1482330E-04   8.1513630E+05   -1.8729251E+00
   1.1535356E-04   8.0813319E+05   -1.8724879E+00
   1.1588628E-04   8.0119187E+05   -1.8720497E+00
   1.1642145E-04   7.9431178E+05   -1.8716105E+00
   1.1695910E-04   7.8749236E+05   -1.8711703E+00
   1.1749923E-04   7.8073307E+05   -1.8707292E+00
   1.1804185E-04   7.7403338E+05   -1.8702871E+00
   1.1858698E-04   7.6739274E+05   -1.8698440E+00
   1.1913463E-04   7.6081063E+05   -1.8693999E+00
   1.1968481E-04   7.5428652E+05   -1.8689548E+00
   1.2023752E-04   7.4781989E+05   -1.8685087E+00
   1.2079279E-04   7.4141023E+05   -1.8680617E+00
   1.2135063E-04   7.3505702E+05   -1.8676137E+00
   1.2191104E-04   7.2875976E+05   -1.8671648E+00
   1.2247403E-04   7.2251794E+05   -1.8667148E+00
   1.2303963E-04   7.1633107E+05   -1.8662639E+00
   1.2360784E-04   7.1019866E+05   -1.8658120E+00
   1.2417868E-04   7.0412021E+05   -1.8653592E+00
   1.2475215E-04   6.9809524E+05   -1.8649054E+00
   1.2532826E-04   6.9212328E+05   -1.8644506E+00
   1.2590704E-04   6.8620384E+05   -1.8639949E+00
   1.2648850E-04   6.8033646E+05   -1.8635382E+00
   1.2707263E-04   6.7452067E+05   -1.8630805E+00
   1.2765947E-04   6.6875601E+05   -1.8626219E+00
   1.2824901E-04   6.6304202E+05   -1.8621624E+00
   1.2884128E-04   6.5737824E+05   -1.8617019E+00
   1.2943628E-04   6.5176423E+05   -1.8612404E+00
   1.3003403E-04   6.4619953E+05   -1.8607780E+00
   1.3063454E-04   6.4068371E+05   -1.8603147E+00
   1.3123783E-04   6.3521634E+05   -1.8598504E+00
   1.3184390E-04   6.2979696E+05   -1.8593852E+00
   1.3245277E-04   6.2442517E+05   -1.8589190E+00
   1.3306445E-04   6.1910052E+05   -1.8584519E+00
   1.3367895E-04   6.1382260E+05   -1.8579839E+00
   1.3429630E-04   6.0859098E+05   -1.8575149E+00
   1.3491649E-04   6.0340526E+05   -1.8570450E+00
   1.3553955E-04   5.9826503E+05   -1.8565742E+00
   1.3616548E-04   5.9316987E+05   -1.8561024E+00
   1.3679431E-04   5.8811939E+05   -1.8556297E+00
   1.3742604E-04   5.8311317E+05   -1.8551561E+00
   1.3806069E-04   5.7815084E+05   -1.8546816E+00
   1.3869827E-04   5.7323199E+05   -1.8542062E+00
   1.3933879E-04   5.6835623E+05   -1.8537298E+00
   1.3998227E-04   5.6352319E+05   -1.8532526E+00
   1.4062872E-04   5.5873247E+05   -1.8527744E+00
   1.4127816E-04   5.5398370E+05   -1.8522953E+00
   1.4193060E-04   5.4927650E+05   -1.8518153E+00
   1.4258605E-04   5.4461051E+05   -1.8513344E+00
   1.4324453E-04   5.3998535E+05   -1.8508527E+00
   1.4390605E-04   5.3540066E+05   -1.8503700E+00
   1.4457062E-04   5.3085608E+05   -1.8498864E+00
   1.4523826E-04   5.2635125E+05   -1.8494019E+00
   1.4590899E-04   5.2188581E+05   -1.8489166E+00
   1.4658281E-04   5.1745942E+05   -1.8484303E+00
   1.4725974E-04   5.1307171E+05   -1.8479432E+00
   1.4793981E-04   5.0872236E+05   -1.8474552E+00
   1.4862301E-04   5.0441101E+05   -1.8469663E+00
   1.4930936E-04   5.0013732E+05   -1.8464766E+00
   1.4999889E-04   4.9590097E+05   -1.8459859E+00
   1.5069160E-04   4.9170161E+05   -1.8454945E+00
   1.5138751E-04   4.8753891E+05   -1.8450021E+00
   1.5208663E-04   4.8341255E+05   -1.8445089E+00
   1.5278899E-04   4.7932221E+05   -1.8440148E+00
   1.5349458E-04   4.7526757E+05   -1.8435198E+00
   1.5420343E-04   4.7124829E+05   -1.8430240E+00
   1.5491556E-04   4.6726408E+05   -1.8425274E+00
   1.5563098E-04   4.6331461E+05   -1.8420299E+00
   1.5634970E-04   4.5939958E+05   -1.8415316E+00
   1.5707174E-04   4.5551867E+05   -1.8410324E+00
   1.5779711E-04   4.5167159E+05   -1.8405324E+00
   1.5852584E-04   4.4785804E+05   -1.8400315E+00
   1.5925792E-04   4.4407771E+05   -1.8395298E+00
   1.5999339E-04   4.4033030E+05   -1.8390273E+00
   1.6073226E-04   4.3661553E+05   -1.8385240E+00
   1.6147454E-04   4.3293311E+05   -1.8380198E+00
   1.6222024E-04   4.2928274E+05   -1.8375148E+00
   1.6296939E-04   4.2566414E+05   -1.8370090E+00
   1.6372200E-04   4.2207703E+05   -1.8365024E+00
   1.6447809E-04   4.1852112E+05   -1.8359950E+00
   1.6523767E-04   4.1499614E+05   -1.8354868E+00
   1.6600075E-04   4.1150182E+05   -1.8349777E+00
   1.6676736E-04   4.0803788E+05   -1.8344679E+00
   1.6753751E-04   4.0460404E+05   -1.8339573E+00
   1.6831122E-04   4.0120005E+05   -1.8334459E+00
   1.6908849E-04   3.9782564E+05   -1.8329337E+00
   1.6986936E-04   3.9448054E+05   -1.8324207E+00
   1.7065384E-04   3.9116449E+05   -1.8319070E+00
   1.7144193E-04   3.8787723E+05   -1.8313924E+00
   1.7223367E-04   3.8461851E+05   -1.8308771E+00
   1.7302906E-04   3.8138808E+05   -1.8303610E+00
   1.7382813E-04   3.7818568E+05   -1.8298442E+00
   1.7463089E-04   3.7501106E+05   -1.8293266E+00
   1.7543735E-04   3.7186398E+05   -1.8288082E+00
   1.7624754E-04   3.6874419E+05   -1.8282891E+00
   1.7706147E-04   3.6565145E+05   -1.8277692E+00
   1.7787916E-04   3.6258552E+05   -1.8272486E+00
   1.7870062E-04   3.5954615E+05   -1.8267273E+00
   1.7952588E-04   3.5653313E+05   -1.8262052E+00
   1.8035495E-04   3.5354620E+05   -1.8256824E+00
   1.8118785E-04   3.5058514E+05   -1.8251588E+00
   1.8202459E-04   3.4764972E+05   -1.8246345E+00
   1.8286520E-04   3.4473971E+05   -1.8241095E+00
   1.8370969E-04   3.4185489E+05   -1.8235838E+00
   1.8455808E-04   3.3899503E+05   -1.8230574E+00
   1.8541039E-04   3.3615991E+05   -1.8225302E+00
   1.8626663E-04   3.3334932E+05   -1.8220024E+00
   1.8712683E-04   3.3056302E+05   -1.8214738E+00
   1.8799100E-04   3.2780081E+05   -1.8209446E+00
   1.8885917E-04   3.2506248E+05   -1.8204146E+00
   1.8973134E-04   3.2234781E+05   -1.8198840E+00
   1.9060754E-04   3.1965660E+05   -1.8193527E+00
   1.9148778E-04   3.1698862E+05   -1.8188207E+00
   1.9237209E-04   3.1434369E+05   -1.8182880E+00
   1.9326049E-04   3.1172159E+05   -1.8177547E+00
   1.9415299E-04   3.0912213E+05   -1.8172207E+00
   1.9504960E-04   3.0654509E+05   -1.8166860E+00
   1.9595036E-04   3.0399029E+05   -1.8161507E+00
   1.9685528E-04   3.0145753E+05   -1.8156147E+00
   1.9776438E-04   2.9894660E+05   -1.8150781E+00
   1.9867768E-04   2.9645733E+05   -1.8145408E+00
   1.9959519E-04   2.9398951E+05   -1.8140029E+00
   2.0051694E-04   2.9154295E+05   -1.8134643E+00
   2.0144295E-04   2.8911748E+05   -1.8129252E+00
   2.0237324E-04   2.8671289E+05   -1.8123854E+00
   2.0330782E-04   2.8432901E+05   -1.8118449E+00
   2.0424671E-04   2.8196566E+05   -1.8113039E+00
   2.0518995E-04   2.7962264E+05   -1.8107622E+00
   2.0613754E-04   2.7729979E+05   -1.8102200E+00
   2.0708950E-04   2.7499692E+05   -1.8096771E+00
   2.0804586E-04   2.7271386E+05   -1.8091336E+00
   2.0900664E-04   2.7045043E+05   -1.8085896E+00
   2.0997185E-04   2.6820646E+05   -1.8080449E+00
   2.1094152E-04   2.6598178E+05   -1.8074997E+00
   2.1191567E-04   2.6377621E+05   -1.8069539E+00
   2.1289432E-04   2.6158959E+05   -1.8064075E+00
   2.1387749E-04   2.5942175E+05   -1.8058606E+00
   2.1486520E-04   2.5727252E+05   -1.8053131E+00
   2.1585747E-04   2.5514174E+05   -1.8047650E+00
   2.1685432E-04   2.5302925E+05   -1.8042164E+00
   2.1785578E-04   2.5093488E+05   -1.8036672E+00
   2.1886186E-04   2.4885848E+05   -1.8031175E+00
   2.1987259E-04   2.4679989E+05   -1.8025672E+00
   2.2088798E-04   2.4475895E+05   -1.8020165E+00
   2.2190807E-04   2.4273550E+05   -1.8014651E+00
   2.2293286E-04   2.4072939E+05   -1.8009133E+00
   2.2396239E-04   2.3874046E+05   -1.8003609E+00
   2.2499667E-04   2.3676858E+05   -1.7998081E+00
   2.2603573E-04   2.3481357E+05   -1.7992547E+00
   2.2707958E-04   2.3287531E+05   -1.7987008E+00
   2.2812826E-04   2.3095363E+05   -1.7981464E+00
   2.2918178E-04   2.2904840E+05   -1.7975915E+00
   2.3024017E-04   2.2715946E+05   -1.7970362E+00
   2.3130344E-04   2.2528668E+05   -1.7964803E+00
   2.3237162E-04   2.2342991E+05   -1.7959240E+00
   2.3344474E-04   2.2158902E+05   -1.7953672E+00
   2.3452281E-04   2.1976385E+05   -1.7948100E+00
   2.3560586E-04   2.1795428E+05   -1.7942522E+00
   2.3669392E-04   2.1616016E+05   -1.7936941E+00
   2.3778699E-04   2.1438137E+05   -1.7931354E+00
   2.3888512E-04   2.1261776E+05   -1.7925764E+00
   2.3998831E-04   2.1086920E+05   -1.7920169E+00
   2.4109661E-04   2.0913556E+05   -1.7914569E+00
   2.4221001E-04   2.0741671E+05   -1.7908966E+00
   2.4332857E-04   2.0571251E+05   -1.7903358E+00
   2.4445228E-04   2.0402285E+05   -1.7897745E+00
   2.4558119E-04   2.0234759E+05   -1.7892129E+00
   2.4671531E-04   2.0068660E+05   -1.7886509E+00
   2.4785467E-04   1.9903976E+05   -1.7880885E+00
   2.4899928E-04   1.9740695E+05   -1.7875256E+00
   2.5014919E-04   1.9578804E+05   -1.7869624E+00
   2.5130440E-04   1.9418292E+05   -1.7863988E+00
   2.5246495E-04   1.9259145E+05   -1.7858348E+00
   2.5363086E-04   1.9101352E+05   -1.7852705E+00
   2.5480216E-04   1.8944901E+05   -1.7847058E+00
   2.5597886E-04   1.8789781E+05   -1.7841407E+00
   2.5716100E-04   1.8635979E+05   -1.7835753E+00
   2.5834859E-04   1.8483484E+05   -1.7830095E+00
   2.5954168E-04   1.8332285E+05   -1.7824433E+00
   2.6074027E-04   1.8182370E+05   -1.7818769E+00
   2.6194439E-04   1.8033729E+05   -1.7813101E+00
   2.6315408E-04   1.7886349E+05   -1.7807429E+00
   2.6436935E-04   1.7740220E+05   -1.7801755E+00
   2.6559024E-04   1.7595331E+05   -1.7796077E+00
   2.6681676E-04   1.7451671E+05   -1.7790396E+00
   2.6804895E-04   1.7309229E+05   -1.7784712E+00
   2.6928683E-04   1.7167994E+05   -1.7779025E+00
   2.7053042E-04   1.7027957E+05   -1.7773336E+00
   2.7177976E-04   1.6889107E+05   -1.7767643E+00
   2.7303487E-04   1.6751432E+05   -1.7761948E+00
   2.7429577E-04   1.6614923E+05   -1.7756249E+00
   2.7556250E-04   1.6479570E+05   -1.7750548E+00
   2.7683507E-04   1.6345363E+05   -1.7744845E+00
   2.7811353E-04   1.6212291E+05   -1.7739139E+00
   2.7939788E-04   1.6080345E+05   -1.7733430E+00
   2.8068817E-04   1.5949515E+05   -1.7727719E+00
   2.8198442E-04   1.5819791E+05   -1.7722005E+00
   2.8328665E-04   1.5691163E+05   -1.7716290E+00
   2.8459490E-04   1.5563622E+05   -1.7710571E+00
   2.8590919E-04   1.5437158E+05   -1.7704851E+00
   2.8722955E-04   1.5311763E+05   -1.7699129E+00
   2.8855600E-04   1.5187426E+05   -1.7693404E+00
   2.8988859E-04   1.5064138E+05   -1.7687677E+00
   2.9122732E-04   1.4941891E+05   -1.7681948E+00
   2.9257224E-04   1.4820674E+05   -1.7676218E+00
   2.9392337E-04   1.4700480E+05   -1.7670485E+00
   2.9528074E-04   1.4581300E+05   -1.7664751E+00
   2.9664438E-04   1.4463123E+05   -1.7659015E+00
   2.9801431E-04   1.4345943E+05   -1.7653277E+00
   2.9939057E-04   1.4229749E+05   -1.7647538E+00
   3.0077319E-04   1.4114534E+05   -1.7641797E+00
   3.0216219E-04   1.4000289E+05   -1.7636055E+00
   3.0355761E-04   1.3887005E+05   -1.7630311E+00
   3.0495947E-04   1.3774675E+05   -1.7624566E+00
   3.0636780E-04   1.3663289E+05   -1.7618819E+00
   3.0778264E-04   1.3552840E+05   -1.7613071E+00
   3.0920401E-04   1.3443319E+05   -1.7607322E+00
   3.1063195E-04   1.3334718E+05   -1.7601572E+00
   3.1206648E-04   1.3227030E+05   -1.7595821E+00
   3.1350764E-04   1.3120247E+05   -1.7590068E+00
   3.1495545E-04   1.3014359E+05   -1.7584315E+00
   3.1640994E-04   1.2909361E+05   -1.7578561E+00
   3.1787116E-04   1.2805244E+05   -1.7572806E+00
   3.1933912E-04   1.2702000E+05   -1.7567050E+00
   3.2081386E-04   1.2599622E+05   -1.7561294E+00
   3.2229541E-04   1.2498103E+05   -1.7555537E+00
   3.2378381E-04   1.2397434E+05   -1.7549779E+00
   3.2527908E-04   1.2297608E+05   -1.7544021E+00
   3.2678125E-04   1.2198619E+05   -1.7538262E+00
   3.2829036E-04   1.2100459E+05   -1.7532503E+00
   3.2980644E-04   1.2003121E+05   -1.7526743E+00
   3.3132952E-04   1.1906597E+05   -1.7520983E+00
   3.3285963E-04   1.1810880E+05   -1.7515223E+00
   3.3439681E-04   1.1715964E+05   -1.7509463E+00
   3.3594109E-04   1.1621842E+05   -1.7503703E+00
   3.3749250E-04   1.1528507E+05   -1.7497942E+00
   3.3905108E-04   1.1435951E+05   -1.7492182E+00
   3.4061685E-04   1.1344169E+05   -1.7486422E+00
   3.4218986E-04   1.1253153E+05   -1.7480662E+00
   3.4377013E-04   1.1162897E+05   -1.7474902E+00
   3.4535769E-04   1.1073395E+05   -1.7469142E+00
   3.4695259E-04   1.0984639E+05   -1.7463383E+00
   3.4855485E-04   1.0896623E+05   -1.7457624E+00
   3.5016452E-04   1.0809341E+05   -1.7451865E+00
   3.5178161E-04   1.0722787E+05   -1.7446107E+00
   3.5340618E-04   1.0636954E+05   -1.7440350E+00
   3.5503824E-04   1.0551837E+05   -1.7434593E+00
   3.5667785E-04   1.0467428E+05   -1.7428837E+00
   3.5832502E-04   1.0383722E+05   -1.7423081E+00
   3.5997981E-04   1.0300712E+05   -1.7417327E+00
   3.6164223E-04   1.0218394E+05   -1.7411573E+00
   3.6331233E-04   1.0136759E+05   -1.7405820E+00
   3.6499015E-04   1.0055804E+05   -1.7400069E+00
   3.6667571E-04   9.9755221E+04   -1.7394318E+00
   3.6836906E-04   9.8959070E+04   -1.7388568E+00
   3.7007022E-04   9.8169533E+04   -1.7382820E+00
   3.7177925E-04   9.7386554E+04   -1.7377072E+00
   3.7349616E-04   9.6610075E+04   -1.7371327E+00
   3.7522101E-04   9.5840041E+04   -1.7365582E+00
   3.7695382E-04   9.5076396E+04   -1.7359839E+00
   3.7869463E-04   9.4319085E+04   -1.7354097E+00
   3.8044348E-04   9.3568055E+04   -1.7348357E+00
   3.8220041E-04   9.2823250E+04   -1.7342618E+00
   3.8396545E-04   9.2084616E+04   -1.7336881E+00
   3.8573864E-04   9.1352102E+04   -1.7331146E+00
   3.8752002E-04   9.0625655E+04   -1.7325413E+00
   3.8930963E-04   8.9905221E+04   -1.7319681E+00
   3.9110750E-04   8.9190751E+04   -1.7313952E+00
   3.9291368E-04   8.8482191E+04   -1.7308224E+00
   3.9472820E-04   8.7779492E+04   -1.7302498E+00
   3.9655109E-04   8.7082604E+04   -1.7296775E+00
   3.9838241E-04   8.6391476E+04   -1.7291053E+00
   4.0022218E-04   8.5706059E+04   -1.7285334E+00
   4.0207045E-04   8.5026304E+04   -1.7279617E+00
   4.0392725E-04   8.4352163E+04   -1.7273902E+00
   4.0579263E-04   8.3683587E+04   -1.7268190E+00
   4.0766662E-04   8.3020528E+04   -1.7262480E+00
   4.0954927E-04   8.2362940E+04   -1.7256772E+00
   4.1144061E-04   8.1710775E+04   -1.7251067E+00
   4.1334068E-04   8.1063987E+04   -1.7245365E+00
   4.1524953E-04   8.0422530E+04   -1.7239665E+00
   4.1716720E-04   7.9786359E+04   -1.7233968E+00
   4.1909372E-04   7.9155427E+04   -1.7228274E+00
   4.2102914E-04   7.8529691E+04   -1.7222583E+00
   4.2297350E-04   7.7909105E+04   -1.7216895E+00
   4.2492683E-04   7.7293626E+04   -1.7211209E+00
   4.2688919E-04   7.6683211E+04   -1.7205527E+00
   4.2886061E-04   7.6077815E+04   -1.7199848E+00
   4.3084113E-04   7.5477396E+04   -1.7194171E+00
   4.3283080E-04   7.4881911E+04   -1.7188498E+00
   4.3482966E-04   7.4291319E+04   -1.7182829E+00
   4.3683775E-04   7.3705577E+04   -1.7177162E+00
   4.3885511E-04   7.3124644E+04   -1.7171499E+00
   4.4088179E-04   7.2548480E+04   -1.7165839E+00
   4.4291783E-04   7.1977042E+04   -1.7160183E+00
   4.4496327E-04   7.1410292E+04   -1.7154531E+00
   4.4701816E-04   7.0848189E+04   -1.7148881E+00
   4.4908253E-04   7.0290693E+04   -1.7143236E+00
   4.5115644E-04   6.9737765E+04   -1.7137594E+00
   4.5323993E-04   6.9189367E+04   -1.7131956E+00
   4.5533304E-04   6.8645459E+04   -1.7126322E+00
   4.5743582E-04   6.8106004E+04   -1.7120692E+00
   4.5954830E-04   6.7570964E+04   -1.7115065E+00
   4.6167054E-04   6.7040300E+04   -1.7109443E+00
   4.6380259E-04   6.6513976E+04   -1.7103825E+00
   4.6594448E-04   6.5991956E+04   -1.7098210E+00
   4.6809626E-04   6.5474201E+04   -1.7092600E+00
   4.7025797E-04   6.4960676E+04   -1.7086994E+00
   4.7242967E-04   6.4451346E+04   -1.7081393E+00
   4.7461140E-04   6.3946173E+04   -1.7075795E+00
   4.7680321E-04   6.3445124E+04   -1.7070202E+00
   4.7900514E-04   6.2948163E+04   -1.7064614E+00
   4.8121723E-04   6.2455256E+04   -1.7059030E+00
   4.8343954E-04   6.1966368E+04   -1.7053450E+00
   4.8567212E-04   6.1481464E+04   -1.7047875E+00
   4.8791500E-04   6.1000512E+04   -1.7042305E+00
   4.9016825E-04   6.0523477E+04   -1.7036739E+00
   4.9243189E-04   6.0050327E+04   -1.7031178E+00
   4.9470600E-04   5.9581028E+04   -1.7025622E+00
   4.9699060E-04   5.9115548E+04   -1.7020071E+00
   4.9928575E-04   5.8653854E+04   -1.7014524E+00
   5.0159151E-04   5.8195915E+04   -1.7008983E+00
   5.0390791E-04   5.7741699E+04   -1.7003446E+00
   5.0623501E-04   5.7291174E+04   -1.6997915E+00
   5.0857286E-04   5.6844309E+04   -1.6992389E+00
   5.1092150E-04   5.6401073E+04   -1.6986867E+00
   5.1328099E-04   5.5961435E+04   -1.6981351E+00
   5.1565137E-04   5.5525366E+04   -1.6975841E+00
   5.1803270E-04   5.5092834E+04   -1.6970335E+00
   5.2042503E-04   5.4663810E+04   -1.6964835E+00
   5.2282841E-04   5.4238264E+04   -1.6959341E+00
   5.2524289E-04   5.3816168E+04   -1.6953852E+00
   5.2766851E-04   5.3397491E+04   -1.6948368E+00
   5.3010534E-04   5.2982205E+04   -1.6942890E+00
   5.3255342E-04   5.2570281E+04   -1.6937417E+00
   5.3501281E-04   5.2161692E+04   -1.6931951E+00
   5.3748356E-04   5.1756409E+04   -1.6926489E+00
   5.3996571E-04   5.1354403E+04   -1.6921034E+00
   5.4245933E-04   5.0955648E+04   -1.6915585E+00
   5.4496446E-04   5.0560117E+04   -1.6910141E+00
   5.4748117E-04   5.0167781E+04   -1.6904703E+00
   5.5000949E-04   4.9778615E+04   -1.6899271E+00
   5.5254949E-04   4.9392590E+04   -1.6893845E+00
   5.5510123E-04   4.9009682E+04   -1.6888426E+00
   5.5766474E-04   4.8629864E+04   -1.6883012E+00
   5.6024010E-04   4.8253109E+04   -1.6877604E+00
   5.6282734E-04   4.7879393E+04   -1.6872203E+00
   5.6542654E-04   4.7508689E+04   -1.6866808E+00
   5.6803774E-04   4.7140972E+04   -1.6861419E+00
   5.7066099E-04   4.6776218E+04   -1.6856036E+00
   5.7329637E-04   4.6414401E+04   -1.6850660E+00
   5.7594391E-04   4.6055496E+04   -1.6845291E+00
   5.7860368E-04   4.5699480E+04   -1.6839927E+00
   5.8127573E-04   4.5346328E+04   -1.6834570E+00
   5.8396012E-04   4.4996016E+04   -1.6829220E+00
   5.8665691E-04   4.4648520E+04   -1.6823877E+00
   5.8936616E-04   4.4303817E+04   -1.6818540E+00
   5.9208791E-04   4.3961883E+04   -1.6813209E+00
   5.9482223E-04   4.3622696E+04   -1.6807886E+00
   5.9756919E-04   4.3286231E+04   -1.6802569E+00
   6.0032882E-04   4.2952466E+04   -1.6797259E+00
   6.0310120E-04   4.2621380E+04   -1.6791956E+00
   6.0588639E-04   4.2292949E+04   -1.6786660E+00
   6.0868443E-04   4.1967150E+04   -1.6781370E+00
   6.1149540E-04   4.1643963E+04   -1.6776088E+00
   6.1431935E-04   4.1323366E+04   -1.6770813E+00
   6.1715634E-04   4.1005336E+04   -1.6765545E+00
   6.2000644E-04   4.0689853E+04   -1.6760283E+00
   6.2286969E-04   4.0376894E+04   -1.6755029E+00
