#        a       HoverH0(a)       dlogHdloga_of_a(a)
   1.0000000E-04   1.1210481E+06   -1.8433177E+00
   1.0046181E-04   1.1115686E+06   -1.8428216E+00
   1.0092575E-04   1.1021718E+06   -1.8423246E+00
   1.0139184E-04   1.0928569E+06   -1.8418268E+00
   1.0186008E-04   1.0836232E+06   -1.8413282E+00
   1.0233048E-04   1.0744700E+06   -1.8408286E+00
   1.0280305E-04   1.0653966E+06   -1.8403283E+00
   1.0327781E-04   1.0564022E+06   -1.8398271E+00
   1.0375475E-04   1.0474862E+06   -1.8393251E+00
   1.0423390E-04   1.0386478E+06   -1.8388223E+00
   1.0471527E-04   1.0298864E+06   -1.8383186E+00
   1.0519885E-04   1.0212013E+06   -1.8378141E+00
   1.0568467E-04   1.0125918E+06   -1.8373089E+00
   1.0617274E-04   1.0040572E+06   -1.8368027E+00
   1.0666305E-04   9.9559685E+05   -1.8362958E+00
   1.0715563E-04   9.8721011E+05   -1.8357881E+00
   1.0765049E-04   9.7889630E+05   -1.8352796E+00
   1.0814763E-04   9.7065479E+05   -1.8347702E+00
   1.0864707E-04   9.6248493E+05   -1.8342601E+00
   1.0914881E-04   9.5438608E+05   -1.8337492E+00
   1.0965287E-04   9.4635760E+05   -1.8332375E+00
   1.1015926E-04   9.3839887E+05   -1.8327250E+00
   1.1066799E-04   9.3050928E+05   -1.8322117E+00
   1.1117906E-04   9.2268819E+05   -1.8316976E+00
   1.1169250E-04   9.1493502E+05   -1.8311828E+00
   1.1220831E-04   9.0724915E+05   -1.8306672E+00
   1.1272650E-04   8.9962998E+05   -1.8301508E+00
   1.1324708E-04   8.9207692E+05   -1.8296337E+00
   1.1377007E-04   8.8458938E+05   -1.8291158E+00
   1.1429547E-04   8.7716679E+05   -1.8285972E+00
   1.1482330E-04   8.6980856E+05   -1.8280778E+00
   1.1535356E-04   8.6251412E+05   -1.8275576E+00
   1.1588628E-04   8.5528290E+05   -1.8270367E+00
   1.1642145E-04   8.4811435E+05   -1.8265151E+00
   1.1695910E-04   8.4100790E+05   -1.8259927E+00
   1.1749923E-04   8.3396301E+05   -1.8254696E+00
   1.1804185E-04   8.2697912E+05   -1.8249458E+00
   1.1858698E-04   8.2005570E+05   -1.8244213E+00
   1.1913463E-04   8.1319221E+05   -1.8238960E+00
   1.1968481E-04   8.0638811E+05   -1.8233700E+00
   1.2023752E-04   7.9964289E+05   -1.8228433E+00
   1.2079279E-04   7.9295602E+05   -1.8223159E+00
   1.2135063E-04   7.8632697E+05   -1.8217878E+00
   1.2191104E-04   7.7975524E+05   -1.8212590E+00
   1.2247403E-04   7.7324032E+05   -1.8207295E+00
   1.2303963E-04   7.6678171E+05   -1.8201993E+00
   1.2360784E-04   7.6037890E+05   -1.8196684E+00
   1.2417868E-04   7.5403140E+05   -1.8191368E+00
   1.2475215E-04   7.4773872E+05   -1.8186046E+00
   1.2532826E-04   7.4150037E+05   -1.8180716E+00
   1.2590704E-04   7.3531588E+05   -1.8175381E+00
   1.2648850E-04   7.2918476E+05   -1.8170038E+00
   1.2707263E-04   7.2310654E+05   -1.8164689E+00
   1.2765947E-04   7.1708076E+05   -1.8159333E+00
   1.2824901E-04   7.1110695E+05   -1.8153971E+00
   1.2884128E-04   7.0518465E+05   -1.8148602E+00
   1.2943628E-04   6.9931341E+05   -1.8143227E+00
   1.3003403E-04   6.9349276E+05   -1.8137846E+00
   1.3063454E-04   6.8772227E+05   -1.8132458E+00
   1.3123783E-04   6.8200149E+05   -1.8127064E+00
   1.3184390E-04   6.7632998E+05   -1.8121664E+00
   1.3245277E-04   6.7070730E+05   -1.8116257E+00
   1.3306445E-04   6.6513302E+05   -1.8110845E+00
   1.3367895E-04   6.5960672E+05   -1.8105426E+00
   1.3429630E-04   6.5412796E+05   -1.8100001E+00
   1.3491649E-04   6.4869634E+05   -1.8094570E+00
   1.3553955E-04   6.4331143E+05   -1.8089134E+00
   1.3616548E-04   6.3797282E+05   -1.8083691E+00
   1.3679431E-04   6.3268010E+05   -1.8078242E+00
   1.3742604E-04   6.2743286E+05   -1.8072788E+00
   1.3806069E-04   6.2223071E+05   -1.8067328E+00
   1.3869827E-04   6.1707324E+05   -1.8061862E+00
   1.3933879E-04   6.1196007E+05   -1.8056391E+00
   1.3998227E-04   6.0689079E+05   -1.8050914E+00
   1.4062872E-04   6.0186503E+05   -1.8045431E+00
   1.4127816E-04   5.9688239E+05   -1.8039943E+00
   1.4193060E-04   5.9194250E+05   -1.8034449E+00
   1.4258605E-04   5.8704498E+05   -1.8028950E+00
   1.4324453E-04   5.8218945E+05   -1.8023446E+00
   1.4390605E-04   5.7737555E+05   -1.8017936E+00
   1.4457062E-04   5.7260291E+05   -1.8012421E+00
   1.4523826E-04   5.6787117E+05   -1.8006901E+00
   1.4590899E-04   5.6317996E+05   -1.8001375E+00
   1.4658281E-04   5.5852892E+05   -1.7995845E+00
   1.4725974E-04   5.5391771E+05   -1.7990309E+00
   1.4793981E-04   5.4934597E+05   -1.7984769E+00
   1.4862301E-04   5.4481336E+05   -1.7979223E+00
   1.4930936E-04   5.4031952E+05   -1.7973673E+00
   1.4999889E-04   5.3586412E+05   -1.7968118E+00
   1.5069160E-04   5.3144682E+05   -1.7962558E+00
   1.5138751E-04   5.2706729E+05   -1.7956993E+00
   1.5208663E-04   5.2272519E+05   -1.7951423E+00
   1.5278899E-04   5.1842018E+05   -1.7945849E+00
   1.5349458E-04   5.1415196E+05   -1.7940271E+00
   1.5420343E-04   5.0992019E+05   -1.7934687E+00
   1.5491556E-04   5.0572455E+05   -1.7929100E+00
   1.5563098E-04   5.0156472E+05   -1.7923507E+00
   1.5634970E-04   4.9744039E+05   -1.7917911E+00
   1.5707174E-04   4.9335125E+05   -1.7912310E+00
   1.5779711E-04   4.8929698E+05   -1.7906705E+00
   1.5852584E-04   4.8527729E+05   -1.7901096E+00
   1.5925792E-04   4.8129186E+05   -1.7895482E+00
   1.5999339E-04   4.7734040E+05   -1.7889865E+00
   1.6073226E-04   4.7342260E+05   -1.7884243E+00
   1.6147454E-04   4.6953818E+05   -1.7878618E+00
   1.6222024E-04   4.6568684E+05   -1.7872988E+00
   1.6296939E-04   4.6186829E+05   -1.7867355E+00
   1.6372200E-04   4.5808223E+05   -1.7861718E+00
   1.6447809E-04   4.5432840E+05   -1.7856077E+00
   1.6523767E-04   4.5060649E+05   -1.7850432E+00
   1.6600075E-04   4.4691624E+05   -1.7844784E+00
   1.6676736E-04   4.4325737E+05   -1.7839132E+00
   1.6753751E-04   4.3962959E+05   -1.7833477E+00
   1.6831122E-04   4.3603264E+05   -1.7827818E+00
   1.6908849E-04   4.3246625E+05   -1.7822156E+00
   1.6986936E-04   4.2893015E+05   -1.7816490E+00
   1.7065384E-04   4.2542407E+05   -1.7810821E+00
   1.7144193E-04   4.2194776E+05   -1.7805149E+00
   1.7223367E-04   4.1850094E+05   -1.7799473E+00
   1.7302906E-04   4.1508337E+05   -1.7793795E+00
   1.7382813E-04   4.1169478E+05   -1.7788113E+00
   1.7463089E-04   4.0833493E+05   -1.7782428E+00
   1.7543735E-04   4.0500355E+05   -1.7776741E+00
   1.7624754E-04   4.0170041E+05   -1.7771050E+00
   1.7706147E-04   3.9842525E+05   -1.7765357E+00
   1.7787916E-04   3.9517784E+05   -1.7759661E+00
   1.7870062E-04   3.9195792E+05   -1.7753962E+00
   1.7952588E-04   3.8876525E+05   -1.7748260E+00
   1.8035495E-04   3.8559961E+05   -1.7742556E+00
   1.8118785E-04   3.8246075E+05   -1.7736849E+00
   1.8202459E-04   3.7934843E+05   -1.7731140E+00
   1.8286520E-04   3.7626244E+05   -1.7725429E+00
   1.8370969E-04   3.7320253E+05   -1.7719715E+00
   1.8455808E-04   3.7016848E+05   -1.7713998E+00
   1.8541039E-04   3.6716006E+05   -1.7708280E+00
   1.8626663E-04   3.6417705E+05   -1.7702559E+00
   1.8712683E-04   3.6121924E+05   -1.7696836E+00
   1.8799100E-04   3.5828638E+05   -1.7691111E+00
   1.8885917E-04   3.5537828E+05   -1.7685384E+00
   1.8973134E-04   3.5249472E+05   -1.7679655E+00
   1.9060754E-04   3.4963547E+05   -1.7673924E+00
   1.9148778E-04   3.4680033E+05   -1.7668191E+00
   1.9237209E-04   3.4398909E+05   -1.7662457E+00
   1.9326049E-04   3.4120154E+05   -1.7656721E+00
   1.9415299E-04   3.3843748E+05   -1.7650983E+00
   1.9504960E-04   3.3569669E+05   -1.7645243E+00
   1.9595036E-04   3.3297898E+05   -1.7639502E+00
   1.9685528E-04   3.3028415E+05   -1.7633760E+00
   1.9776438E-04   3.2761199E+05   -1.7628016E+00
   1.9867768E-04   3.2496232E+05   -1.7622270E+00
   1.9959519E-04   3.2233492E+05   -1.7616524E+00
   2.0051694E-04   3.1972962E+05   -1.7610776E+00
   2.0144295E-04   3.1714621E+05   -1.7605027E+00
   2.0237324E-04   3.1458451E+05   -1.7599277E+00
   2.0330782E-04   3.1204433E+05   -1.7593526E+00
   2.0424671E-04   3.0952548E+05   -1.7587774E+00
   2.0518995E-04   3.0702777E+05   -1.7582021E+00
   2.0613754E-04   3.0455103E+05   -1.7576267E+00
   2.0708950E-04   3.0209507E+05   -1.7570512E+00
   2.0804586E-04   2.9965971E+05   -1.7564756E+00
   2.0900664E-04   2.9724477E+05   -1.7559000E+00
   2.0997185E-04   2.9485007E+05   -1.7553243E+00
   2.1094152E-04   2.9247545E+05   -1.7547486E+00
   2.1191567E-04   2.9012071E+05   -1.7541728E+00
   2.1289432E-04   2.8778570E+05   -1.7535970E+00
   2.1387749E-04   2.8547024E+05   -1.7530211E+00
   2.1486520E-04   2.8317416E+05   -1.7524452E+00
   2.1585747E-04   2.8089729E+05   -1.7518692E+00
   2.1685432E-04   2.7863947E+05   -1.7512933E+00
   2.1785578E-04   2.7640053E+05   -1.7507173E+00
   2.1886186E-04   2.7418031E+05   -1.7501413E+00
   2.1987259E-04   2.7197865E+05   -1.7495654E+00
   2.2088798E-04   2.6979538E+05   -1.7489894E+00
   2.2190807E-04   2.6763034E+05   -1.7484134E+00
   2.2293286E-04   2.6548339E+05   -1.7478375E+00
   2.2396239E-04   2.6335435E+05   -1.7472616E+00
   2.2499667E-04   2.6124309E+05   -1.7466857E+00
   2.2603573E-04   2.5914943E+05   -1.7461098E+00
   2.2707958E-04   2.5707324E+05   -1.7455340E+00
   2.2812826E-04   2.5501436E+05   -1.7449582E+00
   2.2918178E-04   2.5297264E+05   -1.7443825E+00
   2.3024017E-04   2.5094793E+05   -1.7438068E+00
   2.3130344E-04   2.4894008E+05   -1.7432312E+00
   2.3237162E-04   2.4694896E+05   -1.7426557E+00
   2.3344474E-04   2.4497441E+05   -1.7420803E+00
   2.3452281E-04   2.4301629E+05   -1.7415049E+00
   2.3560586E-04   2.4107447E+05   -1.7409297E+00
   2.3669392E-04   2.3914879E+05   -1.7403545E+00
   2.3778699E-04   2.3723913E+05   -1.7397794E+00
   2.3888512E-04   2.3534534E+05   -1.7392044E+00
   2.3998831E-04   2.3346728E+05   -1.7386296E+00
   2.4109661E-04   2.3160482E+05   -1.7380549E+00
   2.4221001E-04   2.2975783E+05   -1.7374803E+00
   2.4332857E-04   2.2792617E+05   -1.7369058E+00
   2.4445228E-04   2.2610972E+05   -1.7363314E+00
   2.4558119E-04   2.2430833E+05   -1.7357573E+00
   2.4671531E-04   2.2252188E+05   -1.7351832E+00
   2.4785467E-04   2.2075024E+05   -1.7346093E+00
   2.4899928E-04   2.1899329E+05   -1.7340356E+00
   2.5014919E-04   2.1725090E+05   -1.7334621E+00
   2.5130440E-04   2.1552294E+05   -1.7328887E+00
   2.5246495E-04   2.1380929E+05   -1.7323155E+00
   2.5363086E-04   2.1210982E+05   -1.7317425E+00
   2.5480216E-04   2.1042441E+05   -1.7311696E+00
   2.5597886E-04   2.0875295E+05   -1.7305970E+00
   2.5716100E-04   2.0709532E+05   -1.7300246E+00
   2.5834859E-04   2.0545138E+05   -1.7294524E+00
   2.5954168E-04   2.0382104E+05   -1.7288804E+00
   2.6074027E-04   2.0220416E+05   -1.7283087E+00
   2.6194439E-04   2.0060064E+05   -1.7277371E+00
   2.6315408E-04   1.9901036E+05   -1.7271658E+00
   2.6436935E-04   1.9743320E+05   -1.7265947E+00
   2.6559024E-04   1.9586906E+05   -1.7260239E+00
   2.6681676E-04   1.9431783E+05   -1.7254534E+00
   2.6804895E-04   1.9277938E+05   -1.7248830E+00
   2.6928683E-04   1.9125362E+05   -1.7243130E+00
   2.7053042E-04   1.8974043E+05   -1.7237432E+00
   2.7177976E-04   1.8823971E+05   -1.7231737E+00
   2.7303487E-04   1.8675134E+05   -1.7226045E+00
   2.7429577E-04   1.8527523E+05   -1.7220356E+00
   2.7556250E-04   1.8381127E+05   -1.7214669E+00
   2.7683507E-04   1.8235936E+05   -1.7208986E+00
   2.7811353E-04   1.8091939E+05   -1.7203305E+00
   2.7939788E-04   1.7949125E+05   -1.7197628E+00
   2.8068817E-04   1.7807486E+05   -1.7191954E+00
   2.8198442E-04   1.7667011E+05   -1.7186283E+00
   2.8328665E-04   1.7527689E+05   -1.7180616E+00
   2.8459490E-04   1.7389512E+05   -1.7174951E+00
   2.8590919E-04   1.7252469E+05   -1.7169290E+00
   2.8722955E-04   1.7116550E+05   -1.7163633E+00
   2.8855600E-04   1.6981747E+05   -1.7157979E+00
   2.8988859E-04   1.6848049E+05   -1.7152329E+00
   2.9122732E-04   1.6715447E+05   -1.7146682E+00
   2.9257224E-04   1.6583932E+05   -1.7141039E+00
   2.9392337E-04   1.6453494E+05   -1.7135399E+00
   2.9528074E-04   1.6324125E+05   -1.7129764E+00
   2.9664438E-04   1.6195815E+05   -1.7124132E+00
   2.9801431E-04   1.6068556E+05   -1.7118504E+00
   2.9939057E-04   1.5942337E+05   -1.7112880E+00
   3.0077319E-04   1.5817151E+05   -1.7107260E+00
   3.0216219E-04   1.5692989E+05   -1.7101644E+00
   3.0355761E-04   1.5569841E+05   -1.7096033E+00
   3.0495947E-04   1.5447700E+05   -1.7090425E+00
   3.0636780E-04   1.5326557E+05   -1.7084822E+00
   3.0778264E-04   1.5206402E+05   -1.7079223E+00
   3.0920401E-04   1.5087229E+05   -1.7073628E+00
   3.1063195E-04   1.4969028E+05   -1.7068038E+00
   3.1206648E-04   1.4851792E+05   -1.7062452E+00
   3.1350764E-04   1.4735512E+05   -1.7056870E+00
   3.1495545E-04   1.4620179E+05   -1.7051293E+00
   3.1640994E-04   1.4505787E+05   -1.7045721E+00
   3.1787116E-04   1.4392326E+05   -1.7040154E+00
   3.1933912E-04   1.4279790E+05   -1.7034591E+00
   3.2081386E-04   1.4168170E+05   -1.7029033E+00
   3.2229541E-04   1.4057458E+05   -1.7023479E+00
   3.2378381E-04   1.3947647E+05   -1.7017931E+00
   3.2527908E-04   1.3838729E+05   -1.7012388E+00
   3.2678125E-04   1.3730697E+05   -1.7006849E+00
   3.2829036E-04   1.3623543E+05   -1.7001316E+00
   3.2980644E-04   1.3517260E+05   -1.6995787E+00
   3.3132952E-04   1.3411840E+05   -1.6990264E+00
   3.3285963E-04   1.3307276E+05   -1.6984746E+00
   3.3439681E-04   1.3203561E+05   -1.6979233E+00
   3.3594109E-04   1.3100687E+05   -1.6973725E+00
   3.3749250E-04   1.2998648E+05   -1.6968223E+00
   3.3905108E-04   1.2897436E+05   -1.6962726E+00
   3.4061685E-04   1.2797045E+05   -1.6957235E+00
   3.4218986E-04   1.2697467E+05   -1.6951749E+00
   3.4377013E-04   1.2598696E+05   -1.6946268E+00
   3.4535769E-04   1.2500725E+05   -1.6940794E+00
   3.4695259E-04   1.2403547E+05   -1.6935324E+00
   3.4855485E-04   1.2307155E+05   -1.6929861E+00
   3.5016452E-04   1.2211543E+05   -1.6924403E+00
   3.5178161E-04   1.2116705E+05   -1.6918951E+00
   3.5340618E-04   1.2022633E+05   -1.6913505E+00
   3.5503824E-04   1.1929321E+05   -1.6908065E+00
   3.5667785E-04   1.1836764E+05   -1.6902630E+00
   3.5832502E-04   1.1744954E+05   -1.6897202E+00
   3.5997981E-04   1.1653885E+05   -1.6891780E+00
   3.6164223E-04   1.1563551E+05   -1.6886363E+00
   3.6331233E-04   1.1473946E+05   -1.6880953E+00
   3.6499015E-04   1.1385064E+05   -1.6875549E+00
   3.6667571E-04   1.1296898E+05   -1.6870151E+00
   3.6836906E-04   1.1209443E+05   -1.6864760E+00
   3.7007022E-04   1.1122692E+05   -1.6859375E+00
   3.7177925E-04   1.1036641E+05   -1.6853996E+00
   3.7349616E-04   1.0951282E+05   -1.6848623E+00
   3.7522101E-04   1.0866610E+05   -1.6843257E+00
   3.7695382E-04   1.0782619E+05   -1.6837898E+00
   3.7869463E-04   1.0699304E+05   -1.6832545E+00
   3.8044348E-04   1.0616659E+05   -1.6827198E+00
   3.8220041E-04   1.0534679E+05   -1.6821858E+00
   3.8396545E-04   1.0453357E+05   -1.6816525E+00
   3.8573864E-04   1.0372688E+05   -1.6811199E+00
   3.8752002E-04   1.0292667E+05   -1.6805879E+00
   3.8930963E-04   1.0213289E+05   -1.6800566E+00
   3.9110750E-04   1.0134547E+05   -1.6795260E+00
   3.9291368E-04   1.0056437E+05   -1.6789961E+00
   3.9472820E-04   9.9789536E+04   -1.6784668E+00
   3.9655109E-04   9.9020911E+04   -1.6779383E+00
   3.9838241E-04   9.8258446E+04   -1.6774105E+00
   4.0022218E-04   9.7502089E+04   -1.6768834E+00
   4.0207045E-04   9.6751788E+04   -1.6763569E+00
   4.0392725E-04   9.6007495E+04   -1.6758312E+00
   4.0579263E-04   9.5269157E+04   -1.6753062E+00
   4.0766662E-04   9.4536726E+04   -1.6747820E+00
   4.0954927E-04   9.3810153E+04   -1.6742584E+00
   4.1144061E-04   9.3089388E+04   -1.6737356E+00
   4.1334068E-04   9.2374383E+04   -1.6732136E+00
   4.1524953E-04   9.1665091E+04   -1.6726922E+00
   4.1716720E-04   9.0961463E+04   -1.6721716E+00
   4.1909372E-04   9.0263452E+04   -1.6716518E+00
   4.2102914E-04   8.9571012E+04   -1.6711327E+00
   4.2297350E-04   8.8884097E+04   -1.6706143E+00
   4.2492683E-04   8.8202660E+04   -1.6700967E+00
   4.2688919E-04   8.7526656E+04   -1.6695799E+00
   4.2886061E-04   8.6856039E+04   -1.6690638E+00
   4.3084113E-04   8.6190766E+04   -1.6685485E+00
   4.3283080E-04   8.5530791E+04   -1.6680340E+00
   4.3482966E-04   8.4876071E+04   -1.6675203E+00
   4.3683775E-04   8.4226561E+04   -1.6670073E+00
   4.3885511E-04   8.3582220E+04   -1.6664951E+00
   4.4088179E-04   8.2943003E+04   -1.6659837E+00
   4.4291783E-04   8.2308869E+04   -1.6654731E+00
   4.4496327E-04   8.1679774E+04   -1.6649633E+00
   4.4701816E-04   8.1055679E+04   -1.6644543E+00
   4.4908253E-04   8.0436540E+04   -1.6639461E+00
   4.5115644E-04   7.9822317E+04   -1.6634387E+00
   4.5323993E-04   7.9212970E+04   -1.6629321E+00
   4.5533304E-04   7.8608458E+04   -1.6624263E+00
   4.5743582E-04   7.8008740E+04   -1.6619213E+00
   4.5954830E-04   7.7413778E+04   -1.6614171E+00
   4.6167054E-04   7.6823532E+04   -1.6609138E+00
   4.6380259E-04   7.6237963E+04   -1.6604113E+00
   4.6594448E-04   7.5657033E+04   -1.6599096E+00
   4.6809626E-04   7.5080702E+04   -1.6594087E+00
   4.7025797E-04   7.4508934E+04   -1.6589087E+00
   4.7242967E-04   7.3941690E+04   -1.6584096E+00
   4.7461140E-04   7.3378933E+04   -1.6579112E+00
   4.7680321E-04   7.2820626E+04   -1.6574137E+00
   4.7900514E-04   7.2266732E+04   -1.6569171E+00
   4.8121723E-04   7.1717216E+04   -1.6564213E+00
   4.8343954E-04   7.1172041E+04   -1.6559263E+00
   4.8567212E-04   7.0631171E+04   -1.6554323E+00
   4.8791500E-04   7.0094570E+04   -1.6549390E+00
   4.9016825E-04   6.9562204E+04   -1.6544467E+00
   4.9243189E-04   6.9034038E+04   -1.6539552E+00
   4.9470600E-04   6.8510038E+04   -1.6534645E+00
   4.9699060E-04   6.7990168E+04   -1.6529748E+00
   4.9928575E-04   6.7474395E+04   -1.6524859E+00
   5.0159151E-04   6.6962685E+04   -1.6519979E+00
   5.0390791E-04   6.6455006E+04   -1.6515108E+00
   5.0623501E-04   6.5951323E+04   -1.6510245E+00
   5.0857286E-04   6.5451604E+04   -1.6505392E+00
   5.1092150E-04   6.4955817E+04   -1.6500547E+00
   5.1328099E-04   6.4463930E+04   -1.6495711E+00
   5.1565137E-04   6.3975909E+04   -1.6490884E+00
   5.1803270E-04   6.3491724E+04   -1.6486066E+00
   5.2042503E-04   6.3011344E+04   -1.6481258E+00
   5.2282841E-04   6.2534736E+04   -1.6476458E+00
   5.2524289E-04   6.2061871E+04   -1.6471667E+00
   5.2766851E-04   6.1592717E+04   -1.6466885E+00
   5.3010534E-04   6.1127244E+04   -1.6462112E+00
   5.3255342E-04   6.0665421E+04   -1.6457349E+00
   5.3501281E-04   6.0207221E+04   -1.6452594E+00
   5.3748356E-04   5.9752611E+04   -1.6447849E+00
   5.3996571E-04   5.9301564E+04   -1.6443113E+00
   5.4245933E-04   5.8854050E+04   -1.6438386E+00
   5.4496446E-04   5.8410040E+04   -1.6433668E+00
   5.4748117E-04   5.7969506E+04   -1.6428960E+00
   5.5000949E-04   5.7532419E+04   -1.6424261E+00
   5.5254949E-04   5.7098751E+04   -1.6419571E+00
   5.5510123E-04   5.6668474E+04   -1.6414890E+00
   5.5766474E-04   5.6241561E+04   -1.6410219E+00
   5.6024010E-04   5.5817984E+04   -1.6405557E+00
   5.6282734E-04   5.5397716E+04   -1.6400905E+00
   5.6542654E-04   5.4980730E+04   -1.6396262E+00
   5.6803774E-04   5.4566999E+04   -1.6391628E+00
   5.7066099E-04   5.4156497E+04   -1.6387004E+00
   5.7329637E-04   5.3749198E+04   -1.6382389E+00
   5.7594391E-04   5.3345075E+04   -1.6377784E+00
   5.7860368E-04   5.2944103E+04   -1.6373188E+00
   5.8127573E-04   5.2546257E+04   -1.6368602E+00
   5.8396012E-04   5.2151509E+04   -1.6364025E+00
   5.8665691E-04   5.1759837E+04   -1.6359458E+00
   5.8936616E-04   5.1371214E+04   -1.6354901E+00
   5.9208791E-04   5.0985615E+04   -1.6350353E+00
   5.9482223E-04   5.0603017E+04   -1.6345815E+00
   5.9756919E-04   5.0223395E+04   -1.6341286E+00
   6.0032882E-04   4.9846725E+04   -1.6336767E+00
   6.0310120E-04   4.9472982E+04   -1.6332258E+00
   6.0588639E-04   4.9102144E+04   -1.6327758E+00
   6.0868443E-04   4.8734186E+04   -1.6323268E+00
   6.1149540E-04   4.8369086E+04   -1.6318788E+00
   6.1431935E-04   4.8006820E+04   -1.6314317E+00
   6.1715634E-04   4.7647365E+04   -1.6309857E+00
   6.2000644E-04   4.7290699E+04   -1.6305406E+00
   6.2286969E-04   4.6936799E+04   -1.6300964E+00
