#        a       HoverH0(a)       dlogHdloga_of_a(a)
   1.0000000E-04   1.0617883E+06   -1.8480013E+00
   1.0046181E-04   1.0527872E+06   -1.8475134E+00
   1.0092575E-04   1.0438647E+06   -1.8470246E+00
   1.0139184E-04   1.0350201E+06   -1.8465350E+00
   1.0186008E-04   1.0262528E+06   -1.8460445E+00
   1.0233048E-04   1.0175621E+06   -1.8455531E+00
   1.0280305E-04   1.0089473E+06   -1.8450609E+00
   1.0327781E-04   1.0004076E+06   -1.8445677E+00
   1.0375475E-04   9.9194252E+05   -1.8440738E+00
   1.0423390E-04   9.8355128E+05   -1.8435790E+00
   1.0471527E-04   9.7523326E+05   -1.8430833E+00
   1.0519885E-04   9.6698779E+05   -1.8425867E+00
   1.0568467E-04   9.5881423E+05   -1.8420894E+00
   1.0617274E-04   9.5071193E+05   -1.8415911E+00
   1.0666305E-04   9.4268027E+05   -1.8410921E+00
   1.0715563E-04   9.3471862E+05   -1.8405922E+00
   1.0765049E-04   9.2682634E+05   -1.8400914E+00
   1.0814763E-04   9.1900283E+05   -1.8395899E+00
   1.0864707E-04   9.1124746E+05   -1.8390875E+00
   1.0914881E-04   9.0355963E+05   -1.8385842E+00
   1.0965287E-04   8.9593874E+05   -1.8380802E+00
   1.1015926E-04   8.8838419E+05   -1.8375753E+00
   1.1066799E-04   8.8089539E+05   -1.8370696E+00
   1.1117906E-04   8.7347176E+05   -1.8365631E+00
   1.1169250E-04   8.6611271E+05   -1.8360558E+00
   1.1220831E-04   8.5881767E+05   -1.8355477E+00
   1.1272650E-04   8.5158606E+05   -1.8350388E+00
   1.1324708E-04   8.4441734E+05   -1.8345291E+00
   1.1377007E-04   8.3731093E+05   -1.8340186E+00
   1.1429547E-04   8.3026628E+05   -1.8335073E+00
   1.1482330E-04   8.2328284E+05   -1.8329952E+00
   1.1535356E-04   8.1636007E+05   -1.8324824E+00
   1.1588628E-04   8.0949742E+05   -1.8319687E+00
   1.1642145E-04   8.0269436E+05   -1.8314543E+00
   1.1695910E-04   7.9595037E+05   -1.8309391E+00
   1.1749923E-04   7.8926491E+05   -1.8304231E+00
   1.1804185E-04   7.8263746E+05   -1.8299064E+00
   1.1858698E-04   7.7606752E+05   -1.8293889E+00
   1.1913463E-04   7.6955456E+05   -1.8288707E+00
   1.1968481E-04   7.6309808E+05   -1.8283516E+00
   1.2023752E-04   7.5669759E+05   -1.8278319E+00
   1.2079279E-04   7.5035258E+05   -1.8273114E+00
   1.2135063E-04   7.4406255E+05   -1.8267901E+00
   1.2191104E-04   7.3782703E+05   -1.8262682E+00
   1.2247403E-04   7.3164553E+05   -1.8257454E+00
   1.2303963E-04   7.2551756E+05   -1.8252220E+00
   1.2360784E-04   7.1944266E+05   -1.8246978E+00
   1.2417868E-04   7.1342034E+05   -1.8241729E+00
   1.2475215E-04   7.0745015E+05   -1.8236473E+00
   1.2532826E-04   7.0153162E+05   -1.8231210E+00
   1.2590704E-04   6.9566429E+05   -1.8225940E+00
   1.2648850E-04   6.8984771E+05   -1.8220662E+00
   1.2707263E-04   6.8408143E+05   -1.8215378E+00
   1.2765947E-04   6.7836500E+05   -1.8210086E+00
   1.2824901E-04   6.7269798E+05   -1.8204788E+00
   1.2884128E-04   6.6707993E+05   -1.8199483E+00
   1.2943628E-04   6.6151042E+05   -1.8194171E+00
   1.3003403E-04   6.5598902E+05   -1.8188852E+00
   1.3063454E-04   6.5051529E+05   -1.8183526E+00
   1.3123783E-04   6.4508883E+05   -1.8178194E+00
   1.3184390E-04   6.3970920E+05   -1.8172855E+00
   1.3245277E-04   6.3437600E+05   -1.8167509E+00
   1.3306445E-04   6.2908881E+05   -1.8162157E+00
   1.3367895E-04   6.2384722E+05   -1.8156798E+00
   1.3429630E-04   6.1865084E+05   -1.8151433E+00
   1.3491649E-04   6.1349925E+05   -1.8146061E+00
   1.3553955E-04   6.0839207E+05   -1.8140683E+00
   1.3616548E-04   6.0332891E+05   -1.8135298E+00
   1.3679431E-04   5.9830937E+05   -1.8129908E+00
   1.3742604E-04   5.9333306E+05   -1.8124511E+00
   1.3806069E-04   5.8839960E+05   -1.8119107E+00
   1.3869827E-04   5.8350862E+05   -1.8113698E+00
   1.3933879E-04   5.7865974E+05   -1.8108282E+00
   1.3998227E-04   5.7385259E+05   -1.8102861E+00
   1.4062872E-04   5.6908679E+05   -1.8097433E+00
   1.4127816E-04   5.6436198E+05   -1.8091999E+00
   1.4193060E-04   5.5967780E+05   -1.8086560E+00
   1.4258605E-04   5.5503390E+05   -1.8081114E+00
   1.4324453E-04   5.5042990E+05   -1.8075663E+00
   1.4390605E-04   5.4586547E+05   -1.8070206E+00
   1.4457062E-04   5.4134025E+05   -1.8064743E+00
   1.4523826E-04   5.3685390E+05   -1.8059275E+00
   1.4590899E-04   5.3240607E+05   -1.8053801E+00
   1.4658281E-04   5.2799642E+05   -1.8048321E+00
   1.4725974E-04   5.2362462E+05   -1.8042835E+00
   1.4793981E-04   5.1929033E+05   -1.8037345E+00
   1.4862301E-04   5.1499322E+05   -1.8031848E+00
   1.4930936E-04   5.1073297E+05   -1.8026347E+00
   1.4999889E-04   5.0650924E+05   -1.8020840E+00
   1.5069160E-04   5.0232171E+05   -1.8015328E+00
   1.5138751E-04   4.9817007E+05   -1.8009810E+00
   1.5208663E-04   4.9405400E+05   -1.8004287E+00
   1.5278899E-04   4.8997319E+05   -1.7998760E+00
   1.5349458E-04   4.8592732E+05   -1.7993227E+00
   1.5420343E-04   4.8191609E+05   -1.7987689E+00
   1.5491556E-04   4.7793919E+05   -1.7982146E+00
   1.5563098E-04   4.7399632E+05   -1.7976598E+00
   1.5634970E-04   4.7008718E+05   -1.7971045E+00
   1.5707174E-04   4.6621147E+05   -1.7965488E+00
   1.5779711E-04   4.6236890E+05   -1.7959926E+00
   1.5852584E-04   4.5855918E+05   -1.7954359E+00
   1.5925792E-04   4.5478201E+05   -1.7948787E+00
   1.5999339E-04   4.5103712E+05   -1.7943210E+00
   1.6073226E-04   4.4732421E+05   -1.7937630E+00
   1.6147454E-04   4.4364301E+05   -1.7932044E+00
   1.6222024E-04   4.3999323E+05   -1.7926454E+00
   1.6296939E-04   4.3637461E+05   -1.7920860E+00
   1.6372200E-04   4.3278686E+05   -1.7915262E+00
   1.6447809E-04   4.2922972E+05   -1.7909659E+00
   1.6523767E-04   4.2570292E+05   -1.7904052E+00
   1.6600075E-04   4.2220618E+05   -1.7898440E+00
   1.6676736E-04   4.1873925E+05   -1.7892825E+00
   1.6753751E-04   4.1530186E+05   -1.7887206E+00
   1.6831122E-04   4.1189375E+05   -1.7881582E+00
   1.6908849E-04   4.0851468E+05   -1.7875955E+00
   1.6986936E-04   4.0516437E+05   -1.7870323E+00
   1.7065384E-04   4.0184258E+05   -1.7864688E+00
   1.7144193E-04   3.9854907E+05   -1.7859049E+00
   1.7223367E-04   3.9528357E+05   -1.7853406E+00
   1.7302906E-04   3.9204585E+05   -1.7847760E+00
   1.7382813E-04   3.8883566E+05   -1.7842110E+00
   1.7463089E-04   3.8565276E+05   -1.7836457E+00
   1.7543735E-04   3.8249692E+05   -1.7830799E+00
   1.7624754E-04   3.7936788E+05   -1.7825139E+00
   1.7706147E-04   3.7626543E+05   -1.7819475E+00
   1.7787916E-04   3.7318932E+05   -1.7813808E+00
   1.7870062E-04   3.7013933E+05   -1.7808137E+00
   1.7952588E-04   3.6711522E+05   -1.7802463E+00
   1.8035495E-04   3.6411677E+05   -1.7796786E+00
   1.8118785E-04   3.6114376E+05   -1.7791106E+00
   1.8202459E-04   3.5819596E+05   -1.7785423E+00
   1.8286520E-04   3.5527315E+05   -1.7779737E+00
   1.8370969E-04   3.5237511E+05   -1.7774048E+00
   1.8455808E-04   3.4950163E+05   -1.7768356E+00
   1.8541039E-04   3.4665250E+05   -1.7762662E+00
   1.8626663E-04   3.4382749E+05   -1.7756964E+00
   1.8712683E-04   3.4102639E+05   -1.7751264E+00
   1.8799100E-04   3.3824901E+05   -1.7745561E+00
   1.8885917E-04   3.3549513E+05   -1.7739856E+00
   1.8973134E-04   3.3276454E+05   -1.7734148E+00
   1.9060754E-04   3.3005705E+05   -1.7728437E+00
   1.9148778E-04   3.2737244E+05   -1.7722725E+00
   1.9237209E-04   3.2471053E+05   -1.7717009E+00
   1.9326049E-04   3.2207111E+05   -1.7711292E+00
   1.9415299E-04   3.1945399E+05   -1.7705572E+00
   1.9504960E-04   3.1685896E+05   -1.7699850E+00
   1.9595036E-04   3.1428585E+05   -1.7694126E+00
   1.9685528E-04   3.1173446E+05   -1.7688400E+00
   1.9776438E-04   3.0920459E+05   -1.7682672E+00
   1.9867768E-04   3.0669606E+05   -1.7676943E+00
   1.9959519E-04   3.0420869E+05   -1.7671211E+00
   2.0051694E-04   3.0174229E+05   -1.7665477E+00
   2.0144295E-04   2.9929668E+05   -1.7659742E+00
   2.0237324E-04   2.9687167E+05   -1.7654005E+00
   2.0330782E-04   2.9446709E+05   -1.7648266E+00
   2.0424671E-04   2.9208275E+05   -1.7642526E+00
   2.0518995E-04   2.8971849E+05   -1.7636784E+00
   2.0613754E-04   2.8737413E+05   -1.7631041E+00
   2.0708950E-04   2.8504949E+05   -1.7625296E+00
   2.0804586E-04   2.8274441E+05   -1.7619550E+00
   2.0900664E-04   2.8045871E+05   -1.7613803E+00
   2.0997185E-04   2.7819222E+05   -1.7608055E+00
   2.1094152E-04   2.7594478E+05   -1.7602305E+00
   2.1191567E-04   2.7371622E+05   -1.7596554E+00
   2.1289432E-04   2.7150638E+05   -1.7590803E+00
   2.1387749E-04   2.6931510E+05   -1.7585050E+00
   2.1486520E-04   2.6714220E+05   -1.7579297E+00
   2.1585747E-04   2.6498754E+05   -1.7573542E+00
   2.1685432E-04   2.6285096E+05   -1.7567787E+00
   2.1785578E-04   2.6073230E+05   -1.7562031E+00
   2.1886186E-04   2.5863139E+05   -1.7556275E+00
   2.1987259E-04   2.5654810E+05   -1.7550517E+00
   2.2088798E-04   2.5448227E+05   -1.7544760E+00
   2.2190807E-04   2.5243373E+05   -1.7539002E+00
   2.2293286E-04   2.5040236E+05   -1.7533243E+00
   2.2396239E-04   2.4838799E+05   -1.7527484E+00
   2.2499667E-04   2.4639047E+05   -1.7521725E+00
   2.2603573E-04   2.4440967E+05   -1.7515965E+00
   2.2707958E-04   2.4244544E+05   -1.7510206E+00
   2.2812826E-04   2.4049763E+05   -1.7504446E+00
   2.2918178E-04   2.3856611E+05   -1.7498686E+00
   2.3024017E-04   2.3665072E+05   -1.7492926E+00
   2.3130344E-04   2.3475133E+05   -1.7487167E+00
   2.3237162E-04   2.3286781E+05   -1.7481407E+00
   2.3344474E-04   2.3100002E+05   -1.7475648E+00
   2.3452281E-04   2.2914781E+05   -1.7469888E+00
   2.3560586E-04   2.2731106E+05   -1.7464130E+00
   2.3669392E-04   2.2548962E+05   -1.7458371E+00
   2.3778699E-04   2.2368338E+05   -1.7452613E+00
   2.3888512E-04   2.2189219E+05   -1.7446856E+00
   2.3998831E-04   2.2011594E+05   -1.7441099E+00
   2.4109661E-04   2.1835447E+05   -1.7435342E+00
   2.4221001E-04   2.1660768E+05   -1.7429587E+00
   2.4332857E-04   2.1487544E+05   -1.7423832E+00
   2.4445228E-04   2.1315761E+05   -1.7418078E+00
   2.4558119E-04   2.1145407E+05   -1.7412324E+00
   2.4671531E-04   2.0976471E+05   -1.7406572E+00
   2.4785467E-04   2.0808939E+05   -1.7400821E+00
   2.4899928E-04   2.0642800E+05   -1.7395071E+00
   2.5014919E-04   2.0478042E+05   -1.7389321E+00
   2.5130440E-04   2.0314653E+05   -1.7383573E+00
   2.5246495E-04   2.0152621E+05   -1.7377827E+00
   2.5363086E-04   1.9991934E+05   -1.7372081E+00
   2.5480216E-04   1.9832580E+05   -1.7366337E+00
   2.5597886E-04   1.9674549E+05   -1.7360594E+00
   2.5716100E-04   1.9517829E+05   -1.7354853E+00
   2.5834859E-04   1.9362408E+05   -1.7349113E+00
   2.5954168E-04   1.9208276E+05   -1.7343375E+00
   2.6074027E-04   1.9055421E+05   -1.7337639E+00
   2.6194439E-04   1.8903833E+05   -1.7331904E+00
   2.6315408E-04   1.8753500E+05   -1.7326171E+00
   2.6436935E-04   1.8604411E+05   -1.7320440E+00
   2.6559024E-04   1.8456557E+05   -1.7314711E+00
   2.6681676E-04   1.8309926E+05   -1.7308983E+00
   2.6804895E-04   1.8164508E+05   -1.7303258E+00
   2.6928683E-04   1.8020292E+05   -1.7297535E+00
   2.7053042E-04   1.7877268E+05   -1.7291814E+00
   2.7177976E-04   1.7735426E+05   -1.7286095E+00
   2.7303487E-04   1.7594756E+05   -1.7280378E+00
   2.7429577E-04   1.7455248E+05   -1.7274664E+00
   2.7556250E-04   1.7316891E+05   -1.7268952E+00
   2.7683507E-04   1.7179677E+05   -1.7263242E+00
   2.7811353E-04   1.7043594E+05   -1.7257535E+00
   2.7939788E-04   1.6908634E+05   -1.7251831E+00
   2.8068817E-04   1.6774786E+05   -1.7246129E+00
   2.8198442E-04   1.6642042E+05   -1.7240430E+00
   2.8328665E-04   1.6510392E+05   -1.7234733E+00
   2.8459490E-04   1.6379826E+05   -1.7229039E+00
   2.8590919E-04   1.6250335E+05   -1.7223348E+00
   2.8722955E-04   1.6121910E+05   -1.7217660E+00
   2.8855600E-04   1.5994542E+05   -1.7211975E+00
   2.8988859E-04   1.5868222E+05   -1.7206293E+00
   2.9122732E-04   1.5742940E+05   -1.7200614E+00
   2.9257224E-04   1.5618689E+05   -1.7194938E+00
   2.9392337E-04   1.5495458E+05   -1.7189266E+00
   2.9528074E-04   1.5373240E+05   -1.7183596E+00
   2.9664438E-04   1.5252026E+05   -1.7177930E+00
   2.9801431E-04   1.5131808E+05   -1.7172268E+00
   2.9939057E-04   1.5012576E+05   -1.7166608E+00
   3.0077319E-04   1.4894322E+05   -1.7160952E+00
   3.0216219E-04   1.4777038E+05   -1.7155300E+00
   3.0355761E-04   1.4660716E+05   -1.7149651E+00
   3.0495947E-04   1.4545347E+05   -1.7144006E+00
   3.0636780E-04   1.4430924E+05   -1.7138365E+00
   3.0778264E-04   1.4317438E+05   -1.7132727E+00
   3.0920401E-04   1.4204882E+05   -1.7127093E+00
   3.1063195E-04   1.4093247E+05   -1.7121463E+00
   3.1206648E-04   1.3982525E+05   -1.7115837E+00
   3.1350764E-04   1.3872710E+05   -1.7110215E+00
   3.1495545E-04   1.3763792E+05   -1.7104597E+00
   3.1640994E-04   1.3655765E+05   -1.7098983E+00
   3.1787116E-04   1.3548621E+05   -1.7093373E+00
   3.1933912E-04   1.3442352E+05   -1.7087768E+00
   3.2081386E-04   1.3336951E+05   -1.7082166E+00
   3.2229541E-04   1.3232411E+05   -1.7076569E+00
   3.2378381E-04   1.3128724E+05   -1.7070976E+00
   3.2527908E-04   1.3025883E+05   -1.7065388E+00
   3.2678125E-04   1.2923881E+05   -1.7059804E+00
   3.2829036E-04   1.2822711E+05   -1.7054225E+00
   3.2980644E-04   1.2722365E+05   -1.7048650E+00
   3.3132952E-04   1.2622837E+05   -1.7043080E+00
   3.3285963E-04   1.2524119E+05   -1.7037515E+00
   3.3439681E-04   1.2426206E+05   -1.7031954E+00
   3.3594109E-04   1.2329090E+05   -1.7026398E+00
   3.3749250E-04   1.2232764E+05   -1.7020847E+00
   3.3905108E-04   1.2137221E+05   -1.7015301E+00
   3.4061685E-04   1.2042456E+05   -1.7009760E+00
   3.4218986E-04   1.1948461E+05   -1.7004224E+00
   3.4377013E-04   1.1855230E+05   -1.6998692E+00
   3.4535769E-04   1.1762756E+05   -1.6993166E+00
   3.4695259E-04   1.1671033E+05   -1.6987646E+00
   3.4855485E-04   1.1580055E+05   -1.6982130E+00
   3.5016452E-04   1.1489815E+05   -1.6976619E+00
   3.5178161E-04   1.1400308E+05   -1.6971114E+00
   3.5340618E-04   1.1311526E+05   -1.6965615E+00
   3.5503824E-04   1.1223465E+05   -1.6960120E+00
   3.5667785E-04   1.1136117E+05   -1.6954631E+00
   3.5832502E-04   1.1049476E+05   -1.6949148E+00
   3.5997981E-04   1.0963538E+05   -1.6943670E+00
   3.6164223E-04   1.0878295E+05   -1.6938198E+00
   3.6331233E-04   1.0793742E+05   -1.6932731E+00
   3.6499015E-04   1.0709874E+05   -1.6927270E+00
   3.6667571E-04   1.0626684E+05   -1.6921815E+00
   3.6836906E-04   1.0544166E+05   -1.6916366E+00
   3.7007022E-04   1.0462316E+05   -1.6910923E+00
   3.7177925E-04   1.0381127E+05   -1.6905485E+00
   3.7349616E-04   1.0300593E+05   -1.6900053E+00
   3.7522101E-04   1.0220710E+05   -1.6894628E+00
   3.7695382E-04   1.0141472E+05   -1.6889208E+00
   3.7869463E-04   1.0062874E+05   -1.6883795E+00
   3.8044348E-04   9.9849091E+04   -1.6878387E+00
   3.8220041E-04   9.9075732E+04   -1.6872986E+00
   3.8396545E-04   9.8308607E+04   -1.6867591E+00
   3.8573864E-04   9.7547665E+04   -1.6862203E+00
   3.8752002E-04   9.6792852E+04   -1.6856820E+00
   3.8930963E-04   9.6044119E+04   -1.6851444E+00
   3.9110750E-04   9.5301413E+04   -1.6846075E+00
   3.9291368E-04   9.4564684E+04   -1.6840712E+00
   3.9472820E-04   9.3833882E+04   -1.6835355E+00
   3.9655109E-04   9.3108957E+04   -1.6830005E+00
   3.9838241E-04   9.2389861E+04   -1.6824662E+00
   4.0022218E-04   9.1676543E+04   -1.6819325E+00
   4.0207045E-04   9.0968957E+04   -1.6813995E+00
   4.0392725E-04   9.0267054E+04   -1.6808672E+00
   4.0579263E-04   8.9570786E+04   -1.6803355E+00
   4.0766662E-04   8.8880106E+04   -1.6798045E+00
   4.0954927E-04   8.8194968E+04   -1.6792742E+00
   4.1144061E-04   8.7515324E+04   -1.6787446E+00
   4.1334068E-04   8.6841130E+04   -1.6782157E+00
   4.1524953E-04   8.6172340E+04   -1.6776875E+00
   4.1716720E-04   8.5508908E+04   -1.6771600E+00
   4.1909372E-04   8.4850790E+04   -1.6766332E+00
   4.2102914E-04   8.4197941E+04   -1.6761071E+00
   4.2297350E-04   8.3550318E+04   -1.6755818E+00
   4.2492683E-04   8.2907876E+04   -1.6750571E+00
   4.2688919E-04   8.2270573E+04   -1.6745332E+00
   4.2886061E-04   8.1638367E+04   -1.6740100E+00
   4.3084113E-04   8.1011213E+04   -1.6734875E+00
   4.3283080E-04   8.0389071E+04   -1.6729658E+00
   4.3482966E-04   7.9771898E+04   -1.6724448E+00
   4.3683775E-04   7.9159653E+04   -1.6719245E+00
   4.3885511E-04   7.8552296E+04   -1.6714050E+00
   4.4088179E-04   7.7949784E+04   -1.6708863E+00
   4.4291783E-04   7.7352079E+04   -1.6703683E+00
   4.4496327E-04   7.6759140E+04   -1.6698510E+00
   4.4701816E-04   7.6170928E+04   -1.6693345E+00
   4.4908253E-04   7.5587403E+04   -1.6688188E+00
   4.5115644E-04   7.5008526E+04   -1.6683039E+00
   4.5323993E-04   7.4434259E+04   -1.6677897E+00
   4.5533304E-04   7.3864563E+04   -1.6672763E+00
   4.5743582E-04   7.3299401E+04   -1.6667637E+00
   4.5954830E-04   7.2738735E+04   -1.6662519E+00
   4.6167054E-04   7.2182527E+04   -1.6657409E+00
   4.6380259E-04   7.1630742E+04   -1.6652306E+00
   4.6594448E-04   7.1083341E+04   -1.6647212E+00
   4.6809626E-04   7.0540288E+04   -1.6642125E+00
   4.7025797E-04   7.0001549E+04   -1.6637047E+00
   4.7242967E-04   6.9467086E+04   -1.6631977E+00
   4.7461140E-04   6.8936865E+04   -1.6626914E+00
   4.7680321E-04   6.8410850E+04   -1.6621860E+00
   4.7900514E-04   6.7889007E+04   -1.6616814E+00
   4.8121723E-04   6.7371301E+04   -1.6611776E+00
   4.8343954E-04   6.6857699E+04   -1.6606747E+00
   4.8567212E-04   6.6348165E+04   -1.6601726E+00
   4.8791500E-04   6.5842667E+04   -1.6596713E+00
   4.9016825E-04   6.5341170E+04   -1.6591708E+00
   4.9243189E-04   6.4843643E+04   -1.6586712E+00
   4.9470600E-04   6.4350052E+04   -1.6581724E+00
   4.9699060E-04   6.3860366E+04   -1.6576744E+00
   4.9928575E-04   6.3374550E+04   -1.6571773E+00
   5.0159151E-04   6.2892575E+04   -1.6566811E+00
   5.0390791E-04   6.2414407E+04   -1.6561857E+00
   5.0623501E-04   6.1940016E+04   -1.6556911E+00
   5.0857286E-04   6.1469371E+04   -1.6551974E+00
   5.1092150E-04   6.1002441E+04   -1.6547046E+00
   5.1328099E-04   6.0539195E+04   -1.6542127E+00
   5.1565137E-04   6.0079603E+04   -1.6537216E+00
   5.1803270E-04   5.9623635E+04   -1.6532313E+00
   5.2042503E-04   5.9171260E+04   -1.6527420E+00
   5.2282841E-04   5.8722451E+04   -1.6522535E+00
   5.2524289E-04   5.8277176E+04   -1.6517659E+00
   5.2766851E-04   5.7835408E+04   -1.6512792E+00
   5.3010534E-04   5.7397117E+04   -1.6507933E+00
   5.3255342E-04   5.6962275E+04   -1.6503084E+00
   5.3501281E-04   5.6530853E+04   -1.6498243E+00
   5.3748356E-04   5.6102824E+04   -1.6493412E+00
   5.3996571E-04   5.5678160E+04   -1.6488589E+00
   5.4245933E-04   5.5256833E+04   -1.6483775E+00
   5.4496446E-04   5.4838815E+04   -1.6478970E+00
   5.4748117E-04   5.4424081E+04   -1.6474175E+00
   5.5000949E-04   5.4012602E+04   -1.6469388E+00
   5.5254949E-04   5.3604352E+04   -1.6464610E+00
   5.5510123E-04   5.3199305E+04   -1.6459842E+00
   5.5766474E-04   5.2797435E+04   -1.6455083E+00
   5.6024010E-04   5.2398715E+04   -1.6450332E+00
   5.6282734E-04   5.2003120E+04   -1.6445591E+00
   5.6542654E-04   5.1610624E+04   -1.6440859E+00
   5.6803774E-04   5.1221202E+04   -1.6436137E+00
   5.7066099E-04   5.0834828E+04   -1.6431423E+00
   5.7329637E-04   5.0451479E+04   -1.6426719E+00
   5.7594391E-04   5.0071129E+04   -1.6422024E+00
   5.7860368E-04   4.9693754E+04   -1.6417339E+00
   5.8127573E-04   4.9319330E+04   -1.6412662E+00
   5.8396012E-04   4.8947832E+04   -1.6407996E+00
   5.8665691E-04   4.8579236E+04   -1.6403338E+00
   5.8936616E-04   4.8213520E+04   -1.6398690E+00
   5.9208791E-04   4.7850659E+04   -1.6394051E+00
   5.9482223E-04   4.7490631E+04   -1.6389422E+00
   5.9756919E-04   4.7133412E+04   -1.6384802E+00
   6.0032882E-04   4.6778979E+04   -1.6380192E+00
   6.0310120E-04   4.6427310E+04   -1.6375591E+00
   6.0588639E-04   4.6078382E+04   -1.6371000E+00
   6.0868443E-04   4.5732174E+04   -1.6366418E+00
   6.1149540E-04   4.5388662E+04   -1.6361846E+00
   6.1431935E-04   4.5047825E+04   -1.6357283E+00
   6.1715634E-04   4.4709642E+04   -1.6352730E+00
   6.2000644E-04   4.4374091E+04   -1.6348187E+00
   6.2286969E-04   4.4041150E+04   -1.6343653E+00
