#        a       HoverH0(a)       dlogHdloga_of_a(a)
   1.0000000E-04   1.1457875E+06   -1.8988614E+00
   1.0046181E-04   1.1358077E+06   -1.8984892E+00
   1.0092575E-04   1.1259168E+06   -1.8981159E+00
   1.0139184E-04   1.1161140E+06   -1.8977416E+00
   1.0186008E-04   1.1063984E+06   -1.8973663E+00
   1.0233048E-04   1.0967693E+06   -1.8969899E+00
   1.0280305E-04   1.0872259E+06   -1.8966126E+00
   1.0327781E-04   1.0777674E+06   -1.8962342E+00
   1.0375475E-04   1.0683931E+06   -1.8958548E+00
   1.0423390E-04   1.0591021E+06   -1.8954744E+00
   1.0471527E-04   1.0498938E+06   -1.8950929E+00
   1.0519885E-04   1.0407674E+06   -1.8947104E+00
   1.0568467E-04   1.0317221E+06   -1.8943270E+00
   1.0617274E-04   1.0227573E+06   -1.8939424E+00
   1.0666305E-04   1.0138721E+06   -1.8935569E+00
   1.0715563E-04   1.0050659E+06   -1.8931704E+00
   1.0765049E-04   9.9633804E+05   -1.8927828E+00
   1.0814763E-04   9.8768769E+05   -1.8923942E+00
   1.0864707E-04   9.7911420E+05   -1.8920046E+00
   1.0914881E-04   9.7061688E+05   -1.8916139E+00
   1.0965287E-04   9.6219503E+05   -1.8912223E+00
   1.1015926E-04   9.5384799E+05   -1.8908296E+00
   1.1066799E-04   9.4557506E+05   -1.8904359E+00
   1.1117906E-04   9.3737559E+05   -1.8900412E+00
   1.1169250E-04   9.2924892E+05   -1.8896454E+00
   1.1220831E-04   9.2119438E+05   -1.8892487E+00
   1.1272650E-04   9.1321132E+05   -1.8888509E+00
   1.1324708E-04   9.0529911E+05   -1.8884521E+00
   1.1377007E-04   8.9745711E+05   -1.8880523E+00
   1.1429547E-04   8.8968468E+05   -1.8876514E+00
   1.1482330E-04   8.8198119E+05   -1.8872496E+00
   1.1535356E-04   8.7434602E+05   -1.8868467E+00
   1.1588628E-04   8.6677856E+05   -1.8864428E+00
   1.1642145E-04   8.5927820E+05   -1.8860379E+00
   1.1695910E-04   8.5184433E+05   -1.8856319E+00
   1.1749923E-04   8.4447635E+05   -1.8852250E+00
   1.1804185E-04   8.3717367E+05   -1.8848170E+00
   1.1858698E-04   8.2993571E+05   -1.8844081E+00
   1.1913463E-04   8.2276188E+05   -1.8839981E+00
   1.1968481E-04   8.1565159E+05   -1.8835871E+00
   1.2023752E-04   8.0860429E+05   -1.8831751E+00
   1.2079279E-04   8.0161941E+05   -1.8827620E+00
   1.2135063E-04   7.9469637E+05   -1.8823480E+00
   1.2191104E-04   7.8783463E+05   -1.8819329E+00
   1.2247403E-04   7.8103363E+05   -1.8815169E+00
   1.2303963E-04   7.7429282E+05   -1.8810998E+00
   1.2360784E-04   7.6761167E+05   -1.8806817E+00
   1.2417868E-04   7.6098964E+05   -1.8802626E+00
   1.2475215E-04   7.5442619E+05   -1.8798426E+00
   1.2532826E-04   7.4792080E+05   -1.8794214E+00
   1.2590704E-04   7.4147295E+05   -1.8789993E+00
   1.2648850E-04   7.3508211E+05   -1.8785762E+00
   1.2707263E-04   7.2874778E+05   -1.8781521E+00
   1.2765947E-04   7.2246945E+05   -1.8777270E+00
   1.2824901E-04   7.1624662E+05   -1.8773009E+00
   1.2884128E-04   7.1007878E+05   -1.8768737E+00
   1.2943628E-04   7.0396543E+05   -1.8764456E+00
   1.3003403E-04   6.9790610E+05   -1.8760165E+00
   1.3063454E-04   6.9190030E+05   -1.8755864E+00
   1.3123783E-04   6.8594753E+05   -1.8751553E+00
   1.3184390E-04   6.8004734E+05   -1.8747231E+00
   1.3245277E-04   6.7419924E+05   -1.8742900E+00
   1.3306445E-04   6.6840276E+05   -1.8738559E+00
   1.3367895E-04   6.6265745E+05   -1.8734208E+00
   1.3429630E-04   6.5696283E+05   -1.8729847E+00
   1.3491649E-04   6.5131847E+05   -1.8725477E+00
   1.3553955E-04   6.4572390E+05   -1.8721096E+00
   1.3616548E-04   6.4017869E+05   -1.8716706E+00
   1.3679431E-04   6.3468238E+05   -1.8712305E+00
   1.3742604E-04   6.2923453E+05   -1.8707895E+00
   1.3806069E-04   6.2383472E+05   -1.8703475E+00
   1.3869827E-04   6.1848250E+05   -1.8699045E+00
   1.3933879E-04   6.1317746E+05   -1.8694605E+00
   1.3998227E-04   6.0791916E+05   -1.8690156E+00
   1.4062872E-04   6.0270720E+05   -1.8685697E+00
   1.4127816E-04   5.9754115E+05   -1.8681228E+00
   1.4193060E-04   5.9242060E+05   -1.8676749E+00
   1.4258605E-04   5.8734514E+05   -1.8672261E+00
   1.4324453E-04   5.8231437E+05   -1.8667763E+00
   1.4390605E-04   5.7732789E+05   -1.8663255E+00
   1.4457062E-04   5.7238530E+05   -1.8658737E+00
   1.4523826E-04   5.6748621E+05   -1.8654210E+00
   1.4590899E-04   5.6263022E+05   -1.8649673E+00
   1.4658281E-04   5.5781696E+05   -1.8645127E+00
   1.4725974E-04   5.5304603E+05   -1.8640571E+00
   1.4793981E-04   5.4831706E+05   -1.8636005E+00
   1.4862301E-04   5.4362967E+05   -1.8631430E+00
   1.4930936E-04   5.3898348E+05   -1.8626845E+00
   1.4999889E-04   5.3437814E+05   -1.8622251E+00
   1.5069160E-04   5.2981327E+05   -1.8617647E+00
   1.5138751E-04   5.2528851E+05   -1.8613034E+00
   1.5208663E-04   5.2080350E+05   -1.8608411E+00
   1.5278899E-04   5.1635788E+05   -1.8603779E+00
   1.5349458E-04   5.1195131E+05   -1.8599137E+00
   1.5420343E-04   5.0758343E+05   -1.8594486E+00
   1.5491556E-04   5.0325390E+05   -1.8589825E+00
   1.5563098E-04   4.9896236E+05   -1.8585155E+00
   1.5634970E-04   4.9470849E+05   -1.8580476E+00
   1.5707174E-04   4.9049195E+05   -1.8575788E+00
   1.5779711E-04   4.8631239E+05   -1.8571090E+00
   1.5852584E-04   4.8216949E+05   -1.8566383E+00
   1.5925792E-04   4.7806293E+05   -1.8561666E+00
   1.5999339E-04   4.7399237E+05   -1.8556941E+00
   1.6073226E-04   4.6995749E+05   -1.8552206E+00
   1.6147454E-04   4.6595798E+05   -1.8547462E+00
   1.6222024E-04   4.6199352E+05   -1.8542709E+00
   1.6296939E-04   4.5806379E+05   -1.8537946E+00
   1.6372200E-04   4.5416848E+05   -1.8533175E+00
   1.6447809E-04   4.5030730E+05   -1.8528394E+00
   1.6523767E-04   4.4647992E+05   -1.8523605E+00
   1.6600075E-04   4.4268605E+05   -1.8518806E+00
   1.6676736E-04   4.3892539E+05   -1.8513998E+00
   1.6753751E-04   4.3519764E+05   -1.8509181E+00
   1.6831122E-04   4.3150251E+05   -1.8504356E+00
   1.6908849E-04   4.2783971E+05   -1.8499521E+00
   1.6986936E-04   4.2420894E+05   -1.8494678E+00
   1.7065384E-04   4.2060993E+05   -1.8489825E+00
   1.7144193E-04   4.1704238E+05   -1.8484964E+00
   1.7223367E-04   4.1350602E+05   -1.8480094E+00
   1.7302906E-04   4.1000056E+05   -1.8475215E+00
   1.7382813E-04   4.0652574E+05   -1.8470327E+00
   1.7463089E-04   4.0308128E+05   -1.8465431E+00
   1.7543735E-04   3.9966690E+05   -1.8460525E+00
   1.7624754E-04   3.9628235E+05   -1.8455611E+00
   1.7706147E-04   3.9292734E+05   -1.8450689E+00
   1.7787916E-04   3.8960162E+05   -1.8445758E+00
   1.7870062E-04   3.8630493E+05   -1.8440818E+00
   1.7952588E-04   3.8303701E+05   -1.8435870E+00
   1.8035495E-04   3.7979760E+05   -1.8430913E+00
   1.8118785E-04   3.7658645E+05   -1.8425947E+00
   1.8202459E-04   3.7340330E+05   -1.8420973E+00
   1.8286520E-04   3.7024791E+05   -1.8415991E+00
   1.8370969E-04   3.6712002E+05   -1.8411000E+00
   1.8455808E-04   3.6401940E+05   -1.8406001E+00
   1.8541039E-04   3.6094580E+05   -1.8400993E+00
   1.8626663E-04   3.5789897E+05   -1.8395978E+00
   1.8712683E-04   3.5487869E+05   -1.8390953E+00
   1.8799100E-04   3.5188471E+05   -1.8385921E+00
   1.8885917E-04   3.4891679E+05   -1.8380880E+00
   1.8973134E-04   3.4597472E+05   -1.8375832E+00
   1.9060754E-04   3.4305825E+05   -1.8370775E+00
   1.9148778E-04   3.4016715E+05   -1.8365709E+00
   1.9237209E-04   3.3730121E+05   -1.8360636E+00
   1.9326049E-04   3.3446020E+05   -1.8355555E+00
   1.9415299E-04   3.3164390E+05   -1.8350466E+00
   1.9504960E-04   3.2885208E+05   -1.8345368E+00
   1.9595036E-04   3.2608453E+05   -1.8340263E+00
   1.9685528E-04   3.2334103E+05   -1.8335150E+00
   1.9776438E-04   3.2062137E+05   -1.8330029E+00
   1.9867768E-04   3.1792534E+05   -1.8324900E+00
   1.9959519E-04   3.1525272E+05   -1.8319763E+00
   2.0051694E-04   3.1260331E+05   -1.8314619E+00
   2.0144295E-04   3.0997690E+05   -1.8309467E+00
   2.0237324E-04   3.0737329E+05   -1.8304307E+00
   2.0330782E-04   3.0479227E+05   -1.8299139E+00
   2.0424671E-04   3.0223364E+05   -1.8293964E+00
   2.0518995E-04   2.9969721E+05   -1.8288782E+00
   2.0613754E-04   2.9718277E+05   -1.8283591E+00
   2.0708950E-04   2.9469014E+05   -1.8278393E+00
   2.0804586E-04   2.9221911E+05   -1.8273188E+00
   2.0900664E-04   2.8976950E+05   -1.8267976E+00
   2.0997185E-04   2.8734111E+05   -1.8262756E+00
   2.1094152E-04   2.8493376E+05   -1.8257528E+00
   2.1191567E-04   2.8254726E+05   -1.8252293E+00
   2.1289432E-04   2.8018143E+05   -1.8247051E+00
   2.1387749E-04   2.7783608E+05   -1.8241802E+00
   2.1486520E-04   2.7551102E+05   -1.8236546E+00
   2.1585747E-04   2.7320609E+05   -1.8231282E+00
   2.1685432E-04   2.7092109E+05   -1.8226012E+00
   2.1785578E-04   2.6865586E+05   -1.8220734E+00
   2.1886186E-04   2.6641022E+05   -1.8215449E+00
   2.1987259E-04   2.6418399E+05   -1.8210158E+00
   2.2088798E-04   2.6197700E+05   -1.8204859E+00
   2.2190807E-04   2.5978909E+05   -1.8199553E+00
   2.2293286E-04   2.5762008E+05   -1.8194241E+00
   2.2396239E-04   2.5546980E+05   -1.8188922E+00
   2.2499667E-04   2.5333810E+05   -1.8183596E+00
   2.2603573E-04   2.5122479E+05   -1.8178263E+00
   2.2707958E-04   2.4912973E+05   -1.8172924E+00
   2.2812826E-04   2.4705275E+05   -1.8167578E+00
   2.2918178E-04   2.4499369E+05   -1.8162225E+00
   2.3024017E-04   2.4295238E+05   -1.8156866E+00
   2.3130344E-04   2.4092869E+05   -1.8151501E+00
   2.3237162E-04   2.3892243E+05   -1.8146129E+00
   2.3344474E-04   2.3693348E+05   -1.8140750E+00
   2.3452281E-04   2.3496166E+05   -1.8135365E+00
   2.3560586E-04   2.3300683E+05   -1.8129974E+00
   2.3669392E-04   2.3106884E+05   -1.8124577E+00
   2.3778699E-04   2.2914754E+05   -1.8119173E+00
   2.3888512E-04   2.2724278E+05   -1.8113764E+00
   2.3998831E-04   2.2535441E+05   -1.8108348E+00
   2.4109661E-04   2.2348230E+05   -1.8102926E+00
   2.4221001E-04   2.2162629E+05   -1.8097498E+00
   2.4332857E-04   2.1978625E+05   -1.8092064E+00
   2.4445228E-04   2.1796202E+05   -1.8086624E+00
   2.4558119E-04   2.1615348E+05   -1.8081178E+00
   2.4671531E-04   2.1436049E+05   -1.8075726E+00
   2.4785467E-04   2.1258290E+05   -1.8070269E+00
   2.4899928E-04   2.1082059E+05   -1.8064806E+00
   2.5014919E-04   2.0907341E+05   -1.8059337E+00
   2.5130440E-04   2.0734123E+05   -1.8053862E+00
   2.5246495E-04   2.0562392E+05   -1.8048382E+00
   2.5363086E-04   2.0392136E+05   -1.8042896E+00
   2.5480216E-04   2.0223340E+05   -1.8037405E+00
   2.5597886E-04   2.0055992E+05   -1.8031908E+00
   2.5716100E-04   1.9890079E+05   -1.8026406E+00
   2.5834859E-04   1.9725589E+05   -1.8020899E+00
   2.5954168E-04   1.9562508E+05   -1.8015386E+00
   2.6074027E-04   1.9400825E+05   -1.8009868E+00
   2.6194439E-04   1.9240528E+05   -1.8004345E+00
   2.6315408E-04   1.9081604E+05   -1.7998817E+00
   2.6436935E-04   1.8924040E+05   -1.7993284E+00
   2.6559024E-04   1.8767825E+05   -1.7987745E+00
   2.6681676E-04   1.8612948E+05   -1.7982202E+00
   2.6804895E-04   1.8459396E+05   -1.7976654E+00
   2.6928683E-04   1.8307157E+05   -1.7971101E+00
   2.7053042E-04   1.8156220E+05   -1.7965543E+00
   2.7177976E-04   1.8006574E+05   -1.7959980E+00
   2.7303487E-04   1.7858207E+05   -1.7954412E+00
   2.7429577E-04   1.7711108E+05   -1.7948840E+00
   2.7556250E-04   1.7565266E+05   -1.7943263E+00
   2.7683507E-04   1.7420669E+05   -1.7937682E+00
   2.7811353E-04   1.7277308E+05   -1.7932096E+00
   2.7939788E-04   1.7135170E+05   -1.7926506E+00
   2.8068817E-04   1.6994245E+05   -1.7920911E+00
   2.8198442E-04   1.6854523E+05   -1.7915312E+00
   2.8328665E-04   1.6715993E+05   -1.7909709E+00
   2.8459490E-04   1.6578644E+05   -1.7904101E+00
   2.8590919E-04   1.6442466E+05   -1.7898489E+00
   2.8722955E-04   1.6307449E+05   -1.7892873E+00
   2.8855600E-04   1.6173582E+05   -1.7887253E+00
   2.8988859E-04   1.6040856E+05   -1.7881629E+00
   2.9122732E-04   1.5909260E+05   -1.7876001E+00
   2.9257224E-04   1.5778785E+05   -1.7870369E+00
   2.9392337E-04   1.5649421E+05   -1.7864734E+00
   2.9528074E-04   1.5521157E+05   -1.7859094E+00
   2.9664438E-04   1.5393985E+05   -1.7853451E+00
   2.9801431E-04   1.5267894E+05   -1.7847804E+00
   2.9939057E-04   1.5142876E+05   -1.7842153E+00
   3.0077319E-04   1.5018920E+05   -1.7836499E+00
   3.0216219E-04   1.4896018E+05   -1.7830841E+00
   3.0355761E-04   1.4774160E+05   -1.7825180E+00
   3.0495947E-04   1.4653338E+05   -1.7819516E+00
   3.0636780E-04   1.4533541E+05   -1.7813848E+00
   3.0778264E-04   1.4414761E+05   -1.7808177E+00
   3.0920401E-04   1.4296990E+05   -1.7802502E+00
   3.1063195E-04   1.4180217E+05   -1.7796825E+00
   3.1206648E-04   1.4064436E+05   -1.7791144E+00
   3.1350764E-04   1.3949636E+05   -1.7785460E+00
   3.1495545E-04   1.3835809E+05   -1.7779774E+00
   3.1640994E-04   1.3722948E+05   -1.7774084E+00
   3.1787116E-04   1.3611042E+05   -1.7768392E+00
   3.1933912E-04   1.3500085E+05   -1.7762696E+00
   3.2081386E-04   1.3390067E+05   -1.7756998E+00
   3.2229541E-04   1.3280981E+05   -1.7751297E+00
   3.2378381E-04   1.3172818E+05   -1.7745594E+00
   3.2527908E-04   1.3065570E+05   -1.7739888E+00
   3.2678125E-04   1.2959229E+05   -1.7734179E+00
   3.2829036E-04   1.2853788E+05   -1.7728468E+00
   3.2980644E-04   1.2749238E+05   -1.7722754E+00
   3.3132952E-04   1.2645572E+05   -1.7717039E+00
   3.3285963E-04   1.2542782E+05   -1.7711320E+00
   3.3439681E-04   1.2440860E+05   -1.7705600E+00
   3.3594109E-04   1.2339799E+05   -1.7699878E+00
   3.3749250E-04   1.2239591E+05   -1.7694153E+00
   3.3905108E-04   1.2140229E+05   -1.7688426E+00
   3.4061685E-04   1.2041706E+05   -1.7682697E+00
   3.4218986E-04   1.1944013E+05   -1.7676967E+00
   3.4377013E-04   1.1847145E+05   -1.7671234E+00
   3.4535769E-04   1.1751093E+05   -1.7665500E+00
   3.4695259E-04   1.1655850E+05   -1.7659764E+00
   3.4855485E-04   1.1561410E+05   -1.7654026E+00
   3.5016452E-04   1.1467766E+05   -1.7648286E+00
   3.5178161E-04   1.1374910E+05   -1.7642545E+00
   3.5340618E-04   1.1282836E+05   -1.7636803E+00
   3.5503824E-04   1.1191536E+05   -1.7631059E+00
   3.5667785E-04   1.1101005E+05   -1.7625314E+00
   3.5832502E-04   1.1011236E+05   -1.7619567E+00
   3.5997981E-04   1.0922221E+05   -1.7613819E+00
   3.6164223E-04   1.0833955E+05   -1.7608070E+00
   3.6331233E-04   1.0746430E+05   -1.7602319E+00
   3.6499015E-04   1.0659641E+05   -1.7596568E+00
   3.6667571E-04   1.0573580E+05   -1.7590815E+00
   3.6836906E-04   1.0488242E+05   -1.7585062E+00
   3.7007022E-04   1.0403621E+05   -1.7579307E+00
   3.7177925E-04   1.0319709E+05   -1.7573552E+00
   3.7349616E-04   1.0236502E+05   -1.7567796E+00
   3.7522101E-04   1.0153992E+05   -1.7562039E+00
   3.7695382E-04   1.0072175E+05   -1.7556282E+00
   3.7869463E-04   9.9910426E+04   -1.7550524E+00
   3.8044348E-04   9.9105904E+04   -1.7544765E+00
   3.8220041E-04   9.8308121E+04   -1.7539006E+00
   3.8396545E-04   9.7517019E+04   -1.7533247E+00
   3.8573864E-04   9.6732539E+04   -1.7527487E+00
   3.8752002E-04   9.5954625E+04   -1.7521727E+00
   3.8930963E-04   9.5183220E+04   -1.7515967E+00
   3.9110750E-04   9.4418267E+04   -1.7510206E+00
   3.9291368E-04   9.3659709E+04   -1.7504445E+00
   3.9472820E-04   9.2907493E+04   -1.7498685E+00
   3.9655109E-04   9.2161563E+04   -1.7492924E+00
   3.9838241E-04   9.1421864E+04   -1.7487163E+00
   4.0022218E-04   9.0688343E+04   -1.7481403E+00
   4.0207045E-04   8.9960946E+04   -1.7475642E+00
   4.0392725E-04   8.9239620E+04   -1.7469882E+00
   4.0579263E-04   8.8524313E+04   -1.7464123E+00
   4.0766662E-04   8.7814972E+04   -1.7458363E+00
   4.0954927E-04   8.7111547E+04   -1.7452604E+00
   4.1144061E-04   8.6413986E+04   -1.7446846E+00
   4.1334068E-04   8.5722237E+04   -1.7441088E+00
   4.1524953E-04   8.5036252E+04   -1.7435330E+00
   4.1716720E-04   8.4355980E+04   -1.7429574E+00
   4.1909372E-04   8.3681372E+04   -1.7423818E+00
   4.2102914E-04   8.3012379E+04   -1.7418063E+00
   4.2297350E-04   8.2348953E+04   -1.7412308E+00
   4.2492683E-04   8.1691045E+04   -1.7406555E+00
   4.2688919E-04   8.1038609E+04   -1.7400803E+00
   4.2886061E-04   8.0391596E+04   -1.7395052E+00
   4.3084113E-04   7.9749960E+04   -1.7389301E+00
   4.3283080E-04   7.9113656E+04   -1.7383552E+00
   4.3482966E-04   7.8482635E+04   -1.7377804E+00
   4.3683775E-04   7.7856854E+04   -1.7372058E+00
   4.3885511E-04   7.7236268E+04   -1.7366313E+00
   4.4088179E-04   7.6620830E+04   -1.7360569E+00
   4.4291783E-04   7.6010498E+04   -1.7354827E+00
   4.4496327E-04   7.5405227E+04   -1.7349086E+00
   4.4701816E-04   7.4804973E+04   -1.7343347E+00
   4.4908253E-04   7.4209694E+04   -1.7337609E+00
   4.5115644E-04   7.3619346E+04   -1.7331873E+00
   4.5323993E-04   7.3033888E+04   -1.7326139E+00
   4.5533304E-04   7.2453277E+04   -1.7320407E+00
   4.5743582E-04   7.1877472E+04   -1.7314676E+00
   4.5954830E-04   7.1306431E+04   -1.7308948E+00
   4.6167054E-04   7.0740113E+04   -1.7303222E+00
   4.6380259E-04   7.0178479E+04   -1.7297497E+00
   4.6594448E-04   6.9621487E+04   -1.7291775E+00
   4.6809626E-04   6.9069097E+04   -1.7286055E+00
   4.7025797E-04   6.8521271E+04   -1.7280337E+00
   4.7242967E-04   6.7977969E+04   -1.7274621E+00
   4.7461140E-04   6.7439153E+04   -1.7268908E+00
   4.7680321E-04   6.6904783E+04   -1.7263198E+00
   4.7900514E-04   6.6374822E+04   -1.7257489E+00
   4.8121723E-04   6.5849232E+04   -1.7251784E+00
   4.8343954E-04   6.5327976E+04   -1.7246081E+00
   4.8567212E-04   6.4811017E+04   -1.7240380E+00
   4.8791500E-04   6.4298317E+04   -1.7234682E+00
   4.9016825E-04   6.3789840E+04   -1.7228987E+00
   4.9243189E-04   6.3285551E+04   -1.7223295E+00
   4.9470600E-04   6.2785412E+04   -1.7217606E+00
   4.9699060E-04   6.2289390E+04   -1.7211920E+00
   4.9928575E-04   6.1797447E+04   -1.7206236E+00
   5.0159151E-04   6.1309551E+04   -1.7200556E+00
   5.0390791E-04   6.0825666E+04   -1.7194879E+00
   5.0623501E-04   6.0345757E+04   -1.7189205E+00
   5.0857286E-04   5.9869792E+04   -1.7183534E+00
   5.1092150E-04   5.9397736E+04   -1.7177867E+00
   5.1328099E-04   5.8929556E+04   -1.7172203E+00
   5.1565137E-04   5.8465218E+04   -1.7166542E+00
   5.1803270E-04   5.8004691E+04   -1.7160885E+00
   5.2042503E-04   5.7547941E+04   -1.7155231E+00
   5.2282841E-04   5.7094936E+04   -1.7149581E+00
   5.2524289E-04   5.6645645E+04   -1.7143935E+00
   5.2766851E-04   5.6200035E+04   -1.7138292E+00
   5.3010534E-04   5.5758076E+04   -1.7132653E+00
   5.3255342E-04   5.5319736E+04   -1.7127018E+00
   5.3501281E-04   5.4884984E+04   -1.7121386E+00
   5.3748356E-04   5.4453790E+04   -1.7115759E+00
   5.3996571E-04   5.4026124E+04   -1.7110135E+00
   5.4245933E-04   5.3601956E+04   -1.7104516E+00
   5.4496446E-04   5.3181255E+04   -1.7098901E+00
   5.4748117E-04   5.2763993E+04   -1.7093289E+00
   5.5000949E-04   5.2350140E+04   -1.7087682E+00
   5.5254949E-04   5.1939667E+04   -1.7082080E+00
   5.5510123E-04   5.1532546E+04   -1.7076481E+00
   5.5766474E-04   5.1128747E+04   -1.7070887E+00
   5.6024010E-04   5.0728244E+04   -1.7065297E+00
   5.6282734E-04   5.0331007E+04   -1.7059712E+00
   5.6542654E-04   4.9937009E+04   -1.7054131E+00
   5.6803774E-04   4.9546223E+04   -1.7048555E+00
   5.7066099E-04   4.9158621E+04   -1.7042983E+00
   5.7329637E-04   4.8774177E+04   -1.7037416E+00
   5.7594391E-04   4.8392863E+04   -1.7031854E+00
   5.7860368E-04   4.8014654E+04   -1.7026297E+00
   5.8127573E-04   4.7639522E+04   -1.7020744E+00
   5.8396012E-04   4.7267442E+04   -1.7015197E+00
   5.8665691E-04   4.6898387E+04   -1.7009654E+00
   5.8936616E-04   4.6532333E+04   -1.7004116E+00
   5.9208791E-04   4.6169254E+04   -1.6998584E+00
   5.9482223E-04   4.5809125E+04   -1.6993056E+00
   5.9756919E-04   4.5451920E+04   -1.6987533E+00
   6.0032882E-04   4.5097616E+04   -1.6982016E+00
   6.0310120E-04   4.4746187E+04   -1.6976504E+00
   6.0588639E-04   4.4397609E+04   -1.6970998E+00
   6.0868443E-04   4.4051858E+04   -1.6965496E+00
   6.1149540E-04   4.3708911E+04   -1.6960000E+00
   6.1431935E-04   4.3368744E+04   -1.6954510E+00
   6.1715634E-04   4.3031332E+04   -1.6949025E+00
   6.2000644E-04   4.2696654E+04   -1.6943545E+00
   6.2286969E-04   4.2364685E+04   -1.6938071E+00
