#        a       HoverH0(a)       dlogHdloga_of_a(a)
   1.0000000E-04   1.1962125E+06   -1.8734832E+00
   1.0046181E-04   1.1859324E+06   -1.8730472E+00
   1.0092575E-04   1.1757430E+06   -1.8726103E+00
   1.0139184E-04   1.1656435E+06   -1.8721724E+00
   1.0186008E-04   1.1556331E+06   -1.8717335E+00
   1.0233048E-04   1.1457110E+06   -1.8712936E+00
   1.0280305E-04   1.1358764E+06   -1.8708528E+00
   1.0327781E-04   1.1261284E+06   -1.8704109E+00
   1.0375475E-04   1.1164665E+06   -1.8699681E+00
   1.0423390E-04   1.1068896E+06   -1.8695243E+00
   1.0471527E-04   1.0973972E+06   -1.8690795E+00
   1.0519885E-04   1.0879884E+06   -1.8686337E+00
   1.0568467E-04   1.0786625E+06   -1.8681869E+00
   1.0617274E-04   1.0694187E+06   -1.8677392E+00
   1.0666305E-04   1.0602563E+06   -1.8672905E+00
   1.0715563E-04   1.0511746E+06   -1.8668409E+00
   1.0765049E-04   1.0421729E+06   -1.8663902E+00
   1.0814763E-04   1.0332504E+06   -1.8659386E+00
   1.0864707E-04   1.0244064E+06   -1.8654861E+00
   1.0914881E-04   1.0156403E+06   -1.8650325E+00
   1.0965287E-04   1.0069512E+06   -1.8645780E+00
   1.1015926E-04   9.9833860E+05   -1.8641226E+00
   1.1066799E-04   9.8980173E+05   -1.8636662E+00
   1.1117906E-04   9.8133992E+05   -1.8632088E+00
   1.1169250E-04   9.7295251E+05   -1.8627505E+00
   1.1220831E-04   9.6463883E+05   -1.8622912E+00
   1.1272650E-04   9.5639820E+05   -1.8618310E+00
   1.1324708E-04   9.4822999E+05   -1.8613698E+00
   1.1377007E-04   9.4013355E+05   -1.8609077E+00
   1.1429547E-04   9.3210822E+05   -1.8604446E+00
   1.1482330E-04   9.2415337E+05   -1.8599806E+00
   1.1535356E-04   9.1626837E+05   -1.8595156E+00
   1.1588628E-04   9.0845259E+05   -1.8590497E+00
   1.1642145E-04   9.0070542E+05   -1.8585829E+00
   1.1695910E-04   8.9302624E+05   -1.8581151E+00
   1.1749923E-04   8.8541444E+05   -1.8576464E+00
   1.1804185E-04   8.7786941E+05   -1.8571767E+00
   1.1858698E-04   8.7039057E+05   -1.8567062E+00
   1.1913463E-04   8.6297731E+05   -1.8562347E+00
   1.1968481E-04   8.5562905E+05   -1.8557623E+00
   1.2023752E-04   8.4834521E+05   -1.8552889E+00
   1.2079279E-04   8.4112522E+05   -1.8548147E+00
   1.2135063E-04   8.3396850E+05   -1.8543395E+00
   1.2191104E-04   8.2687448E+05   -1.8538634E+00
   1.2247403E-04   8.1984261E+05   -1.8533864E+00
   1.2303963E-04   8.1287232E+05   -1.8529085E+00
   1.2360784E-04   8.0596307E+05   -1.8524297E+00
   1.2417868E-04   7.9911432E+05   -1.8519500E+00
   1.2475215E-04   7.9232551E+05   -1.8514693E+00
   1.2532826E-04   7.8559612E+05   -1.8509878E+00
   1.2590704E-04   7.7892561E+05   -1.8505054E+00
   1.2648850E-04   7.7231346E+05   -1.8500221E+00
   1.2707263E-04   7.6575915E+05   -1.8495379E+00
   1.2765947E-04   7.5926215E+05   -1.8490528E+00
   1.2824901E-04   7.5282197E+05   -1.8485668E+00
   1.2884128E-04   7.4643808E+05   -1.8480799E+00
   1.2943628E-04   7.4010999E+05   -1.8475921E+00
   1.3003403E-04   7.3383720E+05   -1.8471035E+00
   1.3063454E-04   7.2761921E+05   -1.8466140E+00
   1.3123783E-04   7.2145554E+05   -1.8461236E+00
   1.3184390E-04   7.1534570E+05   -1.8456324E+00
   1.3245277E-04   7.0928921E+05   -1.8451403E+00
   1.3306445E-04   7.0328559E+05   -1.8446473E+00
   1.3367895E-04   6.9733437E+05   -1.8441535E+00
   1.3429630E-04   6.9143509E+05   -1.8436588E+00
   1.3491649E-04   6.8558727E+05   -1.8431632E+00
   1.3553955E-04   6.7979047E+05   -1.8426668E+00
   1.3616548E-04   6.7404423E+05   -1.8421696E+00
   1.3679431E-04   6.6834809E+05   -1.8416715E+00
   1.3742604E-04   6.6270161E+05   -1.8411725E+00
   1.3806069E-04   6.5710434E+05   -1.8406728E+00
   1.3869827E-04   6.5155585E+05   -1.8401721E+00
   1.3933879E-04   6.4605571E+05   -1.8396707E+00
   1.3998227E-04   6.4060347E+05   -1.8391684E+00
   1.4062872E-04   6.3519872E+05   -1.8386653E+00
   1.4127816E-04   6.2984103E+05   -1.8381614E+00
   1.4193060E-04   6.2452998E+05   -1.8376566E+00
   1.4258605E-04   6.1926515E+05   -1.8371511E+00
   1.4324453E-04   6.1404614E+05   -1.8366447E+00
   1.4390605E-04   6.0887254E+05   -1.8361375E+00
   1.4457062E-04   6.0374394E+05   -1.8356295E+00
   1.4523826E-04   5.9865994E+05   -1.8351207E+00
   1.4590899E-04   5.9362015E+05   -1.8346111E+00
   1.4658281E-04   5.8862416E+05   -1.8341008E+00
   1.4725974E-04   5.8367160E+05   -1.8335896E+00
   1.4793981E-04   5.7876207E+05   -1.8330776E+00
   1.4862301E-04   5.7389519E+05   -1.8325649E+00
   1.4930936E-04   5.6907058E+05   -1.8320513E+00
   1.4999889E-04   5.6428787E+05   -1.8315370E+00
   1.5069160E-04   5.5954668E+05   -1.8310219E+00
   1.5138751E-04   5.5484664E+05   -1.8305061E+00
   1.5208663E-04   5.5018739E+05   -1.8299895E+00
   1.5278899E-04   5.4556857E+05   -1.8294721E+00
   1.5349458E-04   5.4098981E+05   -1.8289539E+00
   1.5420343E-04   5.3645076E+05   -1.8284350E+00
   1.5491556E-04   5.3195107E+05   -1.8279154E+00
   1.5563098E-04   5.2749039E+05   -1.8273950E+00
   1.5634970E-04   5.2306836E+05   -1.8268739E+00
   1.5707174E-04   5.1868465E+05   -1.8263520E+00
   1.5779711E-04   5.1433892E+05   -1.8258294E+00
   1.5852584E-04   5.1003083E+05   -1.8253060E+00
   1.5925792E-04   5.0576004E+05   -1.8247820E+00
   1.5999339E-04   5.0152623E+05   -1.8242572E+00
   1.6073226E-04   4.9732906E+05   -1.8237317E+00
   1.6147454E-04   4.9316821E+05   -1.8232054E+00
   1.6222024E-04   4.8904336E+05   -1.8226785E+00
   1.6296939E-04   4.8495418E+05   -1.8221509E+00
   1.6372200E-04   4.8090038E+05   -1.8216225E+00
   1.6447809E-04   4.7688161E+05   -1.8210935E+00
   1.6523767E-04   4.7289759E+05   -1.8205637E+00
   1.6600075E-04   4.6894799E+05   -1.8200333E+00
   1.6676736E-04   4.6503252E+05   -1.8195022E+00
   1.6753751E-04   4.6115087E+05   -1.8189704E+00
   1.6831122E-04   4.5730274E+05   -1.8184379E+00
   1.6908849E-04   4.5348784E+05   -1.8179048E+00
   1.6986936E-04   4.4970586E+05   -1.8173710E+00
   1.7065384E-04   4.4595652E+05   -1.8168365E+00
   1.7144193E-04   4.4223954E+05   -1.8163014E+00
   1.7223367E-04   4.3855461E+05   -1.8157656E+00
   1.7302906E-04   4.3490146E+05   -1.8152292E+00
   1.7382813E-04   4.3127982E+05   -1.8146921E+00
   1.7463089E-04   4.2768939E+05   -1.8141544E+00
   1.7543735E-04   4.2412990E+05   -1.8136160E+00
   1.7624754E-04   4.2060108E+05   -1.8130770E+00
   1.7706147E-04   4.1710265E+05   -1.8125374E+00
   1.7787916E-04   4.1363436E+05   -1.8119971E+00
   1.7870062E-04   4.1019592E+05   -1.8114563E+00
   1.7952588E-04   4.0678708E+05   -1.8109148E+00
   1.8035495E-04   4.0340758E+05   -1.8103727E+00
   1.8118785E-04   4.0005715E+05   -1.8098301E+00
   1.8202459E-04   3.9673555E+05   -1.8092868E+00
   1.8286520E-04   3.9344250E+05   -1.8087429E+00
   1.8370969E-04   3.9017777E+05   -1.8081984E+00
   1.8455808E-04   3.8694110E+05   -1.8076534E+00
   1.8541039E-04   3.8373224E+05   -1.8071077E+00
   1.8626663E-04   3.8055096E+05   -1.8065615E+00
   1.8712683E-04   3.7739699E+05   -1.8060148E+00
   1.8799100E-04   3.7427011E+05   -1.8054674E+00
   1.8885917E-04   3.7117007E+05   -1.8049195E+00
   1.8973134E-04   3.6809664E+05   -1.8043711E+00
   1.9060754E-04   3.6504958E+05   -1.8038221E+00
   1.9148778E-04   3.6202866E+05   -1.8032725E+00
   1.9237209E-04   3.5903365E+05   -1.8027224E+00
   1.9326049E-04   3.5606432E+05   -1.8021718E+00
   1.9415299E-04   3.5312045E+05   -1.8016206E+00
   1.9504960E-04   3.5020180E+05   -1.8010689E+00
   1.9595036E-04   3.4730816E+05   -1.8005167E+00
   1.9685528E-04   3.4443931E+05   -1.7999640E+00
   1.9776438E-04   3.4159502E+05   -1.7994108E+00
   1.9867768E-04   3.3877508E+05   -1.7988571E+00
   1.9959519E-04   3.3597929E+05   -1.7983028E+00
   2.0051694E-04   3.3320741E+05   -1.7977481E+00
   2.0144295E-04   3.3045925E+05   -1.7971929E+00
   2.0237324E-04   3.2773459E+05   -1.7966372E+00
   2.0330782E-04   3.2503323E+05   -1.7960810E+00
   2.0424671E-04   3.2235497E+05   -1.7955244E+00
   2.0518995E-04   3.1969959E+05   -1.7949673E+00
   2.0613754E-04   3.1706690E+05   -1.7944097E+00
   2.0708950E-04   3.1445670E+05   -1.7938517E+00
   2.0804586E-04   3.1186879E+05   -1.7932932E+00
   2.0900664E-04   3.0930297E+05   -1.7927343E+00
   2.0997185E-04   3.0675905E+05   -1.7921749E+00
   2.1094152E-04   3.0423684E+05   -1.7916151E+00
   2.1191567E-04   3.0173615E+05   -1.7910548E+00
   2.1289432E-04   2.9925678E+05   -1.7904942E+00
   2.1387749E-04   2.9679856E+05   -1.7899331E+00
   2.1486520E-04   2.9436128E+05   -1.7893716E+00
   2.1585747E-04   2.9194478E+05   -1.7888097E+00
   2.1685432E-04   2.8954887E+05   -1.7882474E+00
   2.1785578E-04   2.8717336E+05   -1.7876847E+00
   2.1886186E-04   2.8481808E+05   -1.7871216E+00
   2.1987259E-04   2.8248285E+05   -1.7865581E+00
   2.2088798E-04   2.8016750E+05   -1.7859943E+00
   2.2190807E-04   2.7787184E+05   -1.7854300E+00
   2.2293286E-04   2.7559571E+05   -1.7848654E+00
   2.2396239E-04   2.7333894E+05   -1.7843005E+00
   2.2499667E-04   2.7110135E+05   -1.7837352E+00
   2.2603573E-04   2.6888278E+05   -1.7831695E+00
   2.2707958E-04   2.6668307E+05   -1.7826035E+00
   2.2812826E-04   2.6450203E+05   -1.7820371E+00
   2.2918178E-04   2.6233952E+05   -1.7814704E+00
   2.3024017E-04   2.6019537E+05   -1.7809034E+00
   2.3130344E-04   2.5806942E+05   -1.7803360E+00
   2.3237162E-04   2.5596151E+05   -1.7797684E+00
   2.3344474E-04   2.5387148E+05   -1.7792004E+00
   2.3452281E-04   2.5179917E+05   -1.7786321E+00
   2.3560586E-04   2.4974444E+05   -1.7780635E+00
   2.3669392E-04   2.4770712E+05   -1.7774946E+00
   2.3778699E-04   2.4568706E+05   -1.7769255E+00
   2.3888512E-04   2.4368412E+05   -1.7763560E+00
   2.3998831E-04   2.4169814E+05   -1.7757863E+00
   2.4109661E-04   2.3972898E+05   -1.7752163E+00
   2.4221001E-04   2.3777648E+05   -1.7746460E+00
   2.4332857E-04   2.3584051E+05   -1.7740755E+00
   2.4445228E-04   2.3392091E+05   -1.7735047E+00
   2.4558119E-04   2.3201755E+05   -1.7729337E+00
   2.4671531E-04   2.3013028E+05   -1.7723624E+00
   2.4785467E-04   2.2825896E+05   -1.7717909E+00
   2.4899928E-04   2.2640346E+05   -1.7712192E+00
   2.5014919E-04   2.2456363E+05   -1.7706473E+00
   2.5130440E-04   2.2273934E+05   -1.7700751E+00
   2.5246495E-04   2.2093045E+05   -1.7695027E+00
   2.5363086E-04   2.1913683E+05   -1.7689301E+00
   2.5480216E-04   2.1735834E+05   -1.7683573E+00
   2.5597886E-04   2.1559486E+05   -1.7677843E+00
   2.5716100E-04   2.1384625E+05   -1.7672111E+00
   2.5834859E-04   2.1211238E+05   -1.7666378E+00
   2.5954168E-04   2.1039313E+05   -1.7660642E+00
   2.6074027E-04   2.0868836E+05   -1.7654905E+00
   2.6194439E-04   2.0699796E+05   -1.7649167E+00
   2.6315408E-04   2.0532178E+05   -1.7643426E+00
   2.6436935E-04   2.0365973E+05   -1.7637685E+00
   2.6559024E-04   2.0201166E+05   -1.7631941E+00
   2.6681676E-04   2.0037745E+05   -1.7626197E+00
   2.6804895E-04   1.9875700E+05   -1.7620451E+00
   2.6928683E-04   1.9715017E+05   -1.7614703E+00
   2.7053042E-04   1.9555684E+05   -1.7608955E+00
   2.7177976E-04   1.9397691E+05   -1.7603205E+00
   2.7303487E-04   1.9241025E+05   -1.7597455E+00
   2.7429577E-04   1.9085676E+05   -1.7591703E+00
   2.7556250E-04   1.8931630E+05   -1.7585950E+00
   2.7683507E-04   1.8778878E+05   -1.7580196E+00
   2.7811353E-04   1.8627407E+05   -1.7574442E+00
   2.7939788E-04   1.8477208E+05   -1.7568686E+00
   2.8068817E-04   1.8328268E+05   -1.7562930E+00
   2.8198442E-04   1.8180577E+05   -1.7557174E+00
   2.8328665E-04   1.8034124E+05   -1.7551416E+00
   2.8459490E-04   1.7888898E+05   -1.7545658E+00
   2.8590919E-04   1.7744888E+05   -1.7539900E+00
   2.8722955E-04   1.7602085E+05   -1.7534141E+00
   2.8855600E-04   1.7460477E+05   -1.7528382E+00
   2.8988859E-04   1.7320054E+05   -1.7522622E+00
   2.9122732E-04   1.7180807E+05   -1.7516863E+00
   2.9257224E-04   1.7042724E+05   -1.7511103E+00
   2.9392337E-04   1.6905795E+05   -1.7505343E+00
   2.9528074E-04   1.6770011E+05   -1.7499583E+00
   2.9664438E-04   1.6635363E+05   -1.7493823E+00
   2.9801431E-04   1.6501838E+05   -1.7488062E+00
   2.9939057E-04   1.6369430E+05   -1.7482303E+00
   3.0077319E-04   1.6238126E+05   -1.7476543E+00
   3.0216219E-04   1.6107919E+05   -1.7470783E+00
   3.0355761E-04   1.5978798E+05   -1.7465024E+00
   3.0495947E-04   1.5850754E+05   -1.7459265E+00
   3.0636780E-04   1.5723778E+05   -1.7453507E+00
   3.0778264E-04   1.5597861E+05   -1.7447749E+00
   3.0920401E-04   1.5472992E+05   -1.7441992E+00
   3.1063195E-04   1.5349165E+05   -1.7436235E+00
   3.1206648E-04   1.5226368E+05   -1.7430479E+00
   3.1350764E-04   1.5104594E+05   -1.7424723E+00
   3.1495545E-04   1.4983834E+05   -1.7418969E+00
   3.1640994E-04   1.4864079E+05   -1.7413215E+00
   3.1787116E-04   1.4745319E+05   -1.7407462E+00
   3.1933912E-04   1.4627548E+05   -1.7401710E+00
   3.2081386E-04   1.4510755E+05   -1.7395960E+00
   3.2229541E-04   1.4394933E+05   -1.7390210E+00
   3.2378381E-04   1.4280074E+05   -1.7384461E+00
   3.2527908E-04   1.4166168E+05   -1.7378714E+00
   3.2678125E-04   1.4053209E+05   -1.7372968E+00
   3.2829036E-04   1.3941186E+05   -1.7367223E+00
   3.2980644E-04   1.3830094E+05   -1.7361480E+00
   3.3132952E-04   1.3719923E+05   -1.7355738E+00
   3.3285963E-04   1.3610665E+05   -1.7349998E+00
   3.3439681E-04   1.3502314E+05   -1.7344259E+00
   3.3594109E-04   1.3394860E+05   -1.7338522E+00
   3.3749250E-04   1.3288297E+05   -1.7332787E+00
   3.3905108E-04   1.3182616E+05   -1.7327053E+00
   3.4061685E-04   1.3077810E+05   -1.7321321E+00
   3.4218986E-04   1.2973872E+05   -1.7315591E+00
   3.4377013E-04   1.2870794E+05   -1.7309863E+00
   3.4535769E-04   1.2768568E+05   -1.7304137E+00
   3.4695259E-04   1.2667188E+05   -1.7298413E+00
   3.4855485E-04   1.2566646E+05   -1.7292691E+00
   3.5016452E-04   1.2466934E+05   -1.7286972E+00
   3.5178161E-04   1.2368047E+05   -1.7281254E+00
   3.5340618E-04   1.2269976E+05   -1.7275539E+00
   3.5503824E-04   1.2172715E+05   -1.7269827E+00
   3.5667785E-04   1.2076256E+05   -1.7264116E+00
   3.5832502E-04   1.1980594E+05   -1.7258408E+00
   3.5997981E-04   1.1885720E+05   -1.7252703E+00
   3.6164223E-04   1.1791629E+05   -1.7247000E+00
   3.6331233E-04   1.1698314E+05   -1.7241300E+00
   3.6499015E-04   1.1605767E+05   -1.7235603E+00
   3.6667571E-04   1.1513983E+05   -1.7229908E+00
   3.6836906E-04   1.1422954E+05   -1.7224217E+00
   3.7007022E-04   1.1332675E+05   -1.7218528E+00
   3.7177925E-04   1.1243139E+05   -1.7212842E+00
   3.7349616E-04   1.1154339E+05   -1.7207159E+00
   3.7522101E-04   1.1066270E+05   -1.7201479E+00
   3.7695382E-04   1.0978925E+05   -1.7195802E+00
   3.7869463E-04   1.0892298E+05   -1.7190129E+00
   3.8044348E-04   1.0806382E+05   -1.7184458E+00
   3.8220041E-04   1.0721173E+05   -1.7178791E+00
   3.8396545E-04   1.0636662E+05   -1.7173127E+00
   3.8573864E-04   1.0552846E+05   -1.7167467E+00
   3.8752002E-04   1.0469717E+05   -1.7161810E+00
   3.8930963E-04   1.0387271E+05   -1.7156157E+00
   3.9110750E-04   1.0305500E+05   -1.7150507E+00
   3.9291368E-04   1.0224399E+05   -1.7144861E+00
   3.9472820E-04   1.0143964E+05   -1.7139219E+00
   3.9655109E-04   1.0064187E+05   -1.7133580E+00
   3.9838241E-04   9.9850633E+04   -1.7127945E+00
   4.0022218E-04   9.9065876E+04   -1.7122314E+00
   4.0207045E-04   9.8287541E+04   -1.7116687E+00
   4.0392725E-04   9.7515575E+04   -1.7111064E+00
   4.0579263E-04   9.6749922E+04   -1.7105444E+00
   4.0766662E-04   9.5990529E+04   -1.7099829E+00
   4.0954927E-04   9.5237343E+04   -1.7094218E+00
   4.1144061E-04   9.4490311E+04   -1.7088612E+00
   4.1334068E-04   9.3749380E+04   -1.7083009E+00
   4.1524953E-04   9.3014500E+04   -1.7077411E+00
   4.1716720E-04   9.2285618E+04   -1.7071817E+00
   4.1909372E-04   9.1562683E+04   -1.7066227E+00
   4.2102914E-04   9.0845646E+04   -1.7060642E+00
   4.2297350E-04   9.0134456E+04   -1.7055062E+00
   4.2492683E-04   8.9429063E+04   -1.7049486E+00
   4.2688919E-04   8.8729418E+04   -1.7043915E+00
   4.2886061E-04   8.8035473E+04   -1.7038348E+00
   4.3084113E-04   8.7347179E+04   -1.7032786E+00
   4.3283080E-04   8.6664489E+04   -1.7027229E+00
   4.3482966E-04   8.5987354E+04   -1.7021677E+00
   4.3683775E-04   8.5315729E+04   -1.7016129E+00
   4.3885511E-04   8.4649565E+04   -1.7010587E+00
   4.4088179E-04   8.3988817E+04   -1.7005049E+00
   4.4291783E-04   8.3333440E+04   -1.6999517E+00
   4.4496327E-04   8.2683387E+04   -1.6993989E+00
   4.4701816E-04   8.2038613E+04   -1.6988467E+00
   4.4908253E-04   8.1399075E+04   -1.6982950E+00
   4.5115644E-04   8.0764727E+04   -1.6977438E+00
   4.5323993E-04   8.0135527E+04   -1.6971932E+00
   4.5533304E-04   7.9511430E+04   -1.6966431E+00
   4.5743582E-04   7.8892393E+04   -1.6960935E+00
   4.5954830E-04   7.8278374E+04   -1.6955445E+00
   4.6167054E-04   7.7669330E+04   -1.6949960E+00
   4.6380259E-04   7.7065220E+04   -1.6944481E+00
   4.6594448E-04   7.6466001E+04   -1.6939007E+00
   4.6809626E-04   7.5871632E+04   -1.6933539E+00
   4.7025797E-04   7.5282073E+04   -1.6928077E+00
   4.7242967E-04   7.4697284E+04   -1.6922620E+00
   4.7461140E-04   7.4117223E+04   -1.6917169E+00
   4.7680321E-04   7.3541851E+04   -1.6911724E+00
   4.7900514E-04   7.2971128E+04   -1.6906285E+00
   4.8121723E-04   7.2405016E+04   -1.6900852E+00
   4.8343954E-04   7.1843476E+04   -1.6895425E+00
   4.8567212E-04   7.1286469E+04   -1.6890004E+00
   4.8791500E-04   7.0733958E+04   -1.6884589E+00
   4.9016825E-04   7.0185903E+04   -1.6879180E+00
   4.9243189E-04   6.9642268E+04   -1.6873777E+00
   4.9470600E-04   6.9103016E+04   -1.6868381E+00
   4.9699060E-04   6.8568110E+04   -1.6862991E+00
   4.9928575E-04   6.8037514E+04   -1.6857607E+00
   5.0159151E-04   6.7511190E+04   -1.6852229E+00
   5.0390791E-04   6.6989104E+04   -1.6846858E+00
   5.0623501E-04   6.6471220E+04   -1.6841494E+00
   5.0857286E-04   6.5957502E+04   -1.6836135E+00
   5.1092150E-04   6.5447916E+04   -1.6830784E+00
   5.1328099E-04   6.4942428E+04   -1.6825439E+00
   5.1565137E-04   6.4441002E+04   -1.6820100E+00
   5.1803270E-04   6.3943605E+04   -1.6814769E+00
   5.2042503E-04   6.3450202E+04   -1.6809443E+00
   5.2282841E-04   6.2960762E+04   -1.6804125E+00
   5.2524289E-04   6.2475249E+04   -1.6798814E+00
   5.2766851E-04   6.1993633E+04   -1.6793509E+00
   5.3010534E-04   6.1515879E+04   -1.6788211E+00
   5.3255342E-04   6.1041956E+04   -1.6782921E+00
   5.3501281E-04   6.0571832E+04   -1.6777637E+00
   5.3748356E-04   6.0105474E+04   -1.6772360E+00
   5.3996571E-04   5.9642852E+04   -1.6767090E+00
   5.4245933E-04   5.9183935E+04   -1.6761828E+00
   5.4496446E-04   5.8728691E+04   -1.6756572E+00
   5.4748117E-04   5.8277090E+04   -1.6751324E+00
   5.5000949E-04   5.7829101E+04   -1.6746083E+00
   5.5254949E-04   5.7384694E+04   -1.6740849E+00
   5.5510123E-04   5.6943840E+04   -1.6735622E+00
   5.5766474E-04   5.6506508E+04   -1.6730403E+00
   5.6024010E-04   5.6072671E+04   -1.6725192E+00
   5.6282734E-04   5.5642297E+04   -1.6719987E+00
   5.6542654E-04   5.5215359E+04   -1.6714790E+00
   5.6803774E-04   5.4791828E+04   -1.6709601E+00
   5.7066099E-04   5.4371675E+04   -1.6704419E+00
   5.7329637E-04   5.3954873E+04   -1.6699245E+00
   5.7594391E-04   5.3541394E+04   -1.6694078E+00
   5.7860368E-04   5.3131210E+04   -1.6688919E+00
   5.8127573E-04   5.2724293E+04   -1.6683768E+00
   5.8396012E-04   5.2320617E+04   -1.6678624E+00
   5.8665691E-04   5.1920155E+04   -1.6673488E+00
   5.8936616E-04   5.1522880E+04   -1.6668361E+00
   5.9208791E-04   5.1128765E+04   -1.6663240E+00
   5.9482223E-04   5.0737784E+04   -1.6658128E+00
   5.9756919E-04   5.0349912E+04   -1.6653024E+00
   6.0032882E-04   4.9965122E+04   -1.6647927E+00
   6.0310120E-04   4.9583390E+04   -1.6642839E+00
   6.0588639E-04   4.9204689E+04   -1.6637758E+00
   6.0868443E-04   4.8828994E+04   -1.6632686E+00
   6.1149540E-04   4.8456281E+04   -1.6627622E+00
   6.1431935E-04   4.8086526E+04   -1.6622566E+00
   6.1715634E-04   4.7719703E+04   -1.6617518E+00
   6.2000644E-04   4.7355788E+04   -1.6612478E+00
   6.2286969E-04   4.6994758E+04   -1.6607446E+00
