#        a       HoverH0(a)       dlogHdloga_of_a(a)
   1.0000000E-04   1.0704705E+06   -1.8786766E+00
   1.0046181E-04   1.0612456E+06   -1.8782527E+00
   1.0092575E-04   1.0521022E+06   -1.8778278E+00
   1.0139184E-04   1.0430397E+06   -1.8774019E+00
   1.0186008E-04   1.0340572E+06   -1.8769751E+00
   1.0233048E-04   1.0251542E+06   -1.8765472E+00
   1.0280305E-04   1.0163297E+06   -1.8761183E+00
   1.0327781E-04   1.0075833E+06   -1.8756884E+00
   1.0375475E-04   9.9891407E+05   -1.8752575E+00
   1.0423390E-04   9.9032142E+05   -1.8748257E+00
   1.0471527E-04   9.8180463E+05   -1.8743928E+00
   1.0519885E-04   9.7336304E+05   -1.8739590E+00
   1.0568467E-04   9.6499595E+05   -1.8735241E+00
   1.0617274E-04   9.5670271E+05   -1.8730883E+00
   1.0666305E-04   9.4848265E+05   -1.8726514E+00
   1.0715563E-04   9.4033511E+05   -1.8722136E+00
   1.0765049E-04   9.3225944E+05   -1.8717748E+00
   1.0814763E-04   9.2425500E+05   -1.8713350E+00
   1.0864707E-04   9.1632114E+05   -1.8708942E+00
   1.0914881E-04   9.0845724E+05   -1.8704525E+00
   1.0965287E-04   9.0066266E+05   -1.8700097E+00
   1.1015926E-04   8.9293678E+05   -1.8695660E+00
   1.1066799E-04   8.8527898E+05   -1.8691213E+00
   1.1117906E-04   8.7768866E+05   -1.8686756E+00
   1.1169250E-04   8.7016520E+05   -1.8682290E+00
   1.1220831E-04   8.6270801E+05   -1.8677813E+00
   1.1272650E-04   8.5531649E+05   -1.8673327E+00
   1.1324708E-04   8.4799006E+05   -1.8668832E+00
   1.1377007E-04   8.4072813E+05   -1.8664326E+00
   1.1429547E-04   8.3353012E+05   -1.8659811E+00
   1.1482330E-04   8.2639546E+05   -1.8655286E+00
   1.1535356E-04   8.1932358E+05   -1.8650752E+00
   1.1588628E-04   8.1231391E+05   -1.8646208E+00
   1.1642145E-04   8.0536591E+05   -1.8641654E+00
   1.1695910E-04   7.9847901E+05   -1.8637091E+00
   1.1749923E-04   7.9165266E+05   -1.8632518E+00
   1.1804185E-04   7.8488633E+05   -1.8627936E+00
   1.1858698E-04   7.7817948E+05   -1.8623344E+00
   1.1913463E-04   7.7153157E+05   -1.8618742E+00
   1.1968481E-04   7.6494208E+05   -1.8614131E+00
   1.2023752E-04   7.5841048E+05   -1.8609511E+00
   1.2079279E-04   7.5193625E+05   -1.8604881E+00
   1.2135063E-04   7.4551889E+05   -1.8600242E+00
   1.2191104E-04   7.3915787E+05   -1.8595593E+00
   1.2247403E-04   7.3285270E+05   -1.8590935E+00
   1.2303963E-04   7.2660288E+05   -1.8586267E+00
   1.2360784E-04   7.2040791E+05   -1.8581590E+00
   1.2417868E-04   7.1426729E+05   -1.8576904E+00
   1.2475215E-04   7.0818055E+05   -1.8572209E+00
   1.2532826E-04   7.0214719E+05   -1.8567504E+00
   1.2590704E-04   6.9616675E+05   -1.8562790E+00
   1.2648850E-04   6.9023874E+05   -1.8558066E+00
   1.2707263E-04   6.8436271E+05   -1.8553334E+00
   1.2765947E-04   6.7853817E+05   -1.8548592E+00
   1.2824901E-04   6.7276469E+05   -1.8543841E+00
   1.2884128E-04   6.6704179E+05   -1.8539081E+00
   1.2943628E-04   6.6136902E+05   -1.8534312E+00
   1.3003403E-04   6.5574594E+05   -1.8529534E+00
   1.3063454E-04   6.5017210E+05   -1.8524746E+00
   1.3123783E-04   6.4464706E+05   -1.8519950E+00
   1.3184390E-04   6.3917038E+05   -1.8515145E+00
   1.3245277E-04   6.3374164E+05   -1.8510330E+00
   1.3306445E-04   6.2836040E+05   -1.8505507E+00
   1.3367895E-04   6.2302624E+05   -1.8500674E+00
   1.3429630E-04   6.1773873E+05   -1.8495833E+00
   1.3491649E-04   6.1249747E+05   -1.8490983E+00
   1.3553955E-04   6.0730204E+05   -1.8486124E+00
   1.3616548E-04   6.0215203E+05   -1.8481256E+00
   1.3679431E-04   5.9704703E+05   -1.8476379E+00
   1.3742604E-04   5.9198664E+05   -1.8471494E+00
   1.3806069E-04   5.8697047E+05   -1.8466599E+00
   1.3869827E-04   5.8199811E+05   -1.8461697E+00
   1.3933879E-04   5.7706918E+05   -1.8456785E+00
   1.3998227E-04   5.7218329E+05   -1.8451864E+00
   1.4062872E-04   5.6734005E+05   -1.8446936E+00
   1.4127816E-04   5.6253908E+05   -1.8441998E+00
   1.4193060E-04   5.5778002E+05   -1.8437052E+00
   1.4258605E-04   5.5306247E+05   -1.8432097E+00
   1.4324453E-04   5.4838608E+05   -1.8427134E+00
   1.4390605E-04   5.4375048E+05   -1.8422162E+00
   1.4457062E-04   5.3915529E+05   -1.8417182E+00
   1.4523826E-04   5.3460017E+05   -1.8412193E+00
   1.4590899E-04   5.3008475E+05   -1.8407196E+00
   1.4658281E-04   5.2560869E+05   -1.8402191E+00
   1.4725974E-04   5.2117162E+05   -1.8397177E+00
   1.4793981E-04   5.1677320E+05   -1.8392155E+00
   1.4862301E-04   5.1241309E+05   -1.8387125E+00
   1.4930936E-04   5.0809094E+05   -1.8382086E+00
   1.4999889E-04   5.0380643E+05   -1.8377040E+00
   1.5069160E-04   4.9955920E+05   -1.8371985E+00
   1.5138751E-04   4.9534893E+05   -1.8366922E+00
   1.5208663E-04   4.9117530E+05   -1.8361851E+00
   1.5278899E-04   4.8703797E+05   -1.8356771E+00
   1.5349458E-04   4.8293662E+05   -1.8351684E+00
   1.5420343E-04   4.7887093E+05   -1.8346589E+00
   1.5491556E-04   4.7484058E+05   -1.8341486E+00
   1.5563098E-04   4.7084527E+05   -1.8336375E+00
   1.5634970E-04   4.6688467E+05   -1.8331256E+00
   1.5707174E-04   4.6295848E+05   -1.8326129E+00
   1.5779711E-04   4.5906639E+05   -1.8320994E+00
   1.5852584E-04   4.5520810E+05   -1.8315852E+00
   1.5925792E-04   4.5138330E+05   -1.8310702E+00
   1.5999339E-04   4.4759171E+05   -1.8305544E+00
   1.6073226E-04   4.4383302E+05   -1.8300378E+00
   1.6147454E-04   4.4010694E+05   -1.8295205E+00
   1.6222024E-04   4.3641319E+05   -1.8290025E+00
   1.6296939E-04   4.3275147E+05   -1.8284836E+00
   1.6372200E-04   4.2912150E+05   -1.8279640E+00
   1.6447809E-04   4.2552300E+05   -1.8274437E+00
   1.6523767E-04   4.2195569E+05   -1.8269226E+00
   1.6600075E-04   4.1841929E+05   -1.8264008E+00
   1.6676736E-04   4.1491352E+05   -1.8258783E+00
   1.6753751E-04   4.1143812E+05   -1.8253550E+00
   1.6831122E-04   4.0799282E+05   -1.8248310E+00
   1.6908849E-04   4.0457734E+05   -1.8243063E+00
   1.6986936E-04   4.0119142E+05   -1.8237808E+00
   1.7065384E-04   3.9783481E+05   -1.8232547E+00
   1.7144193E-04   3.9450723E+05   -1.8227278E+00
   1.7223367E-04   3.9120844E+05   -1.8222002E+00
   1.7302906E-04   3.8793818E+05   -1.8216719E+00
   1.7382813E-04   3.8469619E+05   -1.8211430E+00
   1.7463089E-04   3.8148223E+05   -1.8206133E+00
   1.7543735E-04   3.7829604E+05   -1.8200829E+00
   1.7624754E-04   3.7513738E+05   -1.8195519E+00
   1.7706147E-04   3.7200600E+05   -1.8190201E+00
   1.7787916E-04   3.6890167E+05   -1.8184877E+00
   1.7870062E-04   3.6582414E+05   -1.8179546E+00
   1.7952588E-04   3.6277317E+05   -1.8174209E+00
   1.8035495E-04   3.5974854E+05   -1.8168865E+00
   1.8118785E-04   3.5675000E+05   -1.8163514E+00
   1.8202459E-04   3.5377733E+05   -1.8158157E+00
   1.8286520E-04   3.5083029E+05   -1.8152793E+00
   1.8370969E-04   3.4790867E+05   -1.8147423E+00
   1.8455808E-04   3.4501223E+05   -1.8142046E+00
   1.8541039E-04   3.4214075E+05   -1.8136663E+00
   1.8626663E-04   3.3929401E+05   -1.8131274E+00
   1.8712683E-04   3.3647179E+05   -1.8125878E+00
   1.8799100E-04   3.3367388E+05   -1.8120476E+00
   1.8885917E-04   3.3090006E+05   -1.8115068E+00
   1.8973134E-04   3.2815012E+05   -1.8109654E+00
   1.9060754E-04   3.2542384E+05   -1.8104233E+00
   1.9148778E-04   3.2272102E+05   -1.8098807E+00
   1.9237209E-04   3.2004144E+05   -1.8093375E+00
   1.9326049E-04   3.1738491E+05   -1.8087937E+00
   1.9415299E-04   3.1475122E+05   -1.8082492E+00
   1.9504960E-04   3.1214017E+05   -1.8077042E+00
   1.9595036E-04   3.0955156E+05   -1.8071587E+00
   1.9685528E-04   3.0698518E+05   -1.8066125E+00
   1.9776438E-04   3.0444085E+05   -1.8060658E+00
   1.9867768E-04   3.0191837E+05   -1.8055185E+00
   1.9959519E-04   2.9941754E+05   -1.8049706E+00
   2.0051694E-04   2.9693818E+05   -1.8044222E+00
   2.0144295E-04   2.9448009E+05   -1.8038733E+00
   2.0237324E-04   2.9204309E+05   -1.8033237E+00
   2.0330782E-04   2.8962700E+05   -1.8027737E+00
   2.0424671E-04   2.8723161E+05   -1.8022231E+00
   2.0518995E-04   2.8485677E+05   -1.8016720E+00
   2.0613754E-04   2.8250227E+05   -1.8011204E+00
   2.0708950E-04   2.8016795E+05   -1.8005682E+00
   2.0804586E-04   2.7785363E+05   -1.8000155E+00
   2.0900664E-04   2.7555912E+05   -1.7994624E+00
   2.0997185E-04   2.7328426E+05   -1.7989087E+00
   2.1094152E-04   2.7102887E+05   -1.7983545E+00
   2.1191567E-04   2.6879278E+05   -1.7977998E+00
   2.1289432E-04   2.6657583E+05   -1.7972446E+00
   2.1387749E-04   2.6437783E+05   -1.7966890E+00
   2.1486520E-04   2.6219863E+05   -1.7961328E+00
   2.1585747E-04   2.6003805E+05   -1.7955762E+00
   2.1685432E-04   2.5789595E+05   -1.7950192E+00
   2.1785578E-04   2.5577214E+05   -1.7944616E+00
   2.1886186E-04   2.5366648E+05   -1.7939036E+00
   2.1987259E-04   2.5157880E+05   -1.7933452E+00
   2.2088798E-04   2.4950894E+05   -1.7927863E+00
   2.2190807E-04   2.4745675E+05   -1.7922269E+00
   2.2293286E-04   2.4542207E+05   -1.7916672E+00
   2.2396239E-04   2.4340475E+05   -1.7911070E+00
   2.2499667E-04   2.4140464E+05   -1.7905463E+00
   2.2603573E-04   2.3942157E+05   -1.7899853E+00
   2.2707958E-04   2.3745542E+05   -1.7894238E+00
   2.2812826E-04   2.3550602E+05   -1.7888620E+00
   2.2918178E-04   2.3357322E+05   -1.7882997E+00
   2.3024017E-04   2.3165689E+05   -1.7877370E+00
   2.3130344E-04   2.2975688E+05   -1.7871740E+00
   2.3237162E-04   2.2787305E+05   -1.7866105E+00
   2.3344474E-04   2.2600524E+05   -1.7860467E+00
   2.3452281E-04   2.2415333E+05   -1.7854825E+00
   2.3560586E-04   2.2231717E+05   -1.7849179E+00
   2.3669392E-04   2.2049663E+05   -1.7843530E+00
   2.3778699E-04   2.1869156E+05   -1.7837877E+00
   2.3888512E-04   2.1690184E+05   -1.7832220E+00
   2.3998831E-04   2.1512732E+05   -1.7826560E+00
   2.4109661E-04   2.1336788E+05   -1.7820897E+00
   2.4221001E-04   2.1162338E+05   -1.7815230E+00
   2.4332857E-04   2.0989369E+05   -1.7809560E+00
   2.4445228E-04   2.0817869E+05   -1.7803887E+00
   2.4558119E-04   2.0647823E+05   -1.7798211E+00
   2.4671531E-04   2.0479220E+05   -1.7792531E+00
   2.4785467E-04   2.0312047E+05   -1.7786848E+00
   2.4899928E-04   2.0146292E+05   -1.7781163E+00
   2.5014919E-04   1.9981941E+05   -1.7775474E+00
   2.5130440E-04   1.9818983E+05   -1.7769783E+00
   2.5246495E-04   1.9657406E+05   -1.7764088E+00
   2.5363086E-04   1.9497197E+05   -1.7758391E+00
   2.5480216E-04   1.9338345E+05   -1.7752692E+00
   2.5597886E-04   1.9180837E+05   -1.7746989E+00
   2.5716100E-04   1.9024662E+05   -1.7741284E+00
   2.5834859E-04   1.8869808E+05   -1.7735576E+00
   2.5954168E-04   1.8716264E+05   -1.7729866E+00
   2.6074027E-04   1.8564019E+05   -1.7724154E+00
   2.6194439E-04   1.8413060E+05   -1.7718439E+00
   2.6315408E-04   1.8263377E+05   -1.7712722E+00
   2.6436935E-04   1.8114958E+05   -1.7707002E+00
   2.6559024E-04   1.7967793E+05   -1.7701281E+00
   2.6681676E-04   1.7821870E+05   -1.7695557E+00
   2.6804895E-04   1.7677179E+05   -1.7689831E+00
   2.6928683E-04   1.7533709E+05   -1.7684103E+00
   2.7053042E-04   1.7391450E+05   -1.7678374E+00
   2.7177976E-04   1.7250390E+05   -1.7672642E+00
   2.7303487E-04   1.7110520E+05   -1.7666908E+00
   2.7429577E-04   1.6971828E+05   -1.7661173E+00
   2.7556250E-04   1.6834305E+05   -1.7655436E+00
   2.7683507E-04   1.6697941E+05   -1.7649698E+00
   2.7811353E-04   1.6562725E+05   -1.7643957E+00
   2.7939788E-04   1.6428647E+05   -1.7638216E+00
   2.8068817E-04   1.6295698E+05   -1.7632472E+00
   2.8198442E-04   1.6163868E+05   -1.7626728E+00
   2.8328665E-04   1.6033146E+05   -1.7620982E+00
   2.8459490E-04   1.5903524E+05   -1.7615235E+00
   2.8590919E-04   1.5774991E+05   -1.7609486E+00
   2.8722955E-04   1.5647539E+05   -1.7603736E+00
   2.8855600E-04   1.5521158E+05   -1.7597986E+00
   2.8988859E-04   1.5395838E+05   -1.7592234E+00
   2.9122732E-04   1.5271570E+05   -1.7586481E+00
   2.9257224E-04   1.5148346E+05   -1.7580727E+00
   2.9392337E-04   1.5026156E+05   -1.7574973E+00
   2.9528074E-04   1.4904991E+05   -1.7569218E+00
   2.9664438E-04   1.4784842E+05   -1.7563462E+00
   2.9801431E-04   1.4665701E+05   -1.7557705E+00
   2.9939057E-04   1.4547558E+05   -1.7551947E+00
   3.0077319E-04   1.4430405E+05   -1.7546189E+00
   3.0216219E-04   1.4314234E+05   -1.7540431E+00
   3.0355761E-04   1.4199035E+05   -1.7534672E+00
   3.0495947E-04   1.4084801E+05   -1.7528913E+00
   3.0636780E-04   1.3971524E+05   -1.7523153E+00
   3.0778264E-04   1.3859194E+05   -1.7517393E+00
   3.0920401E-04   1.3747803E+05   -1.7511633E+00
   3.1063195E-04   1.3637344E+05   -1.7505873E+00
   3.1206648E-04   1.3527809E+05   -1.7500113E+00
   3.1350764E-04   1.3419189E+05   -1.7494353E+00
   3.1495545E-04   1.3311476E+05   -1.7488593E+00
   3.1640994E-04   1.3204663E+05   -1.7482833E+00
   3.1787116E-04   1.3098742E+05   -1.7477073E+00
   3.1933912E-04   1.2993705E+05   -1.7471313E+00
   3.2081386E-04   1.2889544E+05   -1.7465554E+00
   3.2229541E-04   1.2786253E+05   -1.7459795E+00
   3.2378381E-04   1.2683822E+05   -1.7454036E+00
   3.2527908E-04   1.2582246E+05   -1.7448278E+00
   3.2678125E-04   1.2481516E+05   -1.7442521E+00
   3.2829036E-04   1.2381626E+05   -1.7436764E+00
   3.2980644E-04   1.2282567E+05   -1.7431008E+00
   3.3132952E-04   1.2184334E+05   -1.7425252E+00
   3.3285963E-04   1.2086918E+05   -1.7419497E+00
   3.3439681E-04   1.1990312E+05   -1.7413743E+00
   3.3594109E-04   1.1894511E+05   -1.7407990E+00
   3.3749250E-04   1.1799506E+05   -1.7402238E+00
   3.3905108E-04   1.1705291E+05   -1.7396487E+00
   3.4061685E-04   1.1611859E+05   -1.7390738E+00
   3.4218986E-04   1.1519203E+05   -1.7384989E+00
   3.4377013E-04   1.1427317E+05   -1.7379241E+00
   3.4535769E-04   1.1336194E+05   -1.7373495E+00
   3.4695259E-04   1.1245827E+05   -1.7367750E+00
   3.4855485E-04   1.1156210E+05   -1.7362007E+00
   3.5016452E-04   1.1067337E+05   -1.7356264E+00
   3.5178161E-04   1.0979200E+05   -1.7350524E+00
   3.5340618E-04   1.0891794E+05   -1.7344785E+00
   3.5503824E-04   1.0805113E+05   -1.7339047E+00
   3.5667785E-04   1.0719150E+05   -1.7333312E+00
   3.5832502E-04   1.0633899E+05   -1.7327578E+00
   3.5997981E-04   1.0549354E+05   -1.7321846E+00
   3.6164223E-04   1.0465508E+05   -1.7316116E+00
   3.6331233E-04   1.0382357E+05   -1.7310387E+00
   3.6499015E-04   1.0299893E+05   -1.7304661E+00
   3.6667571E-04   1.0218111E+05   -1.7298937E+00
   3.6836906E-04   1.0137005E+05   -1.7293215E+00
   3.7007022E-04   1.0056570E+05   -1.7287495E+00
   3.7177925E-04   9.9767987E+04   -1.7281777E+00
   3.7349616E-04   9.8976865E+04   -1.7276062E+00
   3.7522101E-04   9.8192276E+04   -1.7270348E+00
   3.7695382E-04   9.7414162E+04   -1.7264638E+00
   3.7869463E-04   9.6642469E+04   -1.7258930E+00
   3.8044348E-04   9.5877141E+04   -1.7253224E+00
   3.8220041E-04   9.5118124E+04   -1.7247521E+00
   3.8396545E-04   9.4365363E+04   -1.7241820E+00
   3.8573864E-04   9.3618806E+04   -1.7236123E+00
   3.8752002E-04   9.2878398E+04   -1.7230428E+00
   3.8930963E-04   9.2144089E+04   -1.7224735E+00
   3.9110750E-04   9.1415824E+04   -1.7219046E+00
   3.9291368E-04   9.0693553E+04   -1.7213360E+00
   3.9472820E-04   8.9977224E+04   -1.7207676E+00
   3.9655109E-04   8.9266786E+04   -1.7201996E+00
   3.9838241E-04   8.8562190E+04   -1.7196319E+00
   4.0022218E-04   8.7863385E+04   -1.7190645E+00
   4.0207045E-04   8.7170322E+04   -1.7184974E+00
   4.0392725E-04   8.6482951E+04   -1.7179307E+00
   4.0579263E-04   8.5801225E+04   -1.7173643E+00
   4.0766662E-04   8.5125095E+04   -1.7167982E+00
   4.0954927E-04   8.4454513E+04   -1.7162324E+00
   4.1144061E-04   8.3789432E+04   -1.7156671E+00
   4.1334068E-04   8.3129805E+04   -1.7151020E+00
   4.1524953E-04   8.2475585E+04   -1.7145374E+00
   4.1716720E-04   8.1826727E+04   -1.7139731E+00
   4.1909372E-04   8.1183184E+04   -1.7134092E+00
   4.2102914E-04   8.0544912E+04   -1.7128456E+00
   4.2297350E-04   7.9911866E+04   -1.7122825E+00
   4.2492683E-04   7.9284001E+04   -1.7117197E+00
   4.2688919E-04   7.8661272E+04   -1.7111573E+00
   4.2886061E-04   7.8043638E+04   -1.7105954E+00
   4.3084113E-04   7.7431053E+04   -1.7100338E+00
   4.3283080E-04   7.6823475E+04   -1.7094727E+00
   4.3482966E-04   7.6220861E+04   -1.7089119E+00
   4.3683775E-04   7.5623170E+04   -1.7083516E+00
   4.3885511E-04   7.5030360E+04   -1.7077918E+00
   4.4088179E-04   7.4442388E+04   -1.7072323E+00
   4.4291783E-04   7.3859214E+04   -1.7066733E+00
   4.4496327E-04   7.3280797E+04   -1.7061148E+00
   4.4701816E-04   7.2707098E+04   -1.7055566E+00
   4.4908253E-04   7.2138074E+04   -1.7049990E+00
   4.5115644E-04   7.1573688E+04   -1.7044418E+00
   4.5323993E-04   7.1013901E+04   -1.7038851E+00
   4.5533304E-04   7.0458671E+04   -1.7033288E+00
   4.5743582E-04   6.9907963E+04   -1.7027731E+00
   4.5954830E-04   6.9361735E+04   -1.7022178E+00
   4.6167054E-04   6.8819952E+04   -1.7016630E+00
   4.6380259E-04   6.8282576E+04   -1.7011087E+00
   4.6594448E-04   6.7749568E+04   -1.7005548E+00
   4.6809626E-04   6.7220892E+04   -1.7000015E+00
   4.7025797E-04   6.6696512E+04   -1.6994487E+00
   4.7242967E-04   6.6176391E+04   -1.6988965E+00
   4.7461140E-04   6.5660492E+04   -1.6983447E+00
   4.7680321E-04   6.5148781E+04   -1.6977934E+00
   4.7900514E-04   6.4641223E+04   -1.6972427E+00
   4.8121723E-04   6.4137781E+04   -1.6966925E+00
   4.8343954E-04   6.3638421E+04   -1.6961429E+00
   4.8567212E-04   6.3143109E+04   -1.6955938E+00
   4.8791500E-04   6.2651811E+04   -1.6950453E+00
   4.9016825E-04   6.2164492E+04   -1.6944973E+00
   4.9243189E-04   6.1681120E+04   -1.6939498E+00
   4.9470600E-04   6.1201660E+04   -1.6934030E+00
   4.9699060E-04   6.0726080E+04   -1.6928567E+00
   4.9928575E-04   6.0254348E+04   -1.6923109E+00
   5.0159151E-04   5.9786430E+04   -1.6917658E+00
   5.0390791E-04   5.9322294E+04   -1.6912212E+00
   5.0623501E-04   5.8861910E+04   -1.6906773E+00
   5.0857286E-04   5.8405244E+04   -1.6901339E+00
   5.1092150E-04   5.7952267E+04   -1.6895911E+00
   5.1328099E-04   5.7502947E+04   -1.6890489E+00
   5.1565137E-04   5.7057253E+04   -1.6885073E+00
   5.1803270E-04   5.6615154E+04   -1.6879664E+00
   5.2042503E-04   5.6176621E+04   -1.6874260E+00
   5.2282841E-04   5.5741623E+04   -1.6868863E+00
   5.2524289E-04   5.5310132E+04   -1.6863472E+00
   5.2766851E-04   5.4882116E+04   -1.6858087E+00
   5.3010534E-04   5.4457548E+04   -1.6852709E+00
   5.3255342E-04   5.4036398E+04   -1.6847337E+00
   5.3501281E-04   5.3618638E+04   -1.6841972E+00
   5.3748356E-04   5.3204239E+04   -1.6836613E+00
   5.3996571E-04   5.2793172E+04   -1.6831260E+00
   5.4245933E-04   5.2385411E+04   -1.6825915E+00
   5.4496446E-04   5.1980928E+04   -1.6820575E+00
   5.4748117E-04   5.1579694E+04   -1.6815243E+00
   5.5000949E-04   5.1181684E+04   -1.6809917E+00
   5.5254949E-04   5.0786868E+04   -1.6804598E+00
   5.5510123E-04   5.0395222E+04   -1.6799286E+00
   5.5766474E-04   5.0006719E+04   -1.6793980E+00
   5.6024010E-04   4.9621331E+04   -1.6788682E+00
   5.6282734E-04   4.9239034E+04   -1.6783390E+00
   5.6542654E-04   4.8859801E+04   -1.6778105E+00
   5.6803774E-04   4.8483607E+04   -1.6772828E+00
   5.7066099E-04   4.8110427E+04   -1.6767557E+00
   5.7329637E-04   4.7740234E+04   -1.6762294E+00
   5.7594391E-04   4.7373005E+04   -1.6757037E+00
   5.7860368E-04   4.7008715E+04   -1.6751788E+00
   5.8127573E-04   4.6647338E+04   -1.6746546E+00
   5.8396012E-04   4.6288852E+04   -1.6741312E+00
   5.8665691E-04   4.5933231E+04   -1.6736084E+00
   5.8936616E-04   4.5580452E+04   -1.6730864E+00
   5.9208791E-04   4.5230491E+04   -1.6725652E+00
   5.9482223E-04   4.4883325E+04   -1.6720446E+00
   5.9756919E-04   4.4538930E+04   -1.6715249E+00
   6.0032882E-04   4.4197283E+04   -1.6710058E+00
   6.0310120E-04   4.3858362E+04   -1.6704876E+00
   6.0588639E-04   4.3522144E+04   -1.6699700E+00
   6.0868443E-04   4.3188606E+04   -1.6694533E+00
   6.1149540E-04   4.2857726E+04   -1.6689373E+00
   6.1431935E-04   4.2529482E+04   -1.6684221E+00
   6.1715634E-04   4.2203853E+04   -1.6679076E+00
   6.2000644E-04   4.1880815E+04   -1.6673940E+00
   6.2286969E-04   4.1560349E+04   -1.6668811E+00
