#        a       HoverH0(a)       dlogHdloga_of_a(a)
   1.0000000E-04   1.1204942E+06   -1.8713248E+00
   1.0046181E-04   1.1108759E+06   -1.8708840E+00
   1.0092575E-04   1.1013424E+06   -1.8704422E+00
   1.0139184E-04   1.0918929E+06   -1.8699995E+00
   1.0186008E-04   1.0825267E+06   -1.8695557E+00
   1.0233048E-04   1.0732430E+06   -1.8691110E+00
   1.0280305E-04   1.0640412E+06   -1.8686653E+00
   1.0327781E-04   1.0549204E+06   -1.8682186E+00
   1.0375475E-04   1.0458799E+06   -1.8677710E+00
   1.0423390E-04   1.0369190E+06   -1.8673224E+00
   1.0471527E-04   1.0280371E+06   -1.8668728E+00
   1.0519885E-04   1.0192334E+06   -1.8664222E+00
   1.0568467E-04   1.0105071E+06   -1.8659707E+00
   1.0617274E-04   1.0018576E+06   -1.8655182E+00
   1.0666305E-04   9.9328427E+05   -1.8650647E+00
   1.0715563E-04   9.8478635E+05   -1.8646103E+00
   1.0765049E-04   9.7636317E+05   -1.8641549E+00
   1.0814763E-04   9.6801407E+05   -1.8636986E+00
   1.0864707E-04   9.5973839E+05   -1.8632413E+00
   1.0914881E-04   9.5153547E+05   -1.8627830E+00
   1.0965287E-04   9.4340464E+05   -1.8623238E+00
   1.1015926E-04   9.3534528E+05   -1.8618636E+00
   1.1066799E-04   9.2735673E+05   -1.8614025E+00
   1.1117906E-04   9.1943837E+05   -1.8609404E+00
   1.1169250E-04   9.1158956E+05   -1.8604774E+00
   1.1220831E-04   9.0380969E+05   -1.8600135E+00
   1.1272650E-04   8.9609812E+05   -1.8595486E+00
   1.1324708E-04   8.8845426E+05   -1.8590828E+00
   1.1377007E-04   8.8087750E+05   -1.8586160E+00
   1.1429547E-04   8.7336724E+05   -1.8581483E+00
   1.1482330E-04   8.6592287E+05   -1.8576796E+00
   1.1535356E-04   8.5854381E+05   -1.8572101E+00
   1.1588628E-04   8.5122948E+05   -1.8567396E+00
   1.1642145E-04   8.4397929E+05   -1.8562682E+00
   1.1695910E-04   8.3679267E+05   -1.8557958E+00
   1.1749923E-04   8.2966906E+05   -1.8553225E+00
   1.1804185E-04   8.2260788E+05   -1.8548483E+00
   1.1858698E-04   8.1560858E+05   -1.8543732E+00
   1.1913463E-04   8.0867061E+05   -1.8538972E+00
   1.1968481E-04   8.0179342E+05   -1.8534203E+00
   1.2023752E-04   7.9497646E+05   -1.8529424E+00
   1.2079279E-04   7.8821920E+05   -1.8524637E+00
   1.2135063E-04   7.8152111E+05   -1.8519840E+00
   1.2191104E-04   7.7488164E+05   -1.8515034E+00
   1.2247403E-04   7.6830029E+05   -1.8510220E+00
   1.2303963E-04   7.6177652E+05   -1.8505396E+00
   1.2360784E-04   7.5530983E+05   -1.8500564E+00
   1.2417868E-04   7.4889970E+05   -1.8495722E+00
   1.2475215E-04   7.4254563E+05   -1.8490872E+00
   1.2532826E-04   7.3624712E+05   -1.8486013E+00
   1.2590704E-04   7.3000367E+05   -1.8481145E+00
   1.2648850E-04   7.2381479E+05   -1.8476268E+00
   1.2707263E-04   7.1767999E+05   -1.8471382E+00
   1.2765947E-04   7.1159879E+05   -1.8466488E+00
   1.2824901E-04   7.0557072E+05   -1.8461585E+00
   1.2884128E-04   6.9959529E+05   -1.8456673E+00
   1.2943628E-04   6.9367204E+05   -1.8451752E+00
   1.3003403E-04   6.8780049E+05   -1.8446823E+00
   1.3063454E-04   6.8198020E+05   -1.8441885E+00
   1.3123783E-04   6.7621070E+05   -1.8436939E+00
   1.3184390E-04   6.7049154E+05   -1.8431984E+00
   1.3245277E-04   6.6482227E+05   -1.8427021E+00
   1.3306445E-04   6.5920244E+05   -1.8422049E+00
   1.3367895E-04   6.5363162E+05   -1.8417068E+00
   1.3429630E-04   6.4810936E+05   -1.8412080E+00
   1.3491649E-04   6.4263524E+05   -1.8407083E+00
   1.3553955E-04   6.3720882E+05   -1.8402077E+00
   1.3616548E-04   6.3182968E+05   -1.8397063E+00
   1.3679431E-04   6.2649740E+05   -1.8392041E+00
   1.3742604E-04   6.2121156E+05   -1.8387011E+00
   1.3806069E-04   6.1597175E+05   -1.8381972E+00
   1.3869827E-04   6.1077755E+05   -1.8376925E+00
   1.3933879E-04   6.0562856E+05   -1.8371870E+00
   1.3998227E-04   6.0052438E+05   -1.8366807E+00
   1.4062872E-04   5.9546460E+05   -1.8361736E+00
   1.4127816E-04   5.9044884E+05   -1.8356656E+00
   1.4193060E-04   5.8547670E+05   -1.8351569E+00
   1.4258605E-04   5.8054778E+05   -1.8346474E+00
   1.4324453E-04   5.7566172E+05   -1.8341370E+00
   1.4390605E-04   5.7081812E+05   -1.8336259E+00
   1.4457062E-04   5.6601662E+05   -1.8331140E+00
   1.4523826E-04   5.6125682E+05   -1.8326013E+00
   1.4590899E-04   5.5653837E+05   -1.8320878E+00
   1.4658281E-04   5.5186089E+05   -1.8315736E+00
   1.4725974E-04   5.4722402E+05   -1.8310585E+00
   1.4793981E-04   5.4262740E+05   -1.8305427E+00
   1.4862301E-04   5.3807067E+05   -1.8300262E+00
   1.4930936E-04   5.3355347E+05   -1.8295089E+00
   1.4999889E-04   5.2907547E+05   -1.8289908E+00
   1.5069160E-04   5.2463629E+05   -1.8284719E+00
   1.5138751E-04   5.2023561E+05   -1.8279523E+00
   1.5208663E-04   5.1587308E+05   -1.8274320E+00
   1.5278899E-04   5.1154835E+05   -1.8269109E+00
   1.5349458E-04   5.0726110E+05   -1.8263891E+00
   1.5420343E-04   5.0301100E+05   -1.8258665E+00
   1.5491556E-04   4.9879770E+05   -1.8253432E+00
   1.5563098E-04   4.9462089E+05   -1.8248192E+00
   1.5634970E-04   4.9048024E+05   -1.8242945E+00
   1.5707174E-04   4.8637543E+05   -1.8237690E+00
   1.5779711E-04   4.8230614E+05   -1.8232429E+00
   1.5852584E-04   4.7827206E+05   -1.8227160E+00
   1.5925792E-04   4.7427287E+05   -1.8221884E+00
   1.5999339E-04   4.7030826E+05   -1.8216601E+00
   1.6073226E-04   4.6637794E+05   -1.8211311E+00
   1.6147454E-04   4.6248158E+05   -1.8206014E+00
   1.6222024E-04   4.5861890E+05   -1.8200710E+00
   1.6296939E-04   4.5478959E+05   -1.8195400E+00
   1.6372200E-04   4.5099336E+05   -1.8190082E+00
   1.6447809E-04   4.4722991E+05   -1.8184758E+00
   1.6523767E-04   4.4349896E+05   -1.8179427E+00
   1.6600075E-04   4.3980022E+05   -1.8174090E+00
   1.6676736E-04   4.3613339E+05   -1.8168745E+00
   1.6753751E-04   4.3249820E+05   -1.8163394E+00
   1.6831122E-04   4.2889437E+05   -1.8158037E+00
   1.6908849E-04   4.2532162E+05   -1.8152673E+00
   1.6986936E-04   4.2177967E+05   -1.8147303E+00
   1.7065384E-04   4.1826825E+05   -1.8141926E+00
   1.7144193E-04   4.1478710E+05   -1.8136543E+00
   1.7223367E-04   4.1133594E+05   -1.8131154E+00
   1.7302906E-04   4.0791451E+05   -1.8125758E+00
   1.7382813E-04   4.0452254E+05   -1.8120356E+00
   1.7463089E-04   4.0115978E+05   -1.8114948E+00
   1.7543735E-04   3.9782597E+05   -1.8109533E+00
   1.7624754E-04   3.9452084E+05   -1.8104113E+00
   1.7706147E-04   3.9124415E+05   -1.8098687E+00
   1.7787916E-04   3.8799565E+05   -1.8093254E+00
   1.7870062E-04   3.8477508E+05   -1.8087816E+00
   1.7952588E-04   3.8158220E+05   -1.8082372E+00
   1.8035495E-04   3.7841677E+05   -1.8076922E+00
   1.8118785E-04   3.7527853E+05   -1.8071466E+00
   1.8202459E-04   3.7216726E+05   -1.8066004E+00
   1.8286520E-04   3.6908271E+05   -1.8060537E+00
   1.8370969E-04   3.6602465E+05   -1.8055064E+00
   1.8455808E-04   3.6299285E+05   -1.8049585E+00
   1.8541039E-04   3.5998706E+05   -1.8044101E+00
   1.8626663E-04   3.5700707E+05   -1.8038611E+00
   1.8712683E-04   3.5405264E+05   -1.8033116E+00
   1.8799100E-04   3.5112356E+05   -1.8027616E+00
   1.8885917E-04   3.4821958E+05   -1.8022110E+00
   1.8973134E-04   3.4534050E+05   -1.8016599E+00
   1.9060754E-04   3.4248610E+05   -1.8011082E+00
   1.9148778E-04   3.3965615E+05   -1.8005561E+00
   1.9237209E-04   3.3685044E+05   -1.8000034E+00
   1.9326049E-04   3.3406876E+05   -1.7994502E+00
   1.9415299E-04   3.3131089E+05   -1.7988965E+00
   1.9504960E-04   3.2857663E+05   -1.7983423E+00
   1.9595036E-04   3.2586577E+05   -1.7977876E+00
   1.9685528E-04   3.2317811E+05   -1.7972325E+00
   1.9776438E-04   3.2051342E+05   -1.7966768E+00
   1.9867768E-04   3.1787153E+05   -1.7961207E+00
   1.9959519E-04   3.1525222E+05   -1.7955640E+00
   2.0051694E-04   3.1265529E+05   -1.7950070E+00
   2.0144295E-04   3.1008055E+05   -1.7944494E+00
   2.0237324E-04   3.0752781E+05   -1.7938914E+00
   2.0330782E-04   3.0499686E+05   -1.7933330E+00
   2.0424671E-04   3.0248753E+05   -1.7927741E+00
   2.0518995E-04   2.9999961E+05   -1.7922147E+00
   2.0613754E-04   2.9753292E+05   -1.7916550E+00
   2.0708950E-04   2.9508728E+05   -1.7910948E+00
   2.0804586E-04   2.9266249E+05   -1.7905341E+00
   2.0900664E-04   2.9025838E+05   -1.7899731E+00
   2.0997185E-04   2.8787476E+05   -1.7894116E+00
   2.1094152E-04   2.8551146E+05   -1.7888498E+00
   2.1191567E-04   2.8316829E+05   -1.7882875E+00
   2.1289432E-04   2.8084508E+05   -1.7877248E+00
   2.1387749E-04   2.7854165E+05   -1.7871618E+00
   2.1486520E-04   2.7625783E+05   -1.7865983E+00
   2.1585747E-04   2.7399344E+05   -1.7860345E+00
   2.1685432E-04   2.7174833E+05   -1.7854703E+00
   2.1785578E-04   2.6952231E+05   -1.7849057E+00
   2.1886186E-04   2.6731522E+05   -1.7843408E+00
   2.1987259E-04   2.6512689E+05   -1.7837755E+00
   2.2088798E-04   2.6295717E+05   -1.7832098E+00
   2.2190807E-04   2.6080588E+05   -1.7826438E+00
   2.2293286E-04   2.5867286E+05   -1.7820775E+00
   2.2396239E-04   2.5655796E+05   -1.7815108E+00
   2.2499667E-04   2.5446102E+05   -1.7809438E+00
   2.2603573E-04   2.5238187E+05   -1.7803765E+00
   2.2707958E-04   2.5032037E+05   -1.7798089E+00
   2.2812826E-04   2.4827636E+05   -1.7792409E+00
   2.2918178E-04   2.4624968E+05   -1.7786726E+00
   2.3024017E-04   2.4424018E+05   -1.7781041E+00
   2.3130344E-04   2.4224772E+05   -1.7775352E+00
   2.3237162E-04   2.4027214E+05   -1.7769661E+00
   2.3344474E-04   2.3831330E+05   -1.7763967E+00
   2.3452281E-04   2.3637105E+05   -1.7758270E+00
   2.3560586E-04   2.3444524E+05   -1.7752570E+00
   2.3669392E-04   2.3253573E+05   -1.7746867E+00
   2.3778699E-04   2.3064238E+05   -1.7741162E+00
   2.3888512E-04   2.2876505E+05   -1.7735455E+00
   2.3998831E-04   2.2690360E+05   -1.7729745E+00
   2.4109661E-04   2.2505789E+05   -1.7724032E+00
   2.4221001E-04   2.2322777E+05   -1.7718317E+00
   2.4332857E-04   2.2141313E+05   -1.7712600E+00
   2.4445228E-04   2.1961381E+05   -1.7706881E+00
   2.4558119E-04   2.1782969E+05   -1.7701159E+00
   2.4671531E-04   2.1606063E+05   -1.7695436E+00
   2.4785467E-04   2.1430651E+05   -1.7689710E+00
   2.4899928E-04   2.1256718E+05   -1.7683982E+00
   2.5014919E-04   2.1084253E+05   -1.7678252E+00
   2.5130440E-04   2.0913243E+05   -1.7672521E+00
   2.5246495E-04   2.0743674E+05   -1.7666787E+00
   2.5363086E-04   2.0575535E+05   -1.7661052E+00
   2.5480216E-04   2.0408812E+05   -1.7655315E+00
   2.5597886E-04   2.0243494E+05   -1.7649577E+00
   2.5716100E-04   2.0079568E+05   -1.7643837E+00
   2.5834859E-04   1.9917022E+05   -1.7638095E+00
   2.5954168E-04   1.9755844E+05   -1.7632352E+00
   2.6074027E-04   1.9596023E+05   -1.7626607E+00
   2.6194439E-04   1.9437546E+05   -1.7620861E+00
   2.6315408E-04   1.9280401E+05   -1.7615114E+00
   2.6436935E-04   1.9124578E+05   -1.7609366E+00
   2.6559024E-04   1.8970064E+05   -1.7603616E+00
   2.6681676E-04   1.8816848E+05   -1.7597866E+00
   2.6804895E-04   1.8664920E+05   -1.7592114E+00
   2.6928683E-04   1.8514267E+05   -1.7586361E+00
   2.7053042E-04   1.8364879E+05   -1.7580608E+00
   2.7177976E-04   1.8216744E+05   -1.7574853E+00
   2.7303487E-04   1.8069853E+05   -1.7569098E+00
   2.7429577E-04   1.7924193E+05   -1.7563342E+00
   2.7556250E-04   1.7779754E+05   -1.7557585E+00
   2.7683507E-04   1.7636527E+05   -1.7551828E+00
   2.7811353E-04   1.7494499E+05   -1.7546070E+00
   2.7939788E-04   1.7353661E+05   -1.7540312E+00
   2.8068817E-04   1.7214003E+05   -1.7534553E+00
   2.8198442E-04   1.7075514E+05   -1.7528794E+00
   2.8328665E-04   1.6938184E+05   -1.7523035E+00
   2.8459490E-04   1.6802003E+05   -1.7517275E+00
   2.8590919E-04   1.6666962E+05   -1.7511515E+00
   2.8722955E-04   1.6533049E+05   -1.7505755E+00
   2.8855600E-04   1.6400256E+05   -1.7499995E+00
   2.8988859E-04   1.6268573E+05   -1.7494235E+00
   2.9122732E-04   1.6137990E+05   -1.7488475E+00
   2.9257224E-04   1.6008497E+05   -1.7482715E+00
   2.9392337E-04   1.5880086E+05   -1.7476955E+00
   2.9528074E-04   1.5752747E+05   -1.7471196E+00
   2.9664438E-04   1.5626470E+05   -1.7465436E+00
   2.9801431E-04   1.5501246E+05   -1.7459678E+00
   2.9939057E-04   1.5377067E+05   -1.7453919E+00
   3.0077319E-04   1.5253923E+05   -1.7448161E+00
   3.0216219E-04   1.5131806E+05   -1.7442404E+00
   3.0355761E-04   1.5010706E+05   -1.7436647E+00
   3.0495947E-04   1.4890614E+05   -1.7430891E+00
   3.0636780E-04   1.4771523E+05   -1.7425136E+00
   3.0778264E-04   1.4653423E+05   -1.7419381E+00
   3.0920401E-04   1.4536305E+05   -1.7413627E+00
   3.1063195E-04   1.4420162E+05   -1.7407875E+00
   3.1206648E-04   1.4304985E+05   -1.7402123E+00
   3.1350764E-04   1.4190765E+05   -1.7396372E+00
   3.1495545E-04   1.4077494E+05   -1.7390622E+00
   3.1640994E-04   1.3965165E+05   -1.7384874E+00
   3.1787116E-04   1.3853769E+05   -1.7379126E+00
   3.1933912E-04   1.3743298E+05   -1.7373380E+00
   3.2081386E-04   1.3633743E+05   -1.7367635E+00
   3.2229541E-04   1.3525098E+05   -1.7361892E+00
   3.2378381E-04   1.3417354E+05   -1.7356150E+00
   3.2527908E-04   1.3310504E+05   -1.7350410E+00
   3.2678125E-04   1.3204539E+05   -1.7344671E+00
   3.2829036E-04   1.3099453E+05   -1.7338934E+00
   3.2980644E-04   1.2995237E+05   -1.7333198E+00
   3.3132952E-04   1.2891884E+05   -1.7327464E+00
   3.3285963E-04   1.2789387E+05   -1.7321733E+00
   3.3439681E-04   1.2687739E+05   -1.7316003E+00
   3.3594109E-04   1.2586932E+05   -1.7310274E+00
   3.3749250E-04   1.2486958E+05   -1.7304548E+00
   3.3905108E-04   1.2387812E+05   -1.7298824E+00
   3.4061685E-04   1.2289485E+05   -1.7293102E+00
   3.4218986E-04   1.2191970E+05   -1.7287383E+00
   3.4377013E-04   1.2095262E+05   -1.7281665E+00
   3.4535769E-04   1.1999351E+05   -1.7275950E+00
   3.4695259E-04   1.1904233E+05   -1.7270237E+00
   3.4855485E-04   1.1809900E+05   -1.7264527E+00
   3.5016452E-04   1.1716345E+05   -1.7258819E+00
   3.5178161E-04   1.1623562E+05   -1.7253113E+00
   3.5340618E-04   1.1531544E+05   -1.7247410E+00
   3.5503824E-04   1.1440285E+05   -1.7241710E+00
   3.5667785E-04   1.1349777E+05   -1.7236012E+00
   3.5832502E-04   1.1260015E+05   -1.7230318E+00
   3.5997981E-04   1.1170992E+05   -1.7224626E+00
   3.6164223E-04   1.1082703E+05   -1.7218937E+00
   3.6331233E-04   1.0995139E+05   -1.7213251E+00
   3.6499015E-04   1.0908296E+05   -1.7207568E+00
   3.6667571E-04   1.0822168E+05   -1.7201887E+00
   3.6836906E-04   1.0736747E+05   -1.7196211E+00
   3.7007022E-04   1.0652029E+05   -1.7190537E+00
   3.7177925E-04   1.0568007E+05   -1.7184866E+00
   3.7349616E-04   1.0484675E+05   -1.7179199E+00
   3.7522101E-04   1.0402027E+05   -1.7173535E+00
   3.7695382E-04   1.0320057E+05   -1.7167875E+00
   3.7869463E-04   1.0238760E+05   -1.7162217E+00
   3.8044348E-04   1.0158130E+05   -1.7156564E+00
   3.8220041E-04   1.0078162E+05   -1.7150914E+00
   3.8396545E-04   9.9988484E+04   -1.7145268E+00
   3.8573864E-04   9.9201852E+04   -1.7139625E+00
   3.8752002E-04   9.8421664E+04   -1.7133986E+00
   3.8930963E-04   9.7647866E+04   -1.7128351E+00
   3.9110750E-04   9.6880403E+04   -1.7122720E+00
   3.9291368E-04   9.6119221E+04   -1.7117092E+00
   3.9472820E-04   9.5364267E+04   -1.7111469E+00
   3.9655109E-04   9.4615487E+04   -1.7105849E+00
   3.9838241E-04   9.3872830E+04   -1.7100234E+00
   4.0022218E-04   9.3136243E+04   -1.7094623E+00
   4.0207045E-04   9.2405674E+04   -1.7089016E+00
   4.0392725E-04   9.1681073E+04   -1.7083413E+00
   4.0579263E-04   9.0962389E+04   -1.7077815E+00
   4.0766662E-04   9.0249571E+04   -1.7072220E+00
   4.0954927E-04   8.9542570E+04   -1.7066631E+00
   4.1144061E-04   8.8841336E+04   -1.7061045E+00
   4.1334068E-04   8.8145820E+04   -1.7055465E+00
   4.1524953E-04   8.7455974E+04   -1.7049888E+00
   4.1716720E-04   8.6771750E+04   -1.7044317E+00
   4.1909372E-04   8.6093099E+04   -1.7038750E+00
   4.2102914E-04   8.5419976E+04   -1.7033188E+00
   4.2297350E-04   8.4752332E+04   -1.7027630E+00
   4.2492683E-04   8.4090122E+04   -1.7022078E+00
   4.2688919E-04   8.3433300E+04   -1.7016530E+00
   4.2886061E-04   8.2781819E+04   -1.7010987E+00
   4.3084113E-04   8.2135636E+04   -1.7005449E+00
   4.3283080E-04   8.1494704E+04   -1.6999917E+00
   4.3482966E-04   8.0858979E+04   -1.6994389E+00
   4.3683775E-04   8.0228418E+04   -1.6988866E+00
   4.3885511E-04   7.9602977E+04   -1.6983349E+00
   4.4088179E-04   7.8982612E+04   -1.6977837E+00
   4.4291783E-04   7.8367280E+04   -1.6972330E+00
   4.4496327E-04   7.7756940E+04   -1.6966829E+00
   4.4701816E-04   7.7151549E+04   -1.6961333E+00
   4.4908253E-04   7.6551064E+04   -1.6955842E+00
   4.5115644E-04   7.5955446E+04   -1.6950357E+00
   4.5323993E-04   7.5364652E+04   -1.6944877E+00
   4.5533304E-04   7.4778642E+04   -1.6939403E+00
   4.5743582E-04   7.4197376E+04   -1.6933935E+00
   4.5954830E-04   7.3620814E+04   -1.6928472E+00
   4.6167054E-04   7.3048915E+04   -1.6923015E+00
   4.6380259E-04   7.2481642E+04   -1.6917564E+00
   4.6594448E-04   7.1918954E+04   -1.6912119E+00
   4.6809626E-04   7.1360813E+04   -1.6906680E+00
   4.7025797E-04   7.0807181E+04   -1.6901246E+00
   4.7242967E-04   7.0258020E+04   -1.6895819E+00
   4.7461140E-04   6.9713293E+04   -1.6890397E+00
   4.7680321E-04   6.9172961E+04   -1.6884982E+00
   4.7900514E-04   6.8636989E+04   -1.6879573E+00
   4.8121723E-04   6.8105339E+04   -1.6874169E+00
   4.8343954E-04   6.7577976E+04   -1.6868773E+00
   4.8567212E-04   6.7054863E+04   -1.6863382E+00
   4.8791500E-04   6.6535964E+04   -1.6857998E+00
   4.9016825E-04   6.6021244E+04   -1.6852620E+00
   4.9243189E-04   6.5510669E+04   -1.6847248E+00
   4.9470600E-04   6.5004203E+04   -1.6841883E+00
   4.9699060E-04   6.4501811E+04   -1.6836525E+00
   4.9928575E-04   6.4003461E+04   -1.6831173E+00
   5.0159151E-04   6.3509117E+04   -1.6825827E+00
   5.0390791E-04   6.3018746E+04   -1.6820488E+00
   5.0623501E-04   6.2532315E+04   -1.6815156E+00
   5.0857286E-04   6.2049792E+04   -1.6809831E+00
   5.1092150E-04   6.1571143E+04   -1.6804512E+00
   5.1328099E-04   6.1096335E+04   -1.6799200E+00
   5.1565137E-04   6.0625338E+04   -1.6793895E+00
   5.1803270E-04   6.0158118E+04   -1.6788597E+00
   5.2042503E-04   5.9694645E+04   -1.6783306E+00
   5.2282841E-04   5.9234887E+04   -1.6778021E+00
   5.2524289E-04   5.8778813E+04   -1.6772744E+00
   5.2766851E-04   5.8326392E+04   -1.6767474E+00
   5.3010534E-04   5.7877593E+04   -1.6762211E+00
   5.3255342E-04   5.7432387E+04   -1.6756955E+00
   5.3501281E-04   5.6990744E+04   -1.6751706E+00
   5.3748356E-04   5.6552634E+04   -1.6746465E+00
   5.3996571E-04   5.6118026E+04   -1.6741231E+00
   5.4245933E-04   5.5686893E+04   -1.6736004E+00
   5.4496446E-04   5.5259206E+04   -1.6730784E+00
   5.4748117E-04   5.4834935E+04   -1.6725572E+00
   5.5000949E-04   5.4414052E+04   -1.6720367E+00
   5.5254949E-04   5.3996528E+04   -1.6715170E+00
   5.5510123E-04   5.3582337E+04   -1.6709980E+00
   5.5766474E-04   5.3171450E+04   -1.6704797E+00
   5.6024010E-04   5.2763839E+04   -1.6699623E+00
   5.6282734E-04   5.2359478E+04   -1.6694456E+00
   5.6542654E-04   5.1958340E+04   -1.6689296E+00
   5.6803774E-04   5.1560397E+04   -1.6684144E+00
   5.7066099E-04   5.1165623E+04   -1.6679000E+00
   5.7329637E-04   5.0773992E+04   -1.6673864E+00
   5.7594391E-04   5.0385478E+04   -1.6668736E+00
   5.7860368E-04   5.0000055E+04   -1.6663615E+00
   5.8127573E-04   4.9617697E+04   -1.6658502E+00
   5.8396012E-04   4.9238379E+04   -1.6653397E+00
   5.8665691E-04   4.8862076E+04   -1.6648300E+00
   5.8936616E-04   4.8488762E+04   -1.6643211E+00
   5.9208791E-04   4.8118413E+04   -1.6638131E+00
   5.9482223E-04   4.7751005E+04   -1.6633058E+00
   5.9756919E-04   4.7386512E+04   -1.6627993E+00
   6.0032882E-04   4.7024912E+04   -1.6622936E+00
   6.0310120E-04   4.6666179E+04   -1.6617888E+00
   6.0588639E-04   4.6310291E+04   -1.6612848E+00
   6.0868443E-04   4.5957223E+04   -1.6607815E+00
   6.1149540E-04   4.5606953E+04   -1.6602792E+00
   6.1431935E-04   4.5259457E+04   -1.6597776E+00
   6.1715634E-04   4.4914713E+04   -1.6592769E+00
   6.2000644E-04   4.4572697E+04   -1.6587770E+00
   6.2286969E-04   4.4233388E+04   -1.6582780E+00
