#        a       HoverH0(a)       dlogHdloga_of_a(a)
   1.0000000E-04   1.0369126E+06   -1.8770949E+00
   1.0046181E-04   1.0279843E+06   -1.8766673E+00
   1.0092575E-04   1.0191350E+06   -1.8762387E+00
   1.0139184E-04   1.0103638E+06   -1.8758091E+00
   1.0186008E-04   1.0016701E+06   -1.8753785E+00
   1.0233048E-04   9.9305322E+05   -1.8749469E+00
   1.0280305E-04   9.8451240E+05   -1.8745143E+00
   1.0327781E-04   9.7604697E+05   -1.8740808E+00
   1.0375475E-04   9.6765627E+05   -1.8736462E+00
   1.0423390E-04   9.5933963E+05   -1.8732106E+00
   1.0471527E-04   9.5109637E+05   -1.8727741E+00
   1.0519885E-04   9.4292585E+05   -1.8723365E+00
   1.0568467E-04   9.3482740E+05   -1.8718980E+00
   1.0617274E-04   9.2680038E+05   -1.8714585E+00
   1.0666305E-04   9.1884415E+05   -1.8710180E+00
   1.0715563E-04   9.1095807E+05   -1.8705765E+00
   1.0765049E-04   9.0314152E+05   -1.8701340E+00
   1.0814763E-04   8.9539386E+05   -1.8696906E+00
   1.0864707E-04   8.8771448E+05   -1.8692462E+00
   1.0914881E-04   8.8010277E+05   -1.8688007E+00
   1.0965287E-04   8.7255812E+05   -1.8683544E+00
   1.1015926E-04   8.6507992E+05   -1.8679070E+00
   1.1066799E-04   8.5766759E+05   -1.8674587E+00
   1.1117906E-04   8.5032052E+05   -1.8670094E+00
   1.1169250E-04   8.4303814E+05   -1.8665591E+00
   1.1220831E-04   8.3581987E+05   -1.8661079E+00
   1.1272650E-04   8.2866512E+05   -1.8656557E+00
   1.1324708E-04   8.2157333E+05   -1.8652025E+00
   1.1377007E-04   8.1454394E+05   -1.8647484E+00
   1.1429547E-04   8.0757639E+05   -1.8642933E+00
   1.1482330E-04   8.0067011E+05   -1.8638372E+00
   1.1535356E-04   7.9382457E+05   -1.8633802E+00
   1.1588628E-04   7.8703921E+05   -1.8629222E+00
   1.1642145E-04   7.8031350E+05   -1.8624633E+00
   1.1695910E-04   7.7364690E+05   -1.8620034E+00
   1.1749923E-04   7.6703888E+05   -1.8615426E+00
   1.1804185E-04   7.6048893E+05   -1.8610808E+00
   1.1858698E-04   7.5399651E+05   -1.8606181E+00
   1.1913463E-04   7.4756111E+05   -1.8601544E+00
   1.1968481E-04   7.4118222E+05   -1.8596898E+00
   1.2023752E-04   7.3485934E+05   -1.8592243E+00
   1.2079279E-04   7.2859196E+05   -1.8587578E+00
   1.2135063E-04   7.2237959E+05   -1.8582903E+00
   1.2191104E-04   7.1622174E+05   -1.8578220E+00
   1.2247403E-04   7.1011791E+05   -1.8573527E+00
   1.2303963E-04   7.0406762E+05   -1.8568825E+00
   1.2360784E-04   6.9807040E+05   -1.8564113E+00
   1.2417868E-04   6.9212576E+05   -1.8559393E+00
   1.2475215E-04   6.8623324E+05   -1.8554663E+00
   1.2532826E-04   6.8039237E+05   -1.8549924E+00
   1.2590704E-04   6.7460269E+05   -1.8545175E+00
   1.2648850E-04   6.6886374E+05   -1.8540418E+00
   1.2707263E-04   6.6317507E+05   -1.8535651E+00
   1.2765947E-04   6.5753623E+05   -1.8530875E+00
   1.2824901E-04   6.5194677E+05   -1.8526091E+00
   1.2884128E-04   6.4640625E+05   -1.8521297E+00
   1.2943628E-04   6.4091423E+05   -1.8516494E+00
   1.3003403E-04   6.3547028E+05   -1.8511682E+00
   1.3063454E-04   6.3007397E+05   -1.8506861E+00
   1.3123783E-04   6.2472487E+05   -1.8502031E+00
   1.3184390E-04   6.1942257E+05   -1.8497192E+00
   1.3245277E-04   6.1416663E+05   -1.8492345E+00
   1.3306445E-04   6.0895666E+05   -1.8487488E+00
   1.3367895E-04   6.0379224E+05   -1.8482623E+00
   1.3429630E-04   5.9867295E+05   -1.8477748E+00
   1.3491649E-04   5.9359841E+05   -1.8472865E+00
   1.3553955E-04   5.8856820E+05   -1.8467974E+00
   1.3616548E-04   5.8358194E+05   -1.8463073E+00
   1.3679431E-04   5.7863923E+05   -1.8458164E+00
   1.3742604E-04   5.7373968E+05   -1.8453246E+00
   1.3806069E-04   5.6888291E+05   -1.8448319E+00
   1.3869827E-04   5.6406853E+05   -1.8443384E+00
   1.3933879E-04   5.5929616E+05   -1.8438441E+00
   1.3998227E-04   5.5456544E+05   -1.8433488E+00
   1.4062872E-04   5.4987599E+05   -1.8428527E+00
   1.4127816E-04   5.4522744E+05   -1.8423558E+00
   1.4193060E-04   5.4061943E+05   -1.8418580E+00
   1.4258605E-04   5.3605159E+05   -1.8413594E+00
   1.4324453E-04   5.3152357E+05   -1.8408599E+00
   1.4390605E-04   5.2703501E+05   -1.8403596E+00
   1.4457062E-04   5.2258556E+05   -1.8398585E+00
   1.4523826E-04   5.1817487E+05   -1.8393565E+00
   1.4590899E-04   5.1380260E+05   -1.8388537E+00
   1.4658281E-04   5.0946841E+05   -1.8383501E+00
   1.4725974E-04   5.0517194E+05   -1.8378457E+00
   1.4793981E-04   5.0091288E+05   -1.8373404E+00
   1.4862301E-04   4.9669088E+05   -1.8368343E+00
   1.4930936E-04   4.9250561E+05   -1.8363274E+00
   1.4999889E-04   4.8835676E+05   -1.8358198E+00
   1.5069160E-04   4.8424398E+05   -1.8353113E+00
   1.5138751E-04   4.8016697E+05   -1.8348020E+00
   1.5208663E-04   4.7612540E+05   -1.8342919E+00
   1.5278899E-04   4.7211896E+05   -1.8337810E+00
   1.5349458E-04   4.6814734E+05   -1.8332693E+00
   1.5420343E-04   4.6421022E+05   -1.8327569E+00
   1.5491556E-04   4.6030731E+05   -1.8322436E+00
   1.5563098E-04   4.5643828E+05   -1.8317296E+00
   1.5634970E-04   4.5260285E+05   -1.8312148E+00
   1.5707174E-04   4.4880071E+05   -1.8306992E+00
   1.5779711E-04   4.4503158E+05   -1.8301829E+00
   1.5852584E-04   4.4129514E+05   -1.8296658E+00
   1.5925792E-04   4.3759112E+05   -1.8291479E+00
   1.5999339E-04   4.3391923E+05   -1.8286293E+00
   1.6073226E-04   4.3027917E+05   -1.8281099E+00
   1.6147454E-04   4.2667068E+05   -1.8275898E+00
   1.6222024E-04   4.2309346E+05   -1.8270690E+00
   1.6296939E-04   4.1954724E+05   -1.8265474E+00
   1.6372200E-04   4.1603174E+05   -1.8260250E+00
   1.6447809E-04   4.1254670E+05   -1.8255020E+00
   1.6523767E-04   4.0909183E+05   -1.8249782E+00
   1.6600075E-04   4.0566688E+05   -1.8244536E+00
   1.6676736E-04   4.0227157E+05   -1.8239284E+00
   1.6753751E-04   3.9890565E+05   -1.8234024E+00
   1.6831122E-04   3.9556885E+05   -1.8228758E+00
   1.6908849E-04   3.9226091E+05   -1.8223484E+00
   1.6986936E-04   3.8898159E+05   -1.8218203E+00
   1.7065384E-04   3.8573061E+05   -1.8212915E+00
   1.7144193E-04   3.8250775E+05   -1.8207620E+00
   1.7223367E-04   3.7931273E+05   -1.8202319E+00
   1.7302906E-04   3.7614532E+05   -1.8197010E+00
   1.7382813E-04   3.7300528E+05   -1.8191695E+00
   1.7463089E-04   3.6989235E+05   -1.8186372E+00
   1.7543735E-04   3.6680630E+05   -1.8181043E+00
   1.7624754E-04   3.6374689E+05   -1.8175708E+00
   1.7706147E-04   3.6071389E+05   -1.8170366E+00
   1.7787916E-04   3.5770706E+05   -1.8165017E+00
   1.7870062E-04   3.5472617E+05   -1.8159661E+00
   1.7952588E-04   3.5177098E+05   -1.8154299E+00
   1.8035495E-04   3.4884128E+05   -1.8148931E+00
   1.8118785E-04   3.4593684E+05   -1.8143556E+00
   1.8202459E-04   3.4305742E+05   -1.8138175E+00
   1.8286520E-04   3.4020282E+05   -1.8132787E+00
   1.8370969E-04   3.3737281E+05   -1.8127393E+00
   1.8455808E-04   3.3456717E+05   -1.8121993E+00
   1.8541039E-04   3.3178569E+05   -1.8116587E+00
   1.8626663E-04   3.2902816E+05   -1.8111174E+00
   1.8712683E-04   3.2629436E+05   -1.8105756E+00
   1.8799100E-04   3.2358408E+05   -1.8100331E+00
   1.8885917E-04   3.2089711E+05   -1.8094900E+00
   1.8973134E-04   3.1823326E+05   -1.8089464E+00
   1.9060754E-04   3.1559231E+05   -1.8084021E+00
   1.9148778E-04   3.1297406E+05   -1.8078573E+00
   1.9237209E-04   3.1037831E+05   -1.8073119E+00
   1.9326049E-04   3.0780486E+05   -1.8067659E+00
   1.9415299E-04   3.0525352E+05   -1.8062193E+00
   1.9504960E-04   3.0272409E+05   -1.8056722E+00
   1.9595036E-04   3.0021638E+05   -1.8051245E+00
   1.9685528E-04   2.9773019E+05   -1.8045762E+00
   1.9776438E-04   2.9526534E+05   -1.8040274E+00
   1.9867768E-04   2.9282163E+05   -1.8034781E+00
   1.9959519E-04   2.9039888E+05   -1.8029282E+00
   2.0051694E-04   2.8799691E+05   -1.8023778E+00
   2.0144295E-04   2.8561554E+05   -1.8018268E+00
   2.0237324E-04   2.8325457E+05   -1.8012753E+00
   2.0330782E-04   2.8091383E+05   -1.8007233E+00
   2.0424671E-04   2.7859314E+05   -1.8001708E+00
   2.0518995E-04   2.7629233E+05   -1.7996177E+00
   2.0613754E-04   2.7401122E+05   -1.7990642E+00
   2.0708950E-04   2.7174964E+05   -1.7985101E+00
   2.0804586E-04   2.6950741E+05   -1.7979556E+00
   2.0900664E-04   2.6728437E+05   -1.7974006E+00
   2.0997185E-04   2.6508034E+05   -1.7968450E+00
   2.1094152E-04   2.6289516E+05   -1.7962890E+00
   2.1191567E-04   2.6072866E+05   -1.7957326E+00
   2.1289432E-04   2.5858067E+05   -1.7951756E+00
   2.1387749E-04   2.5645105E+05   -1.7946182E+00
   2.1486520E-04   2.5433961E+05   -1.7940604E+00
   2.1585747E-04   2.5224621E+05   -1.7935020E+00
   2.1685432E-04   2.5017068E+05   -1.7929433E+00
   2.1785578E-04   2.4811286E+05   -1.7923841E+00
   2.1886186E-04   2.4607261E+05   -1.7918244E+00
   2.1987259E-04   2.4404977E+05   -1.7912643E+00
   2.2088798E-04   2.4204418E+05   -1.7907038E+00
   2.2190807E-04   2.4005569E+05   -1.7901429E+00
   2.2293286E-04   2.3808415E+05   -1.7895816E+00
   2.2396239E-04   2.3612942E+05   -1.7890198E+00
   2.2499667E-04   2.3419134E+05   -1.7884576E+00
   2.2603573E-04   2.3226977E+05   -1.7878951E+00
   2.2707958E-04   2.3036456E+05   -1.7873321E+00
   2.2812826E-04   2.2847558E+05   -1.7867688E+00
   2.2918178E-04   2.2660267E+05   -1.7862051E+00
   2.3024017E-04   2.2474570E+05   -1.7856410E+00
   2.3130344E-04   2.2290452E+05   -1.7850765E+00
   2.3237162E-04   2.2107901E+05   -1.7845117E+00
   2.3344474E-04   2.1926901E+05   -1.7839465E+00
   2.3452281E-04   2.1747441E+05   -1.7833809E+00
   2.3560586E-04   2.1569505E+05   -1.7828150E+00
   2.3669392E-04   2.1393081E+05   -1.7822488E+00
   2.3778699E-04   2.1218155E+05   -1.7816822E+00
   2.3888512E-04   2.1044714E+05   -1.7811153E+00
   2.3998831E-04   2.0872746E+05   -1.7805481E+00
   2.4109661E-04   2.0702237E+05   -1.7799805E+00
   2.4221001E-04   2.0533175E+05   -1.7794127E+00
   2.4332857E-04   2.0365546E+05   -1.7788445E+00
   2.4445228E-04   2.0199339E+05   -1.7782760E+00
   2.4558119E-04   2.0034541E+05   -1.7777073E+00
   2.4671531E-04   1.9871140E+05   -1.7771382E+00
   2.4785467E-04   1.9709123E+05   -1.7765688E+00
   2.4899928E-04   1.9548478E+05   -1.7759992E+00
   2.5014919E-04   1.9389194E+05   -1.7754293E+00
   2.5130440E-04   1.9231257E+05   -1.7748591E+00
   2.5246495E-04   1.9074658E+05   -1.7742887E+00
   2.5363086E-04   1.8919383E+05   -1.7737180E+00
   2.5480216E-04   1.8765422E+05   -1.7731471E+00
   2.5597886E-04   1.8612763E+05   -1.7725759E+00
   2.5716100E-04   1.8461394E+05   -1.7720045E+00
   2.5834859E-04   1.8311304E+05   -1.7714328E+00
   2.5954168E-04   1.8162483E+05   -1.7708609E+00
   2.6074027E-04   1.8014918E+05   -1.7702888E+00
   2.6194439E-04   1.7868599E+05   -1.7697165E+00
   2.6315408E-04   1.7723516E+05   -1.7691440E+00
   2.6436935E-04   1.7579657E+05   -1.7685713E+00
   2.6559024E-04   1.7437012E+05   -1.7679984E+00
   2.6681676E-04   1.7295570E+05   -1.7674253E+00
   2.6804895E-04   1.7155320E+05   -1.7668520E+00
   2.6928683E-04   1.7016253E+05   -1.7662785E+00
   2.7053042E-04   1.6878357E+05   -1.7657048E+00
   2.7177976E-04   1.6741624E+05   -1.7651310E+00
   2.7303487E-04   1.6606041E+05   -1.7645571E+00
   2.7429577E-04   1.6471601E+05   -1.7639829E+00
   2.7556250E-04   1.6338292E+05   -1.7634086E+00
   2.7683507E-04   1.6206105E+05   -1.7628342E+00
   2.7811353E-04   1.6075030E+05   -1.7622597E+00
   2.7939788E-04   1.5945057E+05   -1.7616850E+00
   2.8068817E-04   1.5816177E+05   -1.7611102E+00
   2.8198442E-04   1.5688381E+05   -1.7605352E+00
   2.8328665E-04   1.5561658E+05   -1.7599602E+00
   2.8459490E-04   1.5436000E+05   -1.7593851E+00
   2.8590919E-04   1.5311397E+05   -1.7588098E+00
   2.8722955E-04   1.5187840E+05   -1.7582345E+00
   2.8855600E-04   1.5065320E+05   -1.7576590E+00
   2.8988859E-04   1.4943828E+05   -1.7570835E+00
   2.9122732E-04   1.4823355E+05   -1.7565079E+00
   2.9257224E-04   1.4703892E+05   -1.7559323E+00
   2.9392337E-04   1.4585431E+05   -1.7553566E+00
   2.9528074E-04   1.4467962E+05   -1.7547808E+00
   2.9664438E-04   1.4351478E+05   -1.7542050E+00
   2.9801431E-04   1.4235969E+05   -1.7536291E+00
   2.9939057E-04   1.4121427E+05   -1.7530532E+00
   3.0077319E-04   1.4007844E+05   -1.7524772E+00
   3.0216219E-04   1.3895212E+05   -1.7519013E+00
   3.0355761E-04   1.3783522E+05   -1.7513253E+00
   3.0495947E-04   1.3672766E+05   -1.7507493E+00
   3.0636780E-04   1.3562936E+05   -1.7501732E+00
   3.0778264E-04   1.3454023E+05   -1.7495972E+00
   3.0920401E-04   1.3346021E+05   -1.7490212E+00
   3.1063195E-04   1.3238921E+05   -1.7484452E+00
   3.1206648E-04   1.3132715E+05   -1.7478692E+00
   3.1350764E-04   1.3027396E+05   -1.7472933E+00
   3.1495545E-04   1.2922956E+05   -1.7467173E+00
   3.1640994E-04   1.2819387E+05   -1.7461414E+00
   3.1787116E-04   1.2716682E+05   -1.7455655E+00
   3.1933912E-04   1.2614833E+05   -1.7449897E+00
   3.2081386E-04   1.2513833E+05   -1.7444140E+00
   3.2229541E-04   1.2413675E+05   -1.7438383E+00
   3.2378381E-04   1.2314351E+05   -1.7432626E+00
   3.2527908E-04   1.2215854E+05   -1.7426870E+00
   3.2678125E-04   1.2118177E+05   -1.7421115E+00
   3.2829036E-04   1.2021312E+05   -1.7415361E+00
   3.2980644E-04   1.1925254E+05   -1.7409608E+00
   3.3132952E-04   1.1829995E+05   -1.7403856E+00
   3.3285963E-04   1.1735528E+05   -1.7398105E+00
   3.3439681E-04   1.1641846E+05   -1.7392354E+00
   3.3594109E-04   1.1548942E+05   -1.7386605E+00
   3.3749250E-04   1.1456810E+05   -1.7380858E+00
   3.3905108E-04   1.1365443E+05   -1.7375111E+00
   3.4061685E-04   1.1274835E+05   -1.7369366E+00
   3.4218986E-04   1.1184979E+05   -1.7363622E+00
   3.4377013E-04   1.1095868E+05   -1.7357879E+00
   3.4535769E-04   1.1007496E+05   -1.7352138E+00
   3.4695259E-04   1.0919857E+05   -1.7346399E+00
   3.4855485E-04   1.0832944E+05   -1.7340661E+00
   3.5016452E-04   1.0746752E+05   -1.7334925E+00
   3.5178161E-04   1.0661273E+05   -1.7329191E+00
   3.5340618E-04   1.0576502E+05   -1.7323458E+00
   3.5503824E-04   1.0492433E+05   -1.7317727E+00
   3.5667785E-04   1.0409060E+05   -1.7311999E+00
   3.5832502E-04   1.0326376E+05   -1.7306272E+00
   3.5997981E-04   1.0244377E+05   -1.7300547E+00
   3.6164223E-04   1.0163055E+05   -1.7294824E+00
   3.6331233E-04   1.0082405E+05   -1.7289104E+00
   3.6499015E-04   1.0002422E+05   -1.7283385E+00
   3.6667571E-04   9.9230992E+04   -1.7277669E+00
   3.6836906E-04   9.8444315E+04   -1.7271956E+00
   3.7007022E-04   9.7664132E+04   -1.7266244E+00
   3.7177925E-04   9.6890387E+04   -1.7260535E+00
   3.7349616E-04   9.6123024E+04   -1.7254829E+00
   3.7522101E-04   9.5361990E+04   -1.7249125E+00
   3.7695382E-04   9.4607229E+04   -1.7243424E+00
   3.7869463E-04   9.3858689E+04   -1.7237726E+00
   3.8044348E-04   9.3116316E+04   -1.7232030E+00
   3.8220041E-04   9.2380057E+04   -1.7226337E+00
   3.8396545E-04   9.1649859E+04   -1.7220647E+00
   3.8573864E-04   9.0925672E+04   -1.7214960E+00
   3.8752002E-04   9.0207443E+04   -1.7209276E+00
   3.8930963E-04   8.9495122E+04   -1.7203595E+00
   3.9110750E-04   8.8788659E+04   -1.7197917E+00
   3.9291368E-04   8.8088002E+04   -1.7192242E+00
   3.9472820E-04   8.7393102E+04   -1.7186570E+00
   3.9655109E-04   8.6703911E+04   -1.7180902E+00
   3.9838241E-04   8.6020380E+04   -1.7175237E+00
   4.0022218E-04   8.5342460E+04   -1.7169575E+00
   4.0207045E-04   8.4670104E+04   -1.7163917E+00
   4.0392725E-04   8.4003263E+04   -1.7158262E+00
   4.0579263E-04   8.3341892E+04   -1.7152611E+00
   4.0766662E-04   8.2685943E+04   -1.7146963E+00
   4.0954927E-04   8.2035369E+04   -1.7141319E+00
   4.1144061E-04   8.1390127E+04   -1.7135679E+00
   4.1334068E-04   8.0750169E+04   -1.7130043E+00
   4.1524953E-04   8.0115451E+04   -1.7124410E+00
   4.1716720E-04   7.9485928E+04   -1.7118781E+00
   4.1909372E-04   7.8861556E+04   -1.7113156E+00
   4.2102914E-04   7.8242291E+04   -1.7107536E+00
   4.2297350E-04   7.7628090E+04   -1.7101919E+00
   4.2492683E-04   7.7018910E+04   -1.7096306E+00
   4.2688919E-04   7.6414708E+04   -1.7090698E+00
   4.2886061E-04   7.5815442E+04   -1.7085094E+00
   4.3084113E-04   7.5221069E+04   -1.7079494E+00
   4.3283080E-04   7.4631549E+04   -1.7073898E+00
   4.3482966E-04   7.4046840E+04   -1.7068307E+00
   4.3683775E-04   7.3466900E+04   -1.7062720E+00
   4.3885511E-04   7.2891691E+04   -1.7057138E+00
   4.4088179E-04   7.2321171E+04   -1.7051560E+00
   4.4291783E-04   7.1755301E+04   -1.7045987E+00
   4.4496327E-04   7.1194041E+04   -1.7040419E+00
   4.4701816E-04   7.0637352E+04   -1.7034855E+00
   4.4908253E-04   7.0085196E+04   -1.7029296E+00
   4.5115644E-04   6.9537534E+04   -1.7023741E+00
   4.5323993E-04   6.8994328E+04   -1.7018192E+00
   4.5533304E-04   6.8455540E+04   -1.7012648E+00
   4.5743582E-04   6.7921133E+04   -1.7007108E+00
   4.5954830E-04   6.7391071E+04   -1.7001574E+00
   4.6167054E-04   6.6865315E+04   -1.6996044E+00
   4.6380259E-04   6.6343830E+04   -1.6990520E+00
   4.6594448E-04   6.5826579E+04   -1.6985001E+00
   4.6809626E-04   6.5313527E+04   -1.6979487E+00
   4.7025797E-04   6.4804639E+04   -1.6973979E+00
   4.7242967E-04   6.4299878E+04   -1.6968475E+00
   4.7461140E-04   6.3799211E+04   -1.6962977E+00
   4.7680321E-04   6.3302602E+04   -1.6957485E+00
   4.7900514E-04   6.2810018E+04   -1.6951998E+00
   4.8121723E-04   6.2321424E+04   -1.6946517E+00
   4.8343954E-04   6.1836788E+04   -1.6941041E+00
   4.8567212E-04   6.1356074E+04   -1.6935571E+00
   4.8791500E-04   6.0879252E+04   -1.6930106E+00
   4.9016825E-04   6.0406286E+04   -1.6924647E+00
   4.9243189E-04   5.9937146E+04   -1.6919194E+00
   4.9470600E-04   5.9471799E+04   -1.6913747E+00
   4.9699060E-04   5.9010212E+04   -1.6908306E+00
   4.9928575E-04   5.8552355E+04   -1.6902870E+00
   5.0159151E-04   5.8098196E+04   -1.6897441E+00
   5.0390791E-04   5.7647703E+04   -1.6892017E+00
   5.0623501E-04   5.7200847E+04   -1.6886600E+00
   5.0857286E-04   5.6757595E+04   -1.6881188E+00
   5.1092150E-04   5.6317919E+04   -1.6875783E+00
   5.1328099E-04   5.5881789E+04   -1.6870384E+00
   5.1565137E-04   5.5449173E+04   -1.6864992E+00
   5.1803270E-04   5.5020043E+04   -1.6859605E+00
   5.2042503E-04   5.4594370E+04   -1.6854225E+00
   5.2282841E-04   5.4172124E+04   -1.6848852E+00
   5.2524289E-04   5.3753277E+04   -1.6843484E+00
   5.2766851E-04   5.3337800E+04   -1.6838124E+00
   5.3010534E-04   5.2925665E+04   -1.6832770E+00
   5.3255342E-04   5.2516844E+04   -1.6827422E+00
   5.3501281E-04   5.2111310E+04   -1.6822081E+00
   5.3748356E-04   5.1709034E+04   -1.6816747E+00
   5.3996571E-04   5.1309989E+04   -1.6811419E+00
   5.4245933E-04   5.0914149E+04   -1.6806098E+00
   5.4496446E-04   5.0521487E+04   -1.6800784E+00
   5.4748117E-04   5.0131975E+04   -1.6795476E+00
   5.5000949E-04   4.9745588E+04   -1.6790176E+00
   5.5254949E-04   4.9362300E+04   -1.6784883E+00
   5.5510123E-04   4.8982084E+04   -1.6779596E+00
   5.5766474E-04   4.8604915E+04   -1.6774316E+00
   5.6024010E-04   4.8230768E+04   -1.6769044E+00
   5.6282734E-04   4.7859617E+04   -1.6763779E+00
   5.6542654E-04   4.7491437E+04   -1.6758520E+00
   5.6803774E-04   4.7126204E+04   -1.6753269E+00
   5.7066099E-04   4.6763892E+04   -1.6748025E+00
   5.7329637E-04   4.6404478E+04   -1.6742789E+00
   5.7594391E-04   4.6047937E+04   -1.6737559E+00
   5.7860368E-04   4.5694246E+04   -1.6732337E+00
   5.8127573E-04   4.5343381E+04   -1.6727122E+00
   5.8396012E-04   4.4995318E+04   -1.6721915E+00
   5.8665691E-04   4.4650033E+04   -1.6716715E+00
   5.8936616E-04   4.4307505E+04   -1.6711523E+00
   5.9208791E-04   4.3967709E+04   -1.6706338E+00
   5.9482223E-04   4.3630623E+04   -1.6701161E+00
   5.9756919E-04   4.3296225E+04   -1.6695991E+00
   6.0032882E-04   4.2964491E+04   -1.6690829E+00
   6.0310120E-04   4.2635401E+04   -1.6685675E+00
   6.0588639E-04   4.2308932E+04   -1.6680529E+00
   6.0868443E-04   4.1985063E+04   -1.6675390E+00
   6.1149540E-04   4.1663771E+04   -1.6670259E+00
   6.1431935E-04   4.1345035E+04   -1.6665135E+00
   6.1715634E-04   4.1028835E+04   -1.6660020E+00
   6.2000644E-04   4.0715149E+04   -1.6654913E+00
   6.2286969E-04   4.0403956E+04   -1.6649813E+00
