#        a       HoverH0(a)       dlogHdloga_of_a(a)
   1.0000000E-04   1.1023892E+06   -1.8980703E+00
   1.0046181E-04   1.0927914E+06   -1.8976958E+00
   1.0092575E-04   1.0832791E+06   -1.8973204E+00
   1.0139184E-04   1.0738515E+06   -1.8969439E+00
   1.0186008E-04   1.0645077E+06   -1.8965664E+00
   1.0233048E-04   1.0552471E+06   -1.8961879E+00
   1.0280305E-04   1.0460688E+06   -1.8958084E+00
   1.0327781E-04   1.0369722E+06   -1.8954279E+00
   1.0375475E-04   1.0279565E+06   -1.8950463E+00
   1.0423390E-04   1.0190210E+06   -1.8946637E+00
   1.0471527E-04   1.0101650E+06   -1.8942801E+00
   1.0519885E-04   1.0013877E+06   -1.8938954E+00
   1.0568467E-04   9.9268838E+05   -1.8935098E+00
   1.0617274E-04   9.8406641E+05   -1.8931231E+00
   1.0666305E-04   9.7552108E+05   -1.8927354E+00
   1.0715563E-04   9.6705168E+05   -1.8923467E+00
   1.0765049E-04   9.5865753E+05   -1.8919569E+00
   1.0814763E-04   9.5033795E+05   -1.8915662E+00
   1.0864707E-04   9.4209227E+05   -1.8911744E+00
   1.0914881E-04   9.3391982E+05   -1.8907816E+00
   1.0965287E-04   9.2581994E+05   -1.8903878E+00
   1.1015926E-04   9.1779198E+05   -1.8899929E+00
   1.1066799E-04   9.0983529E+05   -1.8895970E+00
   1.1117906E-04   9.0194922E+05   -1.8892002E+00
   1.1169250E-04   8.9413315E+05   -1.8888023E+00
   1.1220831E-04   8.8638643E+05   -1.8884033E+00
   1.1272650E-04   8.7870845E+05   -1.8880034E+00
   1.1324708E-04   8.7109859E+05   -1.8876024E+00
   1.1377007E-04   8.6355622E+05   -1.8872004E+00
   1.1429547E-04   8.5608075E+05   -1.8867974E+00
   1.1482330E-04   8.4867157E+05   -1.8863934E+00
   1.1535356E-04   8.4132808E+05   -1.8859884E+00
   1.1588628E-04   8.3404970E+05   -1.8855823E+00
   1.1642145E-04   8.2683582E+05   -1.8851753E+00
   1.1695910E-04   8.1968588E+05   -1.8847672E+00
   1.1749923E-04   8.1259930E+05   -1.8843581E+00
   1.1804185E-04   8.0557551E+05   -1.8839480E+00
   1.1858698E-04   7.9861393E+05   -1.8835369E+00
   1.1913463E-04   7.9171402E+05   -1.8831247E+00
   1.1968481E-04   7.8487522E+05   -1.8827116E+00
   1.2023752E-04   7.7809697E+05   -1.8822974E+00
   1.2079279E-04   7.7137873E+05   -1.8818822E+00
   1.2135063E-04   7.6471997E+05   -1.8814660E+00
   1.2191104E-04   7.5812014E+05   -1.8810488E+00
   1.2247403E-04   7.5157872E+05   -1.8806306E+00
   1.2303963E-04   7.4509517E+05   -1.8802114E+00
   1.2360784E-04   7.3866899E+05   -1.8797912E+00
   1.2417868E-04   7.3229965E+05   -1.8793700E+00
   1.2475215E-04   7.2598664E+05   -1.8789478E+00
   1.2532826E-04   7.1972945E+05   -1.8785245E+00
   1.2590704E-04   7.1352759E+05   -1.8781003E+00
   1.2648850E-04   7.0738055E+05   -1.8776750E+00
   1.2707263E-04   7.0128784E+05   -1.8772488E+00
   1.2765947E-04   6.9524898E+05   -1.8768215E+00
   1.2824901E-04   6.8926348E+05   -1.8763933E+00
   1.2884128E-04   6.8333086E+05   -1.8759641E+00
   1.2943628E-04   6.7745065E+05   -1.8755338E+00
   1.3003403E-04   6.7162237E+05   -1.8751026E+00
   1.3063454E-04   6.6584555E+05   -1.8746703E+00
   1.3123783E-04   6.6011974E+05   -1.8742371E+00
   1.3184390E-04   6.5444447E+05   -1.8738029E+00
   1.3245277E-04   6.4881930E+05   -1.8733677E+00
   1.3306445E-04   6.4324376E+05   -1.8729315E+00
   1.3367895E-04   6.3771743E+05   -1.8724943E+00
   1.3429630E-04   6.3223984E+05   -1.8720561E+00
   1.3491649E-04   6.2681057E+05   -1.8716169E+00
   1.3553955E-04   6.2142919E+05   -1.8711768E+00
   1.3616548E-04   6.1609525E+05   -1.8707356E+00
   1.3679431E-04   6.1080835E+05   -1.8702935E+00
   1.3742604E-04   6.0556804E+05   -1.8698504E+00
   1.3806069E-04   6.0037393E+05   -1.8694063E+00
   1.3869827E-04   5.9522558E+05   -1.8689613E+00
   1.3933879E-04   5.9012259E+05   -1.8685152E+00
   1.3998227E-04   5.8506455E+05   -1.8680682E+00
   1.4062872E-04   5.8005106E+05   -1.8676202E+00
   1.4127816E-04   5.7508173E+05   -1.8671712E+00
   1.4193060E-04   5.7015614E+05   -1.8667213E+00
   1.4258605E-04   5.6527392E+05   -1.8662704E+00
   1.4324453E-04   5.6043467E+05   -1.8658185E+00
   1.4390605E-04   5.5563800E+05   -1.8653657E+00
   1.4457062E-04   5.5088354E+05   -1.8649119E+00
   1.4523826E-04   5.4617091E+05   -1.8644571E+00
   1.4590899E-04   5.4149972E+05   -1.8640014E+00
   1.4658281E-04   5.3686962E+05   -1.8635447E+00
   1.4725974E-04   5.3228023E+05   -1.8630871E+00
   1.4793981E-04   5.2773118E+05   -1.8626285E+00
   1.4862301E-04   5.2322212E+05   -1.8621690E+00
   1.4930936E-04   5.1875268E+05   -1.8617085E+00
   1.4999889E-04   5.1432251E+05   -1.8612470E+00
   1.5069160E-04   5.0993126E+05   -1.8607846E+00
   1.5138751E-04   5.0557859E+05   -1.8603213E+00
   1.5208663E-04   5.0126413E+05   -1.8598570E+00
   1.5278899E-04   4.9698756E+05   -1.8593918E+00
   1.5349458E-04   4.9274854E+05   -1.8589256E+00
   1.5420343E-04   4.8854672E+05   -1.8584585E+00
   1.5491556E-04   4.8438177E+05   -1.8579905E+00
   1.5563098E-04   4.8025337E+05   -1.8575215E+00
   1.5634970E-04   4.7616119E+05   -1.8570516E+00
   1.5707174E-04   4.7210489E+05   -1.8565808E+00
   1.5779711E-04   4.6808417E+05   -1.8561090E+00
   1.5852584E-04   4.6409870E+05   -1.8556364E+00
   1.5925792E-04   4.6014817E+05   -1.8551628E+00
   1.5999339E-04   4.5623226E+05   -1.8546883E+00
   1.6073226E-04   4.5235066E+05   -1.8542128E+00
   1.6147454E-04   4.4850308E+05   -1.8537365E+00
   1.6222024E-04   4.4468919E+05   -1.8532592E+00
   1.6296939E-04   4.4090871E+05   -1.8527811E+00
   1.6372200E-04   4.3716134E+05   -1.8523020E+00
   1.6447809E-04   4.3344677E+05   -1.8518220E+00
   1.6523767E-04   4.2976471E+05   -1.8513411E+00
   1.6600075E-04   4.2611488E+05   -1.8508593E+00
   1.6676736E-04   4.2249699E+05   -1.8503767E+00
   1.6753751E-04   4.1891074E+05   -1.8498931E+00
   1.6831122E-04   4.1535586E+05   -1.8494086E+00
   1.6908849E-04   4.1183207E+05   -1.8489233E+00
   1.6986936E-04   4.0833908E+05   -1.8484370E+00
   1.7065384E-04   4.0487663E+05   -1.8479499E+00
   1.7144193E-04   4.0144444E+05   -1.8474619E+00
   1.7223367E-04   3.9804225E+05   -1.8469730E+00
   1.7302906E-04   3.9466977E+05   -1.8464833E+00
   1.7382813E-04   3.9132675E+05   -1.8459927E+00
   1.7463089E-04   3.8801293E+05   -1.8455012E+00
   1.7543735E-04   3.8472804E+05   -1.8450088E+00
   1.7624754E-04   3.8147183E+05   -1.8445156E+00
   1.7706147E-04   3.7824404E+05   -1.8440215E+00
   1.7787916E-04   3.7504441E+05   -1.8435266E+00
   1.7870062E-04   3.7187270E+05   -1.8430308E+00
   1.7952588E-04   3.6872866E+05   -1.8425341E+00
   1.8035495E-04   3.6561203E+05   -1.8420366E+00
   1.8118785E-04   3.6252258E+05   -1.8415383E+00
   1.8202459E-04   3.5946006E+05   -1.8410391E+00
   1.8286520E-04   3.5642423E+05   -1.8405391E+00
   1.8370969E-04   3.5341485E+05   -1.8400382E+00
   1.8455808E-04   3.5043170E+05   -1.8395365E+00
   1.8541039E-04   3.4747453E+05   -1.8390340E+00
   1.8626663E-04   3.4454311E+05   -1.8385307E+00
   1.8712683E-04   3.4163721E+05   -1.8380265E+00
   1.8799100E-04   3.3875662E+05   -1.8375215E+00
   1.8885917E-04   3.3590109E+05   -1.8370157E+00
   1.8973134E-04   3.3307041E+05   -1.8365091E+00
   1.9060754E-04   3.3026435E+05   -1.8360017E+00
   1.9148778E-04   3.2748270E+05   -1.8354935E+00
   1.9237209E-04   3.2472524E+05   -1.8349845E+00
   1.9326049E-04   3.2199176E+05   -1.8344746E+00
   1.9415299E-04   3.1928203E+05   -1.8339640E+00
   1.9504960E-04   3.1659586E+05   -1.8334526E+00
   1.9595036E-04   3.1393303E+05   -1.8329404E+00
   1.9685528E-04   3.1129332E+05   -1.8324274E+00
   1.9776438E-04   3.0867654E+05   -1.8319137E+00
   1.9867768E-04   3.0608249E+05   -1.8313991E+00
   1.9959519E-04   3.0351095E+05   -1.8308838E+00
   2.0051694E-04   3.0096174E+05   -1.8303677E+00
   2.0144295E-04   2.9843464E+05   -1.8298509E+00
   2.0237324E-04   2.9592947E+05   -1.8293333E+00
   2.0330782E-04   2.9344603E+05   -1.8288149E+00
   2.0424671E-04   2.9098413E+05   -1.8282958E+00
   2.0518995E-04   2.8854357E+05   -1.8277759E+00
   2.0613754E-04   2.8612417E+05   -1.8272553E+00
   2.0708950E-04   2.8372573E+05   -1.8267340E+00
   2.0804586E-04   2.8134808E+05   -1.8262119E+00
   2.0900664E-04   2.7899102E+05   -1.8256891E+00
   2.0997185E-04   2.7665438E+05   -1.8251655E+00
   2.1094152E-04   2.7433796E+05   -1.8246412E+00
   2.1191567E-04   2.7204161E+05   -1.8241162E+00
   2.1289432E-04   2.6976512E+05   -1.8235905E+00
   2.1387749E-04   2.6750833E+05   -1.8230640E+00
   2.1486520E-04   2.6527107E+05   -1.8225369E+00
   2.1585747E-04   2.6305316E+05   -1.8220090E+00
   2.1685432E-04   2.6085443E+05   -1.8214805E+00
   2.1785578E-04   2.5867470E+05   -1.8209512E+00
   2.1886186E-04   2.5651382E+05   -1.8204213E+00
   2.1987259E-04   2.5437160E+05   -1.8198906E+00
   2.2088798E-04   2.5224790E+05   -1.8193593E+00
   2.2190807E-04   2.5014254E+05   -1.8188273E+00
   2.2293286E-04   2.4805536E+05   -1.8182947E+00
   2.2396239E-04   2.4598620E+05   -1.8177613E+00
   2.2499667E-04   2.4393489E+05   -1.8172273E+00
   2.2603573E-04   2.4190129E+05   -1.8166926E+00
   2.2707958E-04   2.3988524E+05   -1.8161573E+00
   2.2812826E-04   2.3788657E+05   -1.8156213E+00
   2.2918178E-04   2.3590514E+05   -1.8150847E+00
   2.3024017E-04   2.3394079E+05   -1.8145474E+00
   2.3130344E-04   2.3199338E+05   -1.8140095E+00
   2.3237162E-04   2.3006274E+05   -1.8134709E+00
   2.3344474E-04   2.2814874E+05   -1.8129317E+00
   2.3452281E-04   2.2625122E+05   -1.8123919E+00
   2.3560586E-04   2.2437005E+05   -1.8118515E+00
   2.3669392E-04   2.2250507E+05   -1.8113104E+00
   2.3778699E-04   2.2065614E+05   -1.8107688E+00
   2.3888512E-04   2.1882312E+05   -1.8102265E+00
   2.3998831E-04   2.1700587E+05   -1.8096836E+00
   2.4109661E-04   2.1520426E+05   -1.8091401E+00
   2.4221001E-04   2.1341813E+05   -1.8085961E+00
   2.4332857E-04   2.1164736E+05   -1.8080514E+00
   2.4445228E-04   2.0989181E+05   -1.8075062E+00
   2.4558119E-04   2.0815134E+05   -1.8069604E+00
   2.4671531E-04   2.0642582E+05   -1.8064140E+00
   2.4785467E-04   2.0471513E+05   -1.8058670E+00
   2.4899928E-04   2.0301912E+05   -1.8053195E+00
   2.5014919E-04   2.0133768E+05   -1.8047714E+00
   2.5130440E-04   1.9967066E+05   -1.8042228E+00
   2.5246495E-04   1.9801795E+05   -1.8036736E+00
   2.5363086E-04   1.9637941E+05   -1.8031239E+00
   2.5480216E-04   1.9475492E+05   -1.8025736E+00
   2.5597886E-04   1.9314437E+05   -1.8020228E+00
   2.5716100E-04   1.9154762E+05   -1.8014715E+00
   2.5834859E-04   1.8996455E+05   -1.8009196E+00
   2.5954168E-04   1.8839504E+05   -1.8003672E+00
   2.6074027E-04   1.8683898E+05   -1.7998144E+00
   2.6194439E-04   1.8529624E+05   -1.7992610E+00
   2.6315408E-04   1.8376671E+05   -1.7987071E+00
   2.6436935E-04   1.8225027E+05   -1.7981527E+00
   2.6559024E-04   1.8074681E+05   -1.7975978E+00
   2.6681676E-04   1.7925620E+05   -1.7970424E+00
   2.6804895E-04   1.7777835E+05   -1.7964866E+00
   2.6928683E-04   1.7631313E+05   -1.7959302E+00
   2.7053042E-04   1.7486044E+05   -1.7953734E+00
   2.7177976E-04   1.7342015E+05   -1.7948161E+00
   2.7303487E-04   1.7199218E+05   -1.7942584E+00
   2.7429577E-04   1.7057640E+05   -1.7937002E+00
   2.7556250E-04   1.6917271E+05   -1.7931416E+00
   2.7683507E-04   1.6778100E+05   -1.7925825E+00
   2.7811353E-04   1.6640118E+05   -1.7920230E+00
   2.7939788E-04   1.6503312E+05   -1.7914630E+00
   2.8068817E-04   1.6367674E+05   -1.7909026E+00
   2.8198442E-04   1.6233192E+05   -1.7903418E+00
   2.8328665E-04   1.6099857E+05   -1.7897806E+00
   2.8459490E-04   1.5967658E+05   -1.7892189E+00
   2.8590919E-04   1.5836586E+05   -1.7886569E+00
   2.8722955E-04   1.5706630E+05   -1.7880944E+00
   2.8855600E-04   1.5577781E+05   -1.7875316E+00
   2.8988859E-04   1.5450029E+05   -1.7869684E+00
   2.9122732E-04   1.5323365E+05   -1.7864048E+00
   2.9257224E-04   1.5197779E+05   -1.7858408E+00
   2.9392337E-04   1.5073261E+05   -1.7852764E+00
   2.9528074E-04   1.4949802E+05   -1.7847116E+00
   2.9664438E-04   1.4827393E+05   -1.7841465E+00
   2.9801431E-04   1.4706024E+05   -1.7835811E+00
   2.9939057E-04   1.4585687E+05   -1.7830153E+00
   3.0077319E-04   1.4466373E+05   -1.7824491E+00
   3.0216219E-04   1.4348072E+05   -1.7818826E+00
   3.0355761E-04   1.4230775E+05   -1.7813158E+00
   3.0495947E-04   1.4114474E+05   -1.7807487E+00
   3.0636780E-04   1.3999161E+05   -1.7801812E+00
   3.0778264E-04   1.3884825E+05   -1.7796134E+00
   3.0920401E-04   1.3771460E+05   -1.7790453E+00
   3.1063195E-04   1.3659056E+05   -1.7784769E+00
   3.1206648E-04   1.3547605E+05   -1.7779082E+00
   3.1350764E-04   1.3437098E+05   -1.7773392E+00
   3.1495545E-04   1.3327528E+05   -1.7767699E+00
   3.1640994E-04   1.3218886E+05   -1.7762003E+00
   3.1787116E-04   1.3111164E+05   -1.7756305E+00
   3.1933912E-04   1.3004354E+05   -1.7750604E+00
   3.2081386E-04   1.2898448E+05   -1.7744900E+00
   3.2229541E-04   1.2793438E+05   -1.7739193E+00
   3.2378381E-04   1.2689317E+05   -1.7733485E+00
   3.2527908E-04   1.2586076E+05   -1.7727773E+00
   3.2678125E-04   1.2483707E+05   -1.7722059E+00
   3.2829036E-04   1.2382204E+05   -1.7716343E+00
   3.2980644E-04   1.2281559E+05   -1.7710625E+00
   3.3132952E-04   1.2181764E+05   -1.7704904E+00
   3.3285963E-04   1.2082811E+05   -1.7699181E+00
   3.3439681E-04   1.1984694E+05   -1.7693457E+00
   3.3594109E-04   1.1887405E+05   -1.7687730E+00
   3.3749250E-04   1.1790937E+05   -1.7682001E+00
   3.3905108E-04   1.1695283E+05   -1.7676270E+00
   3.4061685E-04   1.1600435E+05   -1.7670537E+00
   3.4218986E-04   1.1506387E+05   -1.7664803E+00
   3.4377013E-04   1.1413132E+05   -1.7659066E+00
   3.4535769E-04   1.1320662E+05   -1.7653328E+00
   3.4695259E-04   1.1228971E+05   -1.7647589E+00
   3.4855485E-04   1.1138052E+05   -1.7641847E+00
   3.5016452E-04   1.1047899E+05   -1.7636105E+00
   3.5178161E-04   1.0958504E+05   -1.7630361E+00
   3.5340618E-04   1.0869862E+05   -1.7624615E+00
   3.5503824E-04   1.0781965E+05   -1.7618868E+00
   3.5667785E-04   1.0694807E+05   -1.7613120E+00
   3.5832502E-04   1.0608382E+05   -1.7607371E+00
   3.5997981E-04   1.0522683E+05   -1.7601620E+00
   3.6164223E-04   1.0437704E+05   -1.7595869E+00
   3.6331233E-04   1.0353438E+05   -1.7590116E+00
   3.6499015E-04   1.0269881E+05   -1.7584363E+00
   3.6667571E-04   1.0187024E+05   -1.7578608E+00
   3.6836906E-04   1.0104863E+05   -1.7572853E+00
   3.7007022E-04   1.0023391E+05   -1.7567097E+00
   3.7177925E-04   9.9426027E+04   -1.7561340E+00
   3.7349616E-04   9.8624914E+04   -1.7555582E+00
   3.7522101E-04   9.7830515E+04   -1.7549824E+00
   3.7695382E-04   9.7042772E+04   -1.7544066E+00
   3.7869463E-04   9.6261628E+04   -1.7538307E+00
   3.8044348E-04   9.5487025E+04   -1.7532547E+00
   3.8220041E-04   9.4718907E+04   -1.7526787E+00
   3.8396545E-04   9.3957216E+04   -1.7521027E+00
   3.8573864E-04   9.3201899E+04   -1.7515267E+00
   3.8752002E-04   9.2452898E+04   -1.7509506E+00
   3.8930963E-04   9.1710161E+04   -1.7503746E+00
   3.9110750E-04   9.0973631E+04   -1.7497985E+00
   3.9291368E-04   9.0243256E+04   -1.7492224E+00
   3.9472820E-04   8.9518983E+04   -1.7486464E+00
   3.9655109E-04   8.8800758E+04   -1.7480703E+00
   3.9838241E-04   8.8088529E+04   -1.7474943E+00
   4.0022218E-04   8.7382245E+04   -1.7469183E+00
   4.0207045E-04   8.6681854E+04   -1.7463423E+00
   4.0392725E-04   8.5987305E+04   -1.7457664E+00
   4.0579263E-04   8.5298547E+04   -1.7451905E+00
   4.0766662E-04   8.4615531E+04   -1.7446147E+00
   4.0954927E-04   8.3938206E+04   -1.7440389E+00
   4.1144061E-04   8.3266525E+04   -1.7434631E+00
   4.1334068E-04   8.2600437E+04   -1.7428875E+00
   4.1524953E-04   8.1939894E+04   -1.7423119E+00
   4.1716720E-04   8.1284850E+04   -1.7417364E+00
   4.1909372E-04   8.0635256E+04   -1.7411610E+00
   4.2102914E-04   7.9991065E+04   -1.7405857E+00
   4.2297350E-04   7.9352231E+04   -1.7400105E+00
   4.2492683E-04   7.8718708E+04   -1.7394354E+00
   4.2688919E-04   7.8090449E+04   -1.7388604E+00
   4.2886061E-04   7.7467410E+04   -1.7382855E+00
   4.3084113E-04   7.6849545E+04   -1.7377107E+00
   4.3283080E-04   7.6236810E+04   -1.7371361E+00
   4.3482966E-04   7.5629161E+04   -1.7365616E+00
   4.3683775E-04   7.5026553E+04   -1.7359872E+00
   4.3885511E-04   7.4428944E+04   -1.7354130E+00
   4.4088179E-04   7.3836291E+04   -1.7348389E+00
   4.4291783E-04   7.3248550E+04   -1.7342650E+00
   4.4496327E-04   7.2665680E+04   -1.7336913E+00
   4.4701816E-04   7.2087638E+04   -1.7331177E+00
   4.4908253E-04   7.1514384E+04   -1.7325444E+00
   4.5115644E-04   7.0945875E+04   -1.7319712E+00
   4.5323993E-04   7.0382072E+04   -1.7313981E+00
   4.5533304E-04   6.9822934E+04   -1.7308253E+00
   4.5743582E-04   6.9268421E+04   -1.7302527E+00
   4.5954830E-04   6.8718492E+04   -1.7296803E+00
   4.6167054E-04   6.8173110E+04   -1.7291081E+00
   4.6380259E-04   6.7632234E+04   -1.7285361E+00
   4.6594448E-04   6.7095826E+04   -1.7279644E+00
   4.6809626E-04   6.6563847E+04   -1.7273929E+00
   4.7025797E-04   6.6036261E+04   -1.7268216E+00
   4.7242967E-04   6.5513028E+04   -1.7262505E+00
   4.7461140E-04   6.4994112E+04   -1.7256798E+00
   4.7680321E-04   6.4479476E+04   -1.7251092E+00
   4.7900514E-04   6.3969083E+04   -1.7245389E+00
   4.8121723E-04   6.3462897E+04   -1.7239689E+00
   4.8343954E-04   6.2960882E+04   -1.7233992E+00
   4.8567212E-04   6.2463001E+04   -1.7228297E+00
   4.8791500E-04   6.1969221E+04   -1.7222606E+00
   4.9016825E-04   6.1479505E+04   -1.7216917E+00
   4.9243189E-04   6.0993819E+04   -1.7211231E+00
   4.9470600E-04   6.0512128E+04   -1.7205548E+00
   4.9699060E-04   6.0034398E+04   -1.7199868E+00
   4.9928575E-04   5.9560596E+04   -1.7194191E+00
   5.0159151E-04   5.9090688E+04   -1.7188518E+00
   5.0390791E-04   5.8624640E+04   -1.7182848E+00
   5.0623501E-04   5.8162420E+04   -1.7177181E+00
   5.0857286E-04   5.7703994E+04   -1.7171517E+00
   5.1092150E-04   5.7249332E+04   -1.7165857E+00
   5.1328099E-04   5.6798400E+04   -1.7160200E+00
   5.1565137E-04   5.6351166E+04   -1.7154547E+00
   5.1803270E-04   5.5907600E+04   -1.7148897E+00
   5.2042503E-04   5.5467670E+04   -1.7143251E+00
   5.2282841E-04   5.5031344E+04   -1.7137609E+00
   5.2524289E-04   5.4598593E+04   -1.7131970E+00
   5.2766851E-04   5.4169385E+04   -1.7126336E+00
   5.3010534E-04   5.3743691E+04   -1.7120705E+00
   5.3255342E-04   5.3321480E+04   -1.7115078E+00
   5.3501281E-04   5.2902723E+04   -1.7109455E+00
   5.3748356E-04   5.2487391E+04   -1.7103836E+00
   5.3996571E-04   5.2075455E+04   -1.7098221E+00
   5.4245933E-04   5.1666885E+04   -1.7092611E+00
   5.4496446E-04   5.1261653E+04   -1.7087004E+00
   5.4748117E-04   5.0859731E+04   -1.7081402E+00
   5.5000949E-04   5.0461090E+04   -1.7075804E+00
   5.5254949E-04   5.0065703E+04   -1.7070210E+00
   5.5510123E-04   4.9673542E+04   -1.7064621E+00
   5.5766474E-04   4.9284580E+04   -1.7059036E+00
   5.6024010E-04   4.8898789E+04   -1.7053456E+00
   5.6282734E-04   4.8516142E+04   -1.7047881E+00
   5.6542654E-04   4.8136614E+04   -1.7042310E+00
   5.6803774E-04   4.7760177E+04   -1.7036743E+00
   5.7066099E-04   4.7386805E+04   -1.7031182E+00
   5.7329637E-04   4.7016473E+04   -1.7025625E+00
   5.7594391E-04   4.6649154E+04   -1.7020073E+00
   5.7860368E-04   4.6284823E+04   -1.7014526E+00
   5.8127573E-04   4.5923455E+04   -1.7008984E+00
   5.8396012E-04   4.5565025E+04   -1.7003447E+00
   5.8665691E-04   4.5209508E+04   -1.6997915E+00
   5.8936616E-04   4.4856878E+04   -1.6992388E+00
   5.9208791E-04   4.4507113E+04   -1.6986866E+00
   5.9482223E-04   4.4160187E+04   -1.6981350E+00
   5.9756919E-04   4.3816076E+04   -1.6975838E+00
   6.0032882E-04   4.3474757E+04   -1.6970332E+00
   6.0310120E-04   4.3136207E+04   -1.6964832E+00
   6.0588639E-04   4.2800401E+04   -1.6959337E+00
   6.0868443E-04   4.2467317E+04   -1.6953847E+00
   6.1149540E-04   4.2136932E+04   -1.6948362E+00
   6.1431935E-04   4.1809222E+04   -1.6942884E+00
   6.1715634E-04   4.1484166E+04   -1.6937411E+00
   6.2000644E-04   4.1161741E+04   -1.6931943E+00
   6.2286969E-04   4.0841925E+04   -1.6926481E+00
