#        a       HoverH0(a)       dlogHdloga_of_a(a)
   1.0000000E-04   1.1312039E+06   -1.8595527E+00
   1.0046181E-04   1.1215545E+06   -1.8590869E+00
   1.0092575E-04   1.1119899E+06   -1.8586201E+00
   1.0139184E-04   1.1025091E+06   -1.8581524E+00
   1.0186008E-04   1.0931116E+06   -1.8576838E+00
   1.0233048E-04   1.0837965E+06   -1.8572143E+00
   1.0280305E-04   1.0745631E+06   -1.8567438E+00
   1.0327781E-04   1.0654107E+06   -1.8562724E+00
   1.0375475E-04   1.0563386E+06   -1.8558000E+00
   1.0423390E-04   1.0473459E+06   -1.8553268E+00
   1.0471527E-04   1.0384321E+06   -1.8548526E+00
   1.0519885E-04   1.0295964E+06   -1.8543775E+00
   1.0568467E-04   1.0208381E+06   -1.8539015E+00
   1.0617274E-04   1.0121566E+06   -1.8534246E+00
   1.0666305E-04   1.0035511E+06   -1.8529467E+00
   1.0715563E-04   9.9502093E+05   -1.8524680E+00
   1.0765049E-04   9.8656546E+05   -1.8519883E+00
   1.0814763E-04   9.7818401E+05   -1.8515078E+00
   1.0864707E-04   9.6987591E+05   -1.8510263E+00
   1.0914881E-04   9.6164051E+05   -1.8505440E+00
   1.0965287E-04   9.5347716E+05   -1.8500607E+00
   1.1015926E-04   9.4538522E+05   -1.8495766E+00
   1.1066799E-04   9.3736404E+05   -1.8490916E+00
   1.1117906E-04   9.2941299E+05   -1.8486057E+00
   1.1169250E-04   9.2153146E+05   -1.8481189E+00
   1.1220831E-04   9.1371881E+05   -1.8476312E+00
   1.1272650E-04   9.0597444E+05   -1.8471427E+00
   1.1324708E-04   8.9829772E+05   -1.8466532E+00
   1.1377007E-04   8.9068807E+05   -1.8461629E+00
   1.1429547E-04   8.8314488E+05   -1.8456718E+00
   1.1482330E-04   8.7566755E+05   -1.8451797E+00
   1.1535356E-04   8.6825551E+05   -1.8446868E+00
   1.1588628E-04   8.6090815E+05   -1.8441930E+00
   1.1642145E-04   8.5362492E+05   -1.8436984E+00
   1.1695910E-04   8.4640523E+05   -1.8432029E+00
   1.1749923E-04   8.3924852E+05   -1.8427066E+00
   1.1804185E-04   8.3215423E+05   -1.8422094E+00
   1.1858698E-04   8.2512180E+05   -1.8417114E+00
   1.1913463E-04   8.1815068E+05   -1.8412126E+00
   1.1968481E-04   8.1124032E+05   -1.8407129E+00
   1.2023752E-04   8.0439018E+05   -1.8402123E+00
   1.2079279E-04   7.9759972E+05   -1.8397109E+00
   1.2135063E-04   7.9086842E+05   -1.8392087E+00
   1.2191104E-04   7.8419575E+05   -1.8387057E+00
   1.2247403E-04   7.7758117E+05   -1.8382018E+00
   1.2303963E-04   7.7102418E+05   -1.8376972E+00
   1.2360784E-04   7.6452426E+05   -1.8371917E+00
   1.2417868E-04   7.5808090E+05   -1.8366854E+00
   1.2475215E-04   7.5169360E+05   -1.8361783E+00
   1.2532826E-04   7.4536186E+05   -1.8356703E+00
   1.2590704E-04   7.3908519E+05   -1.8351616E+00
   1.2648850E-04   7.3286309E+05   -1.8346521E+00
   1.2707263E-04   7.2669508E+05   -1.8341418E+00
   1.2765947E-04   7.2058068E+05   -1.8336307E+00
   1.2824901E-04   7.1451941E+05   -1.8331188E+00
   1.2884128E-04   7.0851079E+05   -1.8326061E+00
   1.2943628E-04   7.0255437E+05   -1.8320926E+00
   1.3003403E-04   6.9664967E+05   -1.8315784E+00
   1.3063454E-04   6.9079623E+05   -1.8310634E+00
   1.3123783E-04   6.8499361E+05   -1.8305476E+00
   1.3184390E-04   6.7924134E+05   -1.8300310E+00
   1.3245277E-04   6.7353898E+05   -1.8295137E+00
   1.3306445E-04   6.6788608E+05   -1.8289957E+00
   1.3367895E-04   6.6228221E+05   -1.8284768E+00
   1.3429630E-04   6.5672693E+05   -1.8279572E+00
   1.3491649E-04   6.5121981E+05   -1.8274369E+00
   1.3553955E-04   6.4576042E+05   -1.8269159E+00
   1.3616548E-04   6.4034834E+05   -1.8263940E+00
   1.3679431E-04   6.3498314E+05   -1.8258715E+00
   1.3742604E-04   6.2966441E+05   -1.8253482E+00
   1.3806069E-04   6.2439174E+05   -1.8248242E+00
   1.3869827E-04   6.1916472E+05   -1.8242995E+00
   1.3933879E-04   6.1398294E+05   -1.8237741E+00
   1.3998227E-04   6.0884600E+05   -1.8232479E+00
   1.4062872E-04   6.0375350E+05   -1.8227210E+00
   1.4127816E-04   5.9870505E+05   -1.8221934E+00
   1.4193060E-04   5.9370026E+05   -1.8216652E+00
   1.4258605E-04   5.8873875E+05   -1.8211362E+00
   1.4324453E-04   5.8382011E+05   -1.8206065E+00
   1.4390605E-04   5.7894399E+05   -1.8200761E+00
   1.4457062E-04   5.7410999E+05   -1.8195451E+00
   1.4523826E-04   5.6931776E+05   -1.8190134E+00
   1.4590899E-04   5.6456690E+05   -1.8184810E+00
   1.4658281E-04   5.5985707E+05   -1.8179479E+00
   1.4725974E-04   5.5518789E+05   -1.8174141E+00
   1.4793981E-04   5.5055901E+05   -1.8168797E+00
   1.4862301E-04   5.4597007E+05   -1.8163446E+00
   1.4930936E-04   5.4142071E+05   -1.8158089E+00
   1.4999889E-04   5.3691058E+05   -1.8152725E+00
   1.5069160E-04   5.3243935E+05   -1.8147355E+00
   1.5138751E-04   5.2800665E+05   -1.8141979E+00
   1.5208663E-04   5.2361215E+05   -1.8136596E+00
   1.5278899E-04   5.1925552E+05   -1.8131206E+00
   1.5349458E-04   5.1493642E+05   -1.8125811E+00
   1.5420343E-04   5.1065451E+05   -1.8120409E+00
   1.5491556E-04   5.0640947E+05   -1.8115001E+00
   1.5563098E-04   5.0220097E+05   -1.8109587E+00
   1.5634970E-04   4.9802869E+05   -1.8104167E+00
   1.5707174E-04   4.9389231E+05   -1.8098740E+00
   1.5779711E-04   4.8979150E+05   -1.8093308E+00
   1.5852584E-04   4.8572596E+05   -1.8087870E+00
   1.5925792E-04   4.8169538E+05   -1.8082426E+00
   1.5999339E-04   4.7769944E+05   -1.8076976E+00
   1.6073226E-04   4.7373784E+05   -1.8071520E+00
   1.6147454E-04   4.6981027E+05   -1.8066059E+00
   1.6222024E-04   4.6591644E+05   -1.8060591E+00
   1.6296939E-04   4.6205604E+05   -1.8055118E+00
   1.6372200E-04   4.5822879E+05   -1.8049640E+00
   1.6447809E-04   4.5443439E+05   -1.8044156E+00
   1.6523767E-04   4.5067255E+05   -1.8038666E+00
   1.6600075E-04   4.4694297E+05   -1.8033171E+00
   1.6676736E-04   4.4324539E+05   -1.8027671E+00
   1.6753751E-04   4.3957951E+05   -1.8022165E+00
   1.6831122E-04   4.3594505E+05   -1.8016654E+00
   1.6908849E-04   4.3234175E+05   -1.8011138E+00
   1.6986936E-04   4.2876931E+05   -1.8005617E+00
   1.7065384E-04   4.2522748E+05   -1.8000090E+00
   1.7144193E-04   4.2171598E+05   -1.7994558E+00
   1.7223367E-04   4.1823454E+05   -1.7989021E+00
   1.7302906E-04   4.1478290E+05   -1.7983480E+00
   1.7382813E-04   4.1136080E+05   -1.7977933E+00
   1.7463089E-04   4.0796798E+05   -1.7972381E+00
   1.7543735E-04   4.0460418E+05   -1.7966825E+00
   1.7624754E-04   4.0126913E+05   -1.7961264E+00
   1.7706147E-04   3.9796260E+05   -1.7955698E+00
   1.7787916E-04   3.9468433E+05   -1.7950127E+00
   1.7870062E-04   3.9143407E+05   -1.7944552E+00
   1.7952588E-04   3.8821157E+05   -1.7938972E+00
   1.8035495E-04   3.8501659E+05   -1.7933387E+00
   1.8118785E-04   3.8184889E+05   -1.7927799E+00
   1.8202459E-04   3.7870822E+05   -1.7922205E+00
   1.8286520E-04   3.7559436E+05   -1.7916608E+00
   1.8370969E-04   3.7250706E+05   -1.7911006E+00
   1.8455808E-04   3.6944609E+05   -1.7905400E+00
   1.8541039E-04   3.6641122E+05   -1.7899789E+00
   1.8626663E-04   3.6340222E+05   -1.7894175E+00
   1.8712683E-04   3.6041887E+05   -1.7888556E+00
   1.8799100E-04   3.5746093E+05   -1.7882934E+00
   1.8885917E-04   3.5452818E+05   -1.7877307E+00
   1.8973134E-04   3.5162041E+05   -1.7871677E+00
   1.9060754E-04   3.4873739E+05   -1.7866042E+00
   1.9148778E-04   3.4587891E+05   -1.7860404E+00
   1.9237209E-04   3.4304475E+05   -1.7854762E+00
   1.9326049E-04   3.4023470E+05   -1.7849117E+00
   1.9415299E-04   3.3744855E+05   -1.7843468E+00
   1.9504960E-04   3.3468608E+05   -1.7837815E+00
   1.9595036E-04   3.3194709E+05   -1.7832158E+00
   1.9685528E-04   3.2923138E+05   -1.7826499E+00
   1.9776438E-04   3.2653873E+05   -1.7820835E+00
   1.9867768E-04   3.2386896E+05   -1.7815169E+00
   1.9959519E-04   3.2122184E+05   -1.7809499E+00
   2.0051694E-04   3.1859720E+05   -1.7803826E+00
   2.0144295E-04   3.1599483E+05   -1.7798150E+00
   2.0237324E-04   3.1341454E+05   -1.7792470E+00
   2.0330782E-04   3.1085613E+05   -1.7786788E+00
   2.0424671E-04   3.0831941E+05   -1.7781102E+00
   2.0518995E-04   3.0580419E+05   -1.7775414E+00
   2.0613754E-04   3.0331029E+05   -1.7769723E+00
   2.0708950E-04   3.0083751E+05   -1.7764029E+00
   2.0804586E-04   2.9838568E+05   -1.7758332E+00
   2.0900664E-04   2.9595460E+05   -1.7752632E+00
   2.0997185E-04   2.9354411E+05   -1.7746930E+00
   2.1094152E-04   2.9115401E+05   -1.7741225E+00
   2.1191567E-04   2.8878414E+05   -1.7735517E+00
   2.1289432E-04   2.8643430E+05   -1.7729808E+00
   2.1387749E-04   2.8410433E+05   -1.7724095E+00
   2.1486520E-04   2.8179406E+05   -1.7718381E+00
   2.1585747E-04   2.7950331E+05   -1.7712664E+00
   2.1685432E-04   2.7723192E+05   -1.7706944E+00
   2.1785578E-04   2.7497970E+05   -1.7701223E+00
   2.1886186E-04   2.7274651E+05   -1.7695499E+00
   2.1987259E-04   2.7053216E+05   -1.7689774E+00
   2.2088798E-04   2.6833650E+05   -1.7684046E+00
   2.2190807E-04   2.6615936E+05   -1.7678317E+00
   2.2293286E-04   2.6400058E+05   -1.7672585E+00
   2.2396239E-04   2.6186001E+05   -1.7666852E+00
   2.2499667E-04   2.5973747E+05   -1.7661117E+00
   2.2603573E-04   2.5763282E+05   -1.7655380E+00
   2.2707958E-04   2.5554591E+05   -1.7649642E+00
   2.2812826E-04   2.5347656E+05   -1.7643902E+00
   2.2918178E-04   2.5142464E+05   -1.7638160E+00
   2.3024017E-04   2.4938999E+05   -1.7632417E+00
   2.3130344E-04   2.4737245E+05   -1.7626673E+00
   2.3237162E-04   2.4537189E+05   -1.7620927E+00
   2.3344474E-04   2.4338816E+05   -1.7615180E+00
   2.3452281E-04   2.4142110E+05   -1.7609432E+00
   2.3560586E-04   2.3947057E+05   -1.7603682E+00
   2.3669392E-04   2.3753643E+05   -1.7597932E+00
   2.3778699E-04   2.3561854E+05   -1.7592180E+00
   2.3888512E-04   2.3371675E+05   -1.7586428E+00
   2.3998831E-04   2.3183092E+05   -1.7580674E+00
   2.4109661E-04   2.2996092E+05   -1.7574920E+00
   2.4221001E-04   2.2810661E+05   -1.7569165E+00
   2.4332857E-04   2.2626786E+05   -1.7563409E+00
   2.4445228E-04   2.2444452E+05   -1.7557653E+00
   2.4558119E-04   2.2263646E+05   -1.7551896E+00
   2.4671531E-04   2.2084355E+05   -1.7546138E+00
   2.4785467E-04   2.1906567E+05   -1.7540380E+00
   2.4899928E-04   2.1730267E+05   -1.7534621E+00
   2.5014919E-04   2.1555444E+05   -1.7528862E+00
   2.5130440E-04   2.1382083E+05   -1.7523103E+00
   2.5246495E-04   2.1210173E+05   -1.7517343E+00
   2.5363086E-04   2.1039702E+05   -1.7511584E+00
   2.5480216E-04   2.0870655E+05   -1.7505824E+00
   2.5597886E-04   2.0703022E+05   -1.7500064E+00
   2.5716100E-04   2.0536790E+05   -1.7494304E+00
   2.5834859E-04   2.0371946E+05   -1.7488544E+00
   2.5954168E-04   2.0208479E+05   -1.7482784E+00
   2.6074027E-04   2.0046378E+05   -1.7477025E+00
   2.6194439E-04   1.9885629E+05   -1.7471265E+00
   2.6315408E-04   1.9726221E+05   -1.7465506E+00
   2.6436935E-04   1.9568144E+05   -1.7459748E+00
   2.6559024E-04   1.9411385E+05   -1.7453989E+00
   2.6681676E-04   1.9255932E+05   -1.7448232E+00
   2.6804895E-04   1.9101775E+05   -1.7442474E+00
   2.6928683E-04   1.8948903E+05   -1.7436718E+00
   2.7053042E-04   1.8797304E+05   -1.7430962E+00
   2.7177976E-04   1.8646967E+05   -1.7425207E+00
   2.7303487E-04   1.8497881E+05   -1.7419452E+00
   2.7429577E-04   1.8350036E+05   -1.7413699E+00
   2.7556250E-04   1.8203421E+05   -1.7407946E+00
   2.7683507E-04   1.8058026E+05   -1.7402194E+00
   2.7811353E-04   1.7913839E+05   -1.7396444E+00
   2.7939788E-04   1.7770850E+05   -1.7390694E+00
   2.8068817E-04   1.7629050E+05   -1.7384946E+00
   2.8198442E-04   1.7488427E+05   -1.7379198E+00
   2.8328665E-04   1.7348972E+05   -1.7373453E+00
   2.8459490E-04   1.7210675E+05   -1.7367708E+00
   2.8590919E-04   1.7073525E+05   -1.7361965E+00
   2.8722955E-04   1.6937513E+05   -1.7356223E+00
   2.8855600E-04   1.6802629E+05   -1.7350483E+00
   2.8988859E-04   1.6668863E+05   -1.7344744E+00
   2.9122732E-04   1.6536205E+05   -1.7339007E+00
   2.9257224E-04   1.6404647E+05   -1.7333272E+00
   2.9392337E-04   1.6274179E+05   -1.7327538E+00
   2.9528074E-04   1.6144790E+05   -1.7321807E+00
   2.9664438E-04   1.6016473E+05   -1.7316077E+00
   2.9801431E-04   1.5889218E+05   -1.7310349E+00
   2.9939057E-04   1.5763015E+05   -1.7304623E+00
   3.0077319E-04   1.5637856E+05   -1.7298899E+00
   3.0216219E-04   1.5513731E+05   -1.7293177E+00
   3.0355761E-04   1.5390633E+05   -1.7287458E+00
   3.0495947E-04   1.5268551E+05   -1.7281740E+00
   3.0636780E-04   1.5147478E+05   -1.7276025E+00
   3.0778264E-04   1.5027404E+05   -1.7270313E+00
   3.0920401E-04   1.4908321E+05   -1.7264602E+00
   3.1063195E-04   1.4790221E+05   -1.7258894E+00
   3.1206648E-04   1.4673095E+05   -1.7253189E+00
   3.1350764E-04   1.4556935E+05   -1.7247486E+00
   3.1495545E-04   1.4441732E+05   -1.7241786E+00
   3.1640994E-04   1.4327479E+05   -1.7236089E+00
   3.1787116E-04   1.4214166E+05   -1.7230395E+00
   3.1933912E-04   1.4101787E+05   -1.7224703E+00
   3.2081386E-04   1.3990334E+05   -1.7219014E+00
   3.2229541E-04   1.3879797E+05   -1.7213328E+00
   3.2378381E-04   1.3770170E+05   -1.7207645E+00
   3.2527908E-04   1.3661444E+05   -1.7201965E+00
   3.2678125E-04   1.3553613E+05   -1.7196288E+00
   3.2829036E-04   1.3446667E+05   -1.7190615E+00
   3.2980644E-04   1.3340600E+05   -1.7184944E+00
   3.3132952E-04   1.3235405E+05   -1.7179277E+00
   3.3285963E-04   1.3131073E+05   -1.7173614E+00
   3.3439681E-04   1.3027598E+05   -1.7167953E+00
   3.3594109E-04   1.2924972E+05   -1.7162296E+00
   3.3749250E-04   1.2823188E+05   -1.7156643E+00
   3.3905108E-04   1.2722238E+05   -1.7150993E+00
   3.4061685E-04   1.2622116E+05   -1.7145347E+00
   3.4218986E-04   1.2522815E+05   -1.7139705E+00
   3.4377013E-04   1.2424327E+05   -1.7134066E+00
   3.4535769E-04   1.2326645E+05   -1.7128431E+00
   3.4695259E-04   1.2229764E+05   -1.7122800E+00
   3.4855485E-04   1.2133675E+05   -1.7117173E+00
   3.5016452E-04   1.2038372E+05   -1.7111550E+00
   3.5178161E-04   1.1943849E+05   -1.7105930E+00
   3.5340618E-04   1.1850099E+05   -1.7100315E+00
   3.5503824E-04   1.1757115E+05   -1.7094704E+00
   3.5667785E-04   1.1664891E+05   -1.7089097E+00
   3.5832502E-04   1.1573420E+05   -1.7083495E+00
   3.5997981E-04   1.1482696E+05   -1.7077896E+00
   3.6164223E-04   1.1392712E+05   -1.7072303E+00
   3.6331233E-04   1.1303463E+05   -1.7066713E+00
   3.6499015E-04   1.1214942E+05   -1.7061128E+00
   3.6667571E-04   1.1127143E+05   -1.7055547E+00
   3.6836906E-04   1.1040059E+05   -1.7049971E+00
   3.7007022E-04   1.0953685E+05   -1.7044400E+00
   3.7177925E-04   1.0868015E+05   -1.7038833E+00
   3.7349616E-04   1.0783042E+05   -1.7033271E+00
   3.7522101E-04   1.0698761E+05   -1.7027714E+00
   3.7695382E-04   1.0615167E+05   -1.7022162E+00
   3.7869463E-04   1.0532252E+05   -1.7016614E+00
   3.8044348E-04   1.0450011E+05   -1.7011071E+00
   3.8220041E-04   1.0368440E+05   -1.7005534E+00
   3.8396545E-04   1.0287531E+05   -1.7000001E+00
   3.8573864E-04   1.0207279E+05   -1.6994474E+00
   3.8752002E-04   1.0127680E+05   -1.6988952E+00
   3.8930963E-04   1.0048726E+05   -1.6983434E+00
   3.9110750E-04   9.9704138E+04   -1.6977922E+00
   3.9291368E-04   9.8927367E+04   -1.6972416E+00
   3.9472820E-04   9.8156897E+04   -1.6966915E+00
   3.9655109E-04   9.7392674E+04   -1.6961419E+00
   3.9838241E-04   9.6634646E+04   -1.6955928E+00
   4.0022218E-04   9.5882759E+04   -1.6950443E+00
   4.0207045E-04   9.5136964E+04   -1.6944964E+00
   4.0392725E-04   9.4397208E+04   -1.6939490E+00
   4.0579263E-04   9.3663440E+04   -1.6934022E+00
   4.0766662E-04   9.2935610E+04   -1.6928560E+00
   4.0954927E-04   9.2213667E+04   -1.6923103E+00
   4.1144061E-04   9.1497563E+04   -1.6917652E+00
   4.1334068E-04   9.0787247E+04   -1.6912207E+00
   4.1524953E-04   9.0082672E+04   -1.6906768E+00
   4.1716720E-04   8.9383788E+04   -1.6901335E+00
   4.1909372E-04   8.8690549E+04   -1.6895907E+00
   4.2102914E-04   8.8002906E+04   -1.6890486E+00
   4.2297350E-04   8.7320812E+04   -1.6885071E+00
   4.2492683E-04   8.6644221E+04   -1.6879662E+00
   4.2688919E-04   8.5973087E+04   -1.6874259E+00
   4.2886061E-04   8.5307364E+04   -1.6868862E+00
   4.3084113E-04   8.4647006E+04   -1.6863472E+00
   4.3283080E-04   8.3991969E+04   -1.6858088E+00
   4.3482966E-04   8.3342207E+04   -1.6852710E+00
   4.3683775E-04   8.2697676E+04   -1.6847339E+00
   4.3885511E-04   8.2058333E+04   -1.6841974E+00
   4.4088179E-04   8.1424133E+04   -1.6836616E+00
   4.4291783E-04   8.0795035E+04   -1.6831264E+00
   4.4496327E-04   8.0170994E+04   -1.6825919E+00
   4.4701816E-04   7.9551970E+04   -1.6820580E+00
   4.4908253E-04   7.8937919E+04   -1.6815248E+00
   4.5115644E-04   7.8328800E+04   -1.6809923E+00
   4.5323993E-04   7.7724572E+04   -1.6804605E+00
   4.5533304E-04   7.7125194E+04   -1.6799293E+00
   4.5743582E-04   7.6530625E+04   -1.6793988E+00
   4.5954830E-04   7.5940825E+04   -1.6788690E+00
   4.6167054E-04   7.5355755E+04   -1.6783399E+00
   4.6380259E-04   7.4775374E+04   -1.6778115E+00
   4.6594448E-04   7.4199644E+04   -1.6772838E+00
   4.6809626E-04   7.3628525E+04   -1.6767568E+00
   4.7025797E-04   7.3061980E+04   -1.6762306E+00
   4.7242967E-04   7.2499970E+04   -1.6757050E+00
   4.7461140E-04   7.1942457E+04   -1.6751801E+00
   4.7680321E-04   7.1389403E+04   -1.6746560E+00
   4.7900514E-04   7.0840772E+04   -1.6741326E+00
   4.8121723E-04   7.0296527E+04   -1.6736099E+00
   4.8343954E-04   6.9756631E+04   -1.6730880E+00
   4.8567212E-04   6.9221048E+04   -1.6725668E+00
   4.8791500E-04   6.8689742E+04   -1.6720463E+00
   4.9016825E-04   6.8162677E+04   -1.6715266E+00
   4.9243189E-04   6.7639818E+04   -1.6710077E+00
   4.9470600E-04   6.7121131E+04   -1.6704895E+00
   4.9699060E-04   6.6606580E+04   -1.6699720E+00
   4.9928575E-04   6.6096130E+04   -1.6694553E+00
   5.0159151E-04   6.5589749E+04   -1.6689394E+00
   5.0390791E-04   6.5087402E+04   -1.6684243E+00
   5.0623501E-04   6.4589055E+04   -1.6679099E+00
   5.0857286E-04   6.4094676E+04   -1.6673963E+00
   5.1092150E-04   6.3604232E+04   -1.6668835E+00
   5.1328099E-04   6.3117689E+04   -1.6663714E+00
   5.1565137E-04   6.2635016E+04   -1.6658602E+00
   5.1803270E-04   6.2156180E+04   -1.6653497E+00
   5.2042503E-04   6.1681150E+04   -1.6648401E+00
   5.2282841E-04   6.1209893E+04   -1.6643312E+00
   5.2524289E-04   6.0742380E+04   -1.6638231E+00
   5.2766851E-04   6.0278578E+04   -1.6633159E+00
   5.3010534E-04   5.9818458E+04   -1.6628094E+00
   5.3255342E-04   5.9361988E+04   -1.6623038E+00
   5.3501281E-04   5.8909138E+04   -1.6617990E+00
   5.3748356E-04   5.8459879E+04   -1.6612950E+00
   5.3996571E-04   5.8014181E+04   -1.6607918E+00
   5.4245933E-04   5.7572014E+04   -1.6602894E+00
   5.4496446E-04   5.7133349E+04   -1.6597879E+00
   5.4748117E-04   5.6698158E+04   -1.6592872E+00
   5.5000949E-04   5.6266411E+04   -1.6587874E+00
   5.5254949E-04   5.5838081E+04   -1.6582883E+00
   5.5510123E-04   5.5413138E+04   -1.6577902E+00
   5.5766474E-04   5.4991555E+04   -1.6572928E+00
   5.6024010E-04   5.4573305E+04   -1.6567963E+00
   5.6282734E-04   5.4158360E+04   -1.6563007E+00
   5.6542654E-04   5.3746692E+04   -1.6558059E+00
   5.6803774E-04   5.3338275E+04   -1.6553120E+00
   5.7066099E-04   5.2933081E+04   -1.6548189E+00
   5.7329637E-04   5.2531085E+04   -1.6543267E+00
   5.7594391E-04   5.2132261E+04   -1.6538354E+00
   5.7860368E-04   5.1736581E+04   -1.6533449E+00
   5.8127573E-04   5.1344020E+04   -1.6528553E+00
   5.8396012E-04   5.0954553E+04   -1.6523666E+00
   5.8665691E-04   5.0568154E+04   -1.6518788E+00
   5.8936616E-04   5.0184797E+04   -1.6513918E+00
   5.9208791E-04   4.9804459E+04   -1.6509058E+00
   5.9482223E-04   4.9427113E+04   -1.6504206E+00
   5.9756919E-04   4.9052736E+04   -1.6499363E+00
   6.0032882E-04   4.8681304E+04   -1.6494528E+00
   6.0310120E-04   4.8312791E+04   -1.6489703E+00
   6.0588639E-04   4.7947174E+04   -1.6484887E+00
   6.0868443E-04   4.7584430E+04   -1.6480080E+00
   6.1149540E-04   4.7224535E+04   -1.6475282E+00
   6.1431935E-04   4.6867465E+04   -1.6470493E+00
   6.1715634E-04   4.6513197E+04   -1.6465712E+00
   6.2000644E-04   4.6161709E+04   -1.6460941E+00
   6.2286969E-04   4.5812978E+04   -1.6456180E+00
