#        a       HoverH0(a)       dlogHdloga_of_a(a)
   1.0000000E-04   1.2206928E+06   -1.8666625E+00
   1.0046181E-04   1.2102404E+06   -1.8662115E+00
   1.0092575E-04   1.1998800E+06   -1.8657595E+00
   1.0139184E-04   1.1896108E+06   -1.8653065E+00
   1.0186008E-04   1.1794319E+06   -1.8648526E+00
   1.0233048E-04   1.1693425E+06   -1.8643978E+00
   1.0280305E-04   1.1593419E+06   -1.8639419E+00
   1.0327781E-04   1.1494293E+06   -1.8634851E+00
   1.0375475E-04   1.1396037E+06   -1.8630274E+00
   1.0423390E-04   1.1298646E+06   -1.8625687E+00
   1.0471527E-04   1.1202111E+06   -1.8621090E+00
   1.0519885E-04   1.1106424E+06   -1.8616484E+00
   1.0568467E-04   1.1011578E+06   -1.8611869E+00
   1.0617274E-04   1.0917565E+06   -1.8607244E+00
   1.0666305E-04   1.0824377E+06   -1.8602609E+00
   1.0715563E-04   1.0732009E+06   -1.8597965E+00
   1.0765049E-04   1.0640451E+06   -1.8593312E+00
   1.0814763E-04   1.0549697E+06   -1.8588649E+00
   1.0864707E-04   1.0459739E+06   -1.8583977E+00
   1.0914881E-04   1.0370571E+06   -1.8579296E+00
   1.0965287E-04   1.0282185E+06   -1.8574605E+00
   1.1015926E-04   1.0194574E+06   -1.8569905E+00
   1.1066799E-04   1.0107732E+06   -1.8565196E+00
   1.1117906E-04   1.0021652E+06   -1.8560477E+00
   1.1169250E-04   9.9363259E+05   -1.8555749E+00
   1.1220831E-04   9.8517480E+05   -1.8551012E+00
   1.1272650E-04   9.7679114E+05   -1.8546266E+00
   1.1324708E-04   9.6848094E+05   -1.8541511E+00
   1.1377007E-04   9.6024355E+05   -1.8536746E+00
   1.1429547E-04   9.5207831E+05   -1.8531973E+00
   1.1482330E-04   9.4398458E+05   -1.8527190E+00
   1.1535356E-04   9.3596173E+05   -1.8522398E+00
   1.1588628E-04   9.2800910E+05   -1.8517598E+00
   1.1642145E-04   9.2012609E+05   -1.8512788E+00
   1.1695910E-04   9.1231206E+05   -1.8507969E+00
   1.1749923E-04   9.0456641E+05   -1.8503141E+00
   1.1804185E-04   8.9688851E+05   -1.8498305E+00
   1.1858698E-04   8.8927776E+05   -1.8493459E+00
   1.1913463E-04   8.8173357E+05   -1.8488604E+00
   1.1968481E-04   8.7425533E+05   -1.8483741E+00
   1.2023752E-04   8.6684247E+05   -1.8478869E+00
   1.2079279E-04   8.5949439E+05   -1.8473988E+00
   1.2135063E-04   8.5221052E+05   -1.8469098E+00
   1.2191104E-04   8.4499028E+05   -1.8464200E+00
   1.2247403E-04   8.3783311E+05   -1.8459293E+00
   1.2303963E-04   8.3073843E+05   -1.8454377E+00
   1.2360784E-04   8.2370571E+05   -1.8449452E+00
   1.2417868E-04   8.1673437E+05   -1.8444519E+00
   1.2475215E-04   8.0982388E+05   -1.8439577E+00
   1.2532826E-04   8.0297368E+05   -1.8434627E+00
   1.2590704E-04   7.9618325E+05   -1.8429668E+00
   1.2648850E-04   7.8945205E+05   -1.8424701E+00
   1.2707263E-04   7.8277955E+05   -1.8419725E+00
   1.2765947E-04   7.7616522E+05   -1.8414741E+00
   1.2824901E-04   7.6960856E+05   -1.8409748E+00
   1.2884128E-04   7.6310904E+05   -1.8404747E+00
   1.2943628E-04   7.5666616E+05   -1.8399738E+00
   1.3003403E-04   7.5027940E+05   -1.8394720E+00
   1.3063454E-04   7.4394828E+05   -1.8389694E+00
   1.3123783E-04   7.3767229E+05   -1.8384660E+00
   1.3184390E-04   7.3145094E+05   -1.8379617E+00
   1.3245277E-04   7.2528374E+05   -1.8374566E+00
   1.3306445E-04   7.1917022E+05   -1.8369508E+00
   1.3367895E-04   7.1310990E+05   -1.8364441E+00
   1.3429630E-04   7.0710229E+05   -1.8359366E+00
   1.3491649E-04   7.0114694E+05   -1.8354283E+00
   1.3553955E-04   6.9524338E+05   -1.8349192E+00
   1.3616548E-04   6.8939114E+05   -1.8344093E+00
   1.3679431E-04   6.8358977E+05   -1.8338986E+00
   1.3742604E-04   6.7783882E+05   -1.8333871E+00
   1.3806069E-04   6.7213783E+05   -1.8328748E+00
   1.3869827E-04   6.6648636E+05   -1.8323617E+00
   1.3933879E-04   6.6088398E+05   -1.8318479E+00
   1.3998227E-04   6.5533025E+05   -1.8313333E+00
   1.4062872E-04   6.4982472E+05   -1.8308179E+00
   1.4127816E-04   6.4436698E+05   -1.8303018E+00
   1.4193060E-04   6.3895660E+05   -1.8297848E+00
   1.4258605E-04   6.3359315E+05   -1.8292672E+00
   1.4324453E-04   6.2827623E+05   -1.8287487E+00
   1.4390605E-04   6.2300542E+05   -1.8282295E+00
   1.4457062E-04   6.1778030E+05   -1.8277096E+00
   1.4523826E-04   6.1260047E+05   -1.8271889E+00
   1.4590899E-04   6.0746554E+05   -1.8266675E+00
   1.4658281E-04   6.0237509E+05   -1.8261453E+00
   1.4725974E-04   5.9732874E+05   -1.8256224E+00
   1.4793981E-04   5.9232609E+05   -1.8250988E+00
   1.4862301E-04   5.8736676E+05   -1.8245744E+00
   1.4930936E-04   5.8245036E+05   -1.8240494E+00
   1.4999889E-04   5.7757650E+05   -1.8235236E+00
   1.5069160E-04   5.7274482E+05   -1.8229971E+00
   1.5138751E-04   5.6795494E+05   -1.8224699E+00
   1.5208663E-04   5.6320648E+05   -1.8219420E+00
   1.5278899E-04   5.5849908E+05   -1.8214133E+00
   1.5349458E-04   5.5383238E+05   -1.8208840E+00
   1.5420343E-04   5.4920602E+05   -1.8203540E+00
   1.5491556E-04   5.4461963E+05   -1.8198233E+00
   1.5563098E-04   5.4007286E+05   -1.8192919E+00
   1.5634970E-04   5.3556536E+05   -1.8187599E+00
   1.5707174E-04   5.3109679E+05   -1.8182272E+00
   1.5779711E-04   5.2666679E+05   -1.8176938E+00
   1.5852584E-04   5.2227503E+05   -1.8171597E+00
   1.5925792E-04   5.1792117E+05   -1.8166250E+00
   1.5999339E-04   5.1360487E+05   -1.8160896E+00
   1.6073226E-04   5.0932579E+05   -1.8155535E+00
   1.6147454E-04   5.0508362E+05   -1.8150168E+00
   1.6222024E-04   5.0087802E+05   -1.8144795E+00
   1.6296939E-04   4.9670866E+05   -1.8139415E+00
   1.6372200E-04   4.9257524E+05   -1.8134029E+00
   1.6447809E-04   4.8847742E+05   -1.8128637E+00
   1.6523767E-04   4.8441490E+05   -1.8123238E+00
   1.6600075E-04   4.8038736E+05   -1.8117834E+00
   1.6676736E-04   4.7639450E+05   -1.8112423E+00
   1.6753751E-04   4.7243600E+05   -1.8107006E+00
   1.6831122E-04   4.6851156E+05   -1.8101582E+00
   1.6908849E-04   4.6462088E+05   -1.8096153E+00
   1.6986936E-04   4.6076367E+05   -1.8090718E+00
   1.7065384E-04   4.5693962E+05   -1.8085277E+00
   1.7144193E-04   4.5314845E+05   -1.8079830E+00
   1.7223367E-04   4.4938986E+05   -1.8074377E+00
   1.7302906E-04   4.4566357E+05   -1.8068919E+00
   1.7382813E-04   4.4196928E+05   -1.8063454E+00
   1.7463089E-04   4.3830673E+05   -1.8057985E+00
   1.7543735E-04   4.3467562E+05   -1.8052509E+00
   1.7624754E-04   4.3107568E+05   -1.8047028E+00
   1.7706147E-04   4.2750664E+05   -1.8041541E+00
   1.7787916E-04   4.2396821E+05   -1.8036049E+00
   1.7870062E-04   4.2046014E+05   -1.8030551E+00
   1.7952588E-04   4.1698215E+05   -1.8025048E+00
   1.8035495E-04   4.1353398E+05   -1.8019540E+00
   1.8118785E-04   4.1011537E+05   -1.8014026E+00
   1.8202459E-04   4.0672605E+05   -1.8008508E+00
   1.8286520E-04   4.0336577E+05   -1.8002984E+00
   1.8370969E-04   4.0003427E+05   -1.7997454E+00
   1.8455808E-04   3.9673129E+05   -1.7991920E+00
   1.8541039E-04   3.9345659E+05   -1.7986381E+00
   1.8626663E-04   3.9020992E+05   -1.7980837E+00
   1.8712683E-04   3.8699103E+05   -1.7975288E+00
   1.8799100E-04   3.8379967E+05   -1.7969734E+00
   1.8885917E-04   3.8063560E+05   -1.7964175E+00
   1.8973134E-04   3.7749859E+05   -1.7958611E+00
   1.9060754E-04   3.7438839E+05   -1.7953043E+00
   1.9148778E-04   3.7130477E+05   -1.7947470E+00
   1.9237209E-04   3.6824749E+05   -1.7941893E+00
   1.9326049E-04   3.6521632E+05   -1.7936311E+00
   1.9415299E-04   3.6221103E+05   -1.7930724E+00
   1.9504960E-04   3.5923141E+05   -1.7925133E+00
   1.9595036E-04   3.5627721E+05   -1.7919538E+00
   1.9685528E-04   3.5334821E+05   -1.7913938E+00
   1.9776438E-04   3.5044420E+05   -1.7908334E+00
   1.9867768E-04   3.4756496E+05   -1.7902726E+00
   1.9959519E-04   3.4471026E+05   -1.7897113E+00
   2.0051694E-04   3.4187989E+05   -1.7891497E+00
   2.0144295E-04   3.3907364E+05   -1.7885876E+00
   2.0237324E-04   3.3629130E+05   -1.7880252E+00
   2.0330782E-04   3.3353265E+05   -1.7874623E+00
   2.0424671E-04   3.3079749E+05   -1.7868991E+00
   2.0518995E-04   3.2808561E+05   -1.7863355E+00
   2.0613754E-04   3.2539680E+05   -1.7857715E+00
   2.0708950E-04   3.2273088E+05   -1.7852071E+00
   2.0804586E-04   3.2008762E+05   -1.7846424E+00
   2.0900664E-04   3.1746685E+05   -1.7840773E+00
   2.0997185E-04   3.1486835E+05   -1.7835118E+00
   2.1094152E-04   3.1229193E+05   -1.7829460E+00
   2.1191567E-04   3.0973740E+05   -1.7823799E+00
   2.1289432E-04   3.0720457E+05   -1.7818134E+00
   2.1387749E-04   3.0469325E+05   -1.7812466E+00
   2.1486520E-04   3.0220325E+05   -1.7806794E+00
   2.1585747E-04   2.9973438E+05   -1.7801119E+00
   2.1685432E-04   2.9728645E+05   -1.7795442E+00
   2.1785578E-04   2.9485929E+05   -1.7789761E+00
   2.1886186E-04   2.9245271E+05   -1.7784077E+00
   2.1987259E-04   2.9006654E+05   -1.7778390E+00
   2.2088798E-04   2.8770058E+05   -1.7772700E+00
   2.2190807E-04   2.8535468E+05   -1.7767007E+00
   2.2293286E-04   2.8302864E+05   -1.7761312E+00
   2.2396239E-04   2.8072230E+05   -1.7755613E+00
   2.2499667E-04   2.7843549E+05   -1.7749912E+00
   2.2603573E-04   2.7616803E+05   -1.7744209E+00
   2.2707958E-04   2.7391975E+05   -1.7738503E+00
   2.2812826E-04   2.7169050E+05   -1.7732794E+00
   2.2918178E-04   2.6948009E+05   -1.7727083E+00
   2.3024017E-04   2.6728837E+05   -1.7721369E+00
   2.3130344E-04   2.6511518E+05   -1.7715654E+00
   2.3237162E-04   2.6296034E+05   -1.7709935E+00
   2.3344474E-04   2.6082371E+05   -1.7704215E+00
   2.3452281E-04   2.5870513E+05   -1.7698493E+00
   2.3560586E-04   2.5660442E+05   -1.7692768E+00
   2.3669392E-04   2.5452145E+05   -1.7687041E+00
   2.3778699E-04   2.5245605E+05   -1.7681313E+00
   2.3888512E-04   2.5040807E+05   -1.7675582E+00
   2.3998831E-04   2.4837736E+05   -1.7669850E+00
   2.4109661E-04   2.4636377E+05   -1.7664115E+00
   2.4221001E-04   2.4436715E+05   -1.7658380E+00
   2.4332857E-04   2.4238736E+05   -1.7652642E+00
   2.4445228E-04   2.4042423E+05   -1.7646903E+00
   2.4558119E-04   2.3847764E+05   -1.7641162E+00
   2.4671531E-04   2.3654744E+05   -1.7635420E+00
   2.4785467E-04   2.3463348E+05   -1.7629676E+00
   2.4899928E-04   2.3273562E+05   -1.7623931E+00
   2.5014919E-04   2.3085372E+05   -1.7618184E+00
   2.5130440E-04   2.2898765E+05   -1.7612437E+00
   2.5246495E-04   2.2713726E+05   -1.7606688E+00
   2.5363086E-04   2.2530242E+05   -1.7600938E+00
   2.5480216E-04   2.2348299E+05   -1.7595187E+00
   2.5597886E-04   2.2167885E+05   -1.7589435E+00
   2.5716100E-04   2.1988985E+05   -1.7583682E+00
   2.5834859E-04   2.1811587E+05   -1.7577928E+00
   2.5954168E-04   2.1635677E+05   -1.7572173E+00
   2.6074027E-04   2.1461243E+05   -1.7566417E+00
   2.6194439E-04   2.1288272E+05   -1.7560661E+00
   2.6315408E-04   2.1116751E+05   -1.7554904E+00
   2.6436935E-04   2.0946668E+05   -1.7549147E+00
   2.6559024E-04   2.0778009E+05   -1.7543389E+00
   2.6681676E-04   2.0610763E+05   -1.7537630E+00
   2.6804895E-04   2.0444918E+05   -1.7531871E+00
   2.6928683E-04   2.0280461E+05   -1.7526112E+00
   2.7053042E-04   2.0117380E+05   -1.7520353E+00
   2.7177976E-04   1.9955664E+05   -1.7514593E+00
   2.7303487E-04   1.9795300E+05   -1.7508833E+00
   2.7429577E-04   1.9636276E+05   -1.7503073E+00
   2.7556250E-04   1.9478582E+05   -1.7497313E+00
   2.7683507E-04   1.9322206E+05   -1.7491553E+00
   2.7811353E-04   1.9167136E+05   -1.7485793E+00
   2.7939788E-04   1.9013361E+05   -1.7480033E+00
   2.8068817E-04   1.8860870E+05   -1.7474274E+00
   2.8198442E-04   1.8709651E+05   -1.7468514E+00
   2.8328665E-04   1.8559694E+05   -1.7462756E+00
   2.8459490E-04   1.8410988E+05   -1.7456997E+00
   2.8590919E-04   1.8263522E+05   -1.7451239E+00
   2.8722955E-04   1.8117285E+05   -1.7445481E+00
   2.8855600E-04   1.7972266E+05   -1.7439724E+00
   2.8988859E-04   1.7828456E+05   -1.7433968E+00
   2.9122732E-04   1.7685843E+05   -1.7428212E+00
   2.9257224E-04   1.7544417E+05   -1.7422457E+00
   2.9392337E-04   1.7404169E+05   -1.7416703E+00
   2.9528074E-04   1.7265088E+05   -1.7410950E+00
   2.9664438E-04   1.7127163E+05   -1.7405197E+00
   2.9801431E-04   1.6990385E+05   -1.7399446E+00
   2.9939057E-04   1.6854744E+05   -1.7393696E+00
   3.0077319E-04   1.6720231E+05   -1.7387947E+00
   3.0216219E-04   1.6586835E+05   -1.7382199E+00
   3.0355761E-04   1.6454546E+05   -1.7376452E+00
   3.0495947E-04   1.6323356E+05   -1.7370707E+00
   3.0636780E-04   1.6193255E+05   -1.7364963E+00
   3.0778264E-04   1.6064233E+05   -1.7359220E+00
   3.0920401E-04   1.5936281E+05   -1.7353479E+00
   3.1063195E-04   1.5809391E+05   -1.7347739E+00
   3.1206648E-04   1.5683552E+05   -1.7342001E+00
   3.1350764E-04   1.5558756E+05   -1.7336265E+00
   3.1495545E-04   1.5434993E+05   -1.7330531E+00
   3.1640994E-04   1.5312256E+05   -1.7324798E+00
   3.1787116E-04   1.5190535E+05   -1.7319067E+00
   3.1933912E-04   1.5069821E+05   -1.7313338E+00
   3.2081386E-04   1.4950106E+05   -1.7307611E+00
   3.2229541E-04   1.4831381E+05   -1.7301886E+00
   3.2378381E-04   1.4713637E+05   -1.7296163E+00
   3.2527908E-04   1.4596867E+05   -1.7290442E+00
   3.2678125E-04   1.4481062E+05   -1.7284723E+00
   3.2829036E-04   1.4366213E+05   -1.7279007E+00
   3.2980644E-04   1.4252313E+05   -1.7273293E+00
   3.3132952E-04   1.4139353E+05   -1.7267581E+00
   3.3285963E-04   1.4027325E+05   -1.7261872E+00
   3.3439681E-04   1.3916221E+05   -1.7256165E+00
   3.3594109E-04   1.3806034E+05   -1.7250461E+00
   3.3749250E-04   1.3696755E+05   -1.7244759E+00
   3.3905108E-04   1.3588377E+05   -1.7239060E+00
   3.4061685E-04   1.3480892E+05   -1.7233364E+00
   3.4218986E-04   1.3374292E+05   -1.7227671E+00
   3.4377013E-04   1.3268570E+05   -1.7221980E+00
   3.4535769E-04   1.3163718E+05   -1.7216293E+00
   3.4695259E-04   1.3059728E+05   -1.7210608E+00
   3.4855485E-04   1.2956595E+05   -1.7204927E+00
   3.5016452E-04   1.2854309E+05   -1.7199248E+00
   3.5178161E-04   1.2752864E+05   -1.7193573E+00
   3.5340618E-04   1.2652253E+05   -1.7187901E+00
   3.5503824E-04   1.2552468E+05   -1.7182232E+00
   3.5667785E-04   1.2453503E+05   -1.7176566E+00
   3.5832502E-04   1.2355350E+05   -1.7170904E+00
   3.5997981E-04   1.2258003E+05   -1.7165245E+00
   3.6164223E-04   1.2161455E+05   -1.7159590E+00
   3.6331233E-04   1.2065698E+05   -1.7153938E+00
   3.6499015E-04   1.1970727E+05   -1.7148290E+00
   3.6667571E-04   1.1876534E+05   -1.7142645E+00
   3.6836906E-04   1.1783113E+05   -1.7137004E+00
   3.7007022E-04   1.1690457E+05   -1.7131367E+00
   3.7177925E-04   1.1598560E+05   -1.7125734E+00
   3.7349616E-04   1.1507415E+05   -1.7120105E+00
   3.7522101E-04   1.1417016E+05   -1.7114479E+00
   3.7695382E-04   1.1327356E+05   -1.7108858E+00
   3.7869463E-04   1.1238429E+05   -1.7103240E+00
   3.8044348E-04   1.1150230E+05   -1.7097627E+00
   3.8220041E-04   1.1062751E+05   -1.7092018E+00
   3.8396545E-04   1.0975987E+05   -1.7086413E+00
   3.8573864E-04   1.0889932E+05   -1.7080812E+00
   3.8752002E-04   1.0804579E+05   -1.7075216E+00
   3.8930963E-04   1.0719923E+05   -1.7069624E+00
   3.9110750E-04   1.0635957E+05   -1.7064036E+00
   3.9291368E-04   1.0552677E+05   -1.7058453E+00
   3.9472820E-04   1.0470075E+05   -1.7052875E+00
   3.9655109E-04   1.0388147E+05   -1.7047301E+00
   3.9838241E-04   1.0306886E+05   -1.7041731E+00
   4.0022218E-04   1.0226287E+05   -1.7036167E+00
   4.0207045E-04   1.0146344E+05   -1.7030607E+00
   4.0392725E-04   1.0067052E+05   -1.7025052E+00
   4.0579263E-04   9.9884054E+04   -1.7019502E+00
   4.0766662E-04   9.9103984E+04   -1.7013956E+00
   4.0954927E-04   9.8330257E+04   -1.7008416E+00
   4.1144061E-04   9.7562820E+04   -1.7002881E+00
   4.1334068E-04   9.6801619E+04   -1.6997350E+00
   4.1524953E-04   9.6046602E+04   -1.6991825E+00
   4.1716720E-04   9.5297716E+04   -1.6986305E+00
   4.1909372E-04   9.4554909E+04   -1.6980790E+00
   4.2102914E-04   9.3818131E+04   -1.6975281E+00
   4.2297350E-04   9.3087329E+04   -1.6969777E+00
   4.2492683E-04   9.2362455E+04   -1.6964278E+00
   4.2688919E-04   9.1643457E+04   -1.6958784E+00
   4.2886061E-04   9.0930287E+04   -1.6953296E+00
   4.3084113E-04   9.0222894E+04   -1.6947814E+00
   4.3283080E-04   8.9521231E+04   -1.6942337E+00
   4.3482966E-04   8.8825248E+04   -1.6936866E+00
   4.3683775E-04   8.8134899E+04   -1.6931400E+00
   4.3885511E-04   8.7450134E+04   -1.6925940E+00
   4.4088179E-04   8.6770909E+04   -1.6920486E+00
   4.4291783E-04   8.6097175E+04   -1.6915038E+00
   4.4496327E-04   8.5428886E+04   -1.6909596E+00
   4.4701816E-04   8.4765998E+04   -1.6904159E+00
   4.4908253E-04   8.4108463E+04   -1.6898728E+00
   4.5115644E-04   8.3456238E+04   -1.6893304E+00
   4.5323993E-04   8.2809277E+04   -1.6887885E+00
   4.5533304E-04   8.2167537E+04   -1.6882473E+00
   4.5743582E-04   8.1530974E+04   -1.6877067E+00
   4.5954830E-04   8.0899543E+04   -1.6871667E+00
   4.6167054E-04   8.0273202E+04   -1.6866273E+00
   4.6380259E-04   7.9651908E+04   -1.6860885E+00
   4.6594448E-04   7.9035619E+04   -1.6855504E+00
   4.6809626E-04   7.8424292E+04   -1.6850129E+00
   4.7025797E-04   7.7817887E+04   -1.6844761E+00
   4.7242967E-04   7.7216361E+04   -1.6839399E+00
   4.7461140E-04   7.6619675E+04   -1.6834044E+00
   4.7680321E-04   7.6027786E+04   -1.6828695E+00
   4.7900514E-04   7.5440656E+04   -1.6823353E+00
   4.8121723E-04   7.4858244E+04   -1.6818017E+00
   4.8343954E-04   7.4280511E+04   -1.6812688E+00
   4.8567212E-04   7.3707418E+04   -1.6807366E+00
   4.8791500E-04   7.3138926E+04   -1.6802050E+00
   4.9016825E-04   7.2574995E+04   -1.6796742E+00
   4.9243189E-04   7.2015589E+04   -1.6791440E+00
   4.9470600E-04   7.1460670E+04   -1.6786145E+00
   4.9699060E-04   7.0910199E+04   -1.6780858E+00
   4.9928575E-04   7.0364139E+04   -1.6775577E+00
   5.0159151E-04   6.9822455E+04   -1.6770303E+00
   5.0390791E-04   6.9285108E+04   -1.6765036E+00
   5.0623501E-04   6.8752064E+04   -1.6759777E+00
   5.0857286E-04   6.8223286E+04   -1.6754524E+00
   5.1092150E-04   6.7698739E+04   -1.6749279E+00
   5.1328099E-04   6.7178387E+04   -1.6744041E+00
   5.1565137E-04   6.6662196E+04   -1.6738810E+00
   5.1803270E-04   6.6150130E+04   -1.6733587E+00
   5.2042503E-04   6.5642155E+04   -1.6728371E+00
   5.2282841E-04   6.5138238E+04   -1.6723162E+00
   5.2524289E-04   6.4638344E+04   -1.6717961E+00
   5.2766851E-04   6.4142440E+04   -1.6712767E+00
   5.3010534E-04   6.3650492E+04   -1.6707581E+00
   5.3255342E-04   6.3162469E+04   -1.6702402E+00
   5.3501281E-04   6.2678337E+04   -1.6697231E+00
   5.3748356E-04   6.2198063E+04   -1.6692068E+00
   5.3996571E-04   6.1721617E+04   -1.6686912E+00
   5.4245933E-04   6.1248965E+04   -1.6681764E+00
   5.4496446E-04   6.0780078E+04   -1.6676624E+00
   5.4748117E-04   6.0314922E+04   -1.6671491E+00
   5.5000949E-04   5.9853468E+04   -1.6666367E+00
   5.5254949E-04   5.9395684E+04   -1.6661250E+00
   5.5510123E-04   5.8941541E+04   -1.6656141E+00
   5.5766474E-04   5.8491007E+04   -1.6651040E+00
   5.6024010E-04   5.8044054E+04   -1.6645947E+00
   5.6282734E-04   5.7600651E+04   -1.6640862E+00
   5.6542654E-04   5.7160769E+04   -1.6635785E+00
   5.6803774E-04   5.6724379E+04   -1.6630716E+00
   5.7066099E-04   5.6291451E+04   -1.6625655E+00
   5.7329637E-04   5.5861958E+04   -1.6620603E+00
   5.7594391E-04   5.5435871E+04   -1.6615558E+00
   5.7860368E-04   5.5013162E+04   -1.6610522E+00
   5.8127573E-04   5.4593803E+04   -1.6605494E+00
   5.8396012E-04   5.4177765E+04   -1.6600474E+00
   5.8665691E-04   5.3765023E+04   -1.6595462E+00
   5.8936616E-04   5.3355548E+04   -1.6590459E+00
   5.9208791E-04   5.2949313E+04   -1.6585464E+00
   5.9482223E-04   5.2546292E+04   -1.6580478E+00
   5.9756919E-04   5.2146459E+04   -1.6575500E+00
   6.0032882E-04   5.1749786E+04   -1.6570530E+00
   6.0310120E-04   5.1356249E+04   -1.6565569E+00
   6.0588639E-04   5.0965820E+04   -1.6560617E+00
   6.0868443E-04   5.0578475E+04   -1.6555673E+00
   6.1149540E-04   5.0194188E+04   -1.6550738E+00
   6.1431935E-04   4.9812934E+04   -1.6545811E+00
   6.1715634E-04   4.9434688E+04   -1.6540893E+00
   6.2000644E-04   4.9059425E+04   -1.6535983E+00
   6.2286969E-04   4.8687121E+04   -1.6531083E+00
