#        a       HoverH0(a)       dlogHdloga_of_a(a)
   1.0000000E-04   1.0656546E+06   -1.8841500E+00
   1.0046181E-04   1.0564445E+06   -1.8837394E+00
   1.0092575E-04   1.0473160E+06   -1.8833277E+00
   1.0139184E-04   1.0382683E+06   -1.8829151E+00
   1.0186008E-04   1.0293008E+06   -1.8825014E+00
   1.0233048E-04   1.0204126E+06   -1.8820867E+00
   1.0280305E-04   1.0116032E+06   -1.8816711E+00
   1.0327781E-04   1.0028717E+06   -1.8812544E+00
   1.0375475E-04   9.9421750E+05   -1.8808367E+00
   1.0423390E-04   9.8563988E+05   -1.8804180E+00
   1.0471527E-04   9.7713815E+05   -1.8799982E+00
   1.0519885E-04   9.6871163E+05   -1.8795775E+00
   1.0568467E-04   9.6035964E+05   -1.8791558E+00
   1.0617274E-04   9.5208151E+05   -1.8787331E+00
   1.0666305E-04   9.4387657E+05   -1.8783093E+00
   1.0715563E-04   9.3574418E+05   -1.8778846E+00
   1.0765049E-04   9.2768367E+05   -1.8774588E+00
   1.0814763E-04   9.1969441E+05   -1.8770321E+00
   1.0864707E-04   9.1177574E+05   -1.8766043E+00
   1.0914881E-04   9.0392703E+05   -1.8761756E+00
   1.0965287E-04   8.9614766E+05   -1.8757458E+00
   1.1015926E-04   8.8843700E+05   -1.8753151E+00
   1.1066799E-04   8.8079444E+05   -1.8748834E+00
   1.1117906E-04   8.7321936E+05   -1.8744506E+00
   1.1169250E-04   8.6571115E+05   -1.8740169E+00
   1.1220831E-04   8.5826922E+05   -1.8735822E+00
   1.1272650E-04   8.5089296E+05   -1.8731465E+00
   1.1324708E-04   8.4358180E+05   -1.8727098E+00
   1.1377007E-04   8.3633514E+05   -1.8722721E+00
   1.1429547E-04   8.2915241E+05   -1.8718334E+00
   1.1482330E-04   8.2203303E+05   -1.8713937E+00
   1.1535356E-04   8.1497643E+05   -1.8709531E+00
   1.1588628E-04   8.0798205E+05   -1.8705115E+00
   1.1642145E-04   8.0104933E+05   -1.8700688E+00
   1.1695910E-04   7.9417772E+05   -1.8696253E+00
   1.1749923E-04   7.8736666E+05   -1.8691807E+00
   1.1804185E-04   7.8061562E+05   -1.8687351E+00
   1.1858698E-04   7.7392405E+05   -1.8682886E+00
   1.1913463E-04   7.6729142E+05   -1.8678411E+00
   1.1968481E-04   7.6071721E+05   -1.8673926E+00
   1.2023752E-04   7.5420088E+05   -1.8669432E+00
   1.2079279E-04   7.4774193E+05   -1.8664928E+00
   1.2135063E-04   7.4133983E+05   -1.8660414E+00
   1.2191104E-04   7.3499407E+05   -1.8655890E+00
   1.2247403E-04   7.2870415E+05   -1.8651357E+00
   1.2303963E-04   7.2246957E+05   -1.8646814E+00
   1.2360784E-04   7.1628984E+05   -1.8642262E+00
   1.2417868E-04   7.1016445E+05   -1.8637700E+00
   1.2475215E-04   7.0409292E+05   -1.8633128E+00
   1.2532826E-04   6.9807478E+05   -1.8628547E+00
   1.2590704E-04   6.9210954E+05   -1.8623956E+00
   1.2648850E-04   6.8619672E+05   -1.8619356E+00
   1.2707263E-04   6.8033586E+05   -1.8614746E+00
   1.2765947E-04   6.7452650E+05   -1.8610127E+00
   1.2824901E-04   6.6876816E+05   -1.8605499E+00
   1.2884128E-04   6.6306040E+05   -1.8600861E+00
   1.2943628E-04   6.5740277E+05   -1.8596213E+00
   1.3003403E-04   6.5179480E+05   -1.8591556E+00
   1.3063454E-04   6.4623606E+05   -1.8586890E+00
   1.3123783E-04   6.4072610E+05   -1.8582214E+00
   1.3184390E-04   6.3526449E+05   -1.8577529E+00
   1.3245277E-04   6.2985080E+05   -1.8572835E+00
   1.3306445E-04   6.2448460E+05   -1.8568131E+00
   1.3367895E-04   6.1916546E+05   -1.8563418E+00
   1.3429630E-04   6.1389296E+05   -1.8558696E+00
   1.3491649E-04   6.0866668E+05   -1.8553965E+00
   1.3553955E-04   6.0348621E+05   -1.8549224E+00
   1.3616548E-04   5.9835114E+05   -1.8544475E+00
   1.3679431E-04   5.9326107E+05   -1.8539716E+00
   1.3742604E-04   5.8821559E+05   -1.8534948E+00
   1.3806069E-04   5.8321430E+05   -1.8530171E+00
   1.3869827E-04   5.7825681E+05   -1.8525385E+00
   1.3933879E-04   5.7334273E+05   -1.8520589E+00
   1.3998227E-04   5.6847166E+05   -1.8515785E+00
   1.4062872E-04   5.6364322E+05   -1.8510972E+00
   1.4127816E-04   5.5885704E+05   -1.8506150E+00
   1.4193060E-04   5.5411273E+05   -1.8501318E+00
   1.4258605E-04   5.4940992E+05   -1.8496478E+00
   1.4324453E-04   5.4474824E+05   -1.8491629E+00
   1.4390605E-04   5.4012732E+05   -1.8486771E+00
   1.4457062E-04   5.3554680E+05   -1.8481905E+00
   1.4523826E-04   5.3100631E+05   -1.8477029E+00
   1.4590899E-04   5.2650551E+05   -1.8472145E+00
   1.4658281E-04   5.2204403E+05   -1.8467252E+00
   1.4725974E-04   5.1762152E+05   -1.8462350E+00
   1.4793981E-04   5.1323764E+05   -1.8457439E+00
   1.4862301E-04   5.0889204E+05   -1.8452520E+00
   1.4930936E-04   5.0458438E+05   -1.8447592E+00
   1.4999889E-04   5.0031431E+05   -1.8442656E+00
   1.5069160E-04   4.9608152E+05   -1.8437710E+00
   1.5138751E-04   4.9188565E+05   -1.8432757E+00
   1.5208663E-04   4.8772639E+05   -1.8427795E+00
   1.5278899E-04   4.8360340E+05   -1.8422824E+00
   1.5349458E-04   4.7951637E+05   -1.8417845E+00
   1.5420343E-04   4.7546497E+05   -1.8412857E+00
   1.5491556E-04   4.7144889E+05   -1.8407861E+00
   1.5563098E-04   4.6746780E+05   -1.8402857E+00
   1.5634970E-04   4.6352140E+05   -1.8397845E+00
   1.5707174E-04   4.5960938E+05   -1.8392824E+00
   1.5779711E-04   4.5573143E+05   -1.8387794E+00
   1.5852584E-04   4.5188725E+05   -1.8382757E+00
   1.5925792E-04   4.4807653E+05   -1.8377711E+00
   1.5999339E-04   4.4429899E+05   -1.8372657E+00
   1.6073226E-04   4.4055432E+05   -1.8367595E+00
   1.6147454E-04   4.3684222E+05   -1.8362525E+00
   1.6222024E-04   4.3316242E+05   -1.8357447E+00
   1.6296939E-04   4.2951463E+05   -1.8352361E+00
   1.6372200E-04   4.2589855E+05   -1.8347267E+00
   1.6447809E-04   4.2231391E+05   -1.8342165E+00
   1.6523767E-04   4.1876042E+05   -1.8337055E+00
   1.6600075E-04   4.1523781E+05   -1.8331937E+00
   1.6676736E-04   4.1174581E+05   -1.8326811E+00
   1.6753751E-04   4.0828413E+05   -1.8321677E+00
   1.6831122E-04   4.0485252E+05   -1.8316536E+00
   1.6908849E-04   4.0145070E+05   -1.8311387E+00
   1.6986936E-04   3.9807841E+05   -1.8306230E+00
   1.7065384E-04   3.9473539E+05   -1.8301065E+00
   1.7144193E-04   3.9142138E+05   -1.8295893E+00
   1.7223367E-04   3.8813611E+05   -1.8290713E+00
   1.7302906E-04   3.8487934E+05   -1.8285526E+00
   1.7382813E-04   3.8165080E+05   -1.8280331E+00
   1.7463089E-04   3.7845026E+05   -1.8275129E+00
   1.7543735E-04   3.7527745E+05   -1.8269919E+00
   1.7624754E-04   3.7213214E+05   -1.8264702E+00
   1.7706147E-04   3.6901408E+05   -1.8259477E+00
   1.7787916E-04   3.6592303E+05   -1.8254246E+00
   1.7870062E-04   3.6285874E+05   -1.8249006E+00
   1.7952588E-04   3.5982098E+05   -1.8243760E+00
   1.8035495E-04   3.5680952E+05   -1.8238507E+00
   1.8118785E-04   3.5382412E+05   -1.8233246E+00
   1.8202459E-04   3.5086455E+05   -1.8227978E+00
   1.8286520E-04   3.4793057E+05   -1.8222703E+00
   1.8370969E-04   3.4502198E+05   -1.8217421E+00
   1.8455808E-04   3.4213853E+05   -1.8212132E+00
   1.8541039E-04   3.3928000E+05   -1.8206836E+00
   1.8626663E-04   3.3644618E+05   -1.8201534E+00
   1.8712683E-04   3.3363685E+05   -1.8196224E+00
   1.8799100E-04   3.3085178E+05   -1.8190907E+00
   1.8885917E-04   3.2809077E+05   -1.8185584E+00
   1.8973134E-04   3.2535359E+05   -1.8180254E+00
   1.9060754E-04   3.2264004E+05   -1.8174917E+00
   1.9148778E-04   3.1994992E+05   -1.8169574E+00
   1.9237209E-04   3.1728300E+05   -1.8164224E+00
   1.9326049E-04   3.1463909E+05   -1.8158868E+00
   1.9415299E-04   3.1201798E+05   -1.8153505E+00
   1.9504960E-04   3.0941947E+05   -1.8148135E+00
   1.9595036E-04   3.0684337E+05   -1.8142759E+00
   1.9685528E-04   3.0428946E+05   -1.8137377E+00
   1.9776438E-04   3.0175756E+05   -1.8131989E+00
   1.9867768E-04   2.9924747E+05   -1.8126594E+00
   1.9959519E-04   2.9675900E+05   -1.8121193E+00
   2.0051694E-04   2.9429195E+05   -1.8115785E+00
   2.0144295E-04   2.9184614E+05   -1.8110372E+00
   2.0237324E-04   2.8942138E+05   -1.8104952E+00
   2.0330782E-04   2.8701748E+05   -1.8099527E+00
   2.0424671E-04   2.8463426E+05   -1.8094095E+00
   2.0518995E-04   2.8227154E+05   -1.8088658E+00
   2.0613754E-04   2.7992913E+05   -1.8083214E+00
   2.0708950E-04   2.7760686E+05   -1.8077765E+00
   2.0804586E-04   2.7530454E+05   -1.8072310E+00
   2.0900664E-04   2.7302200E+05   -1.8066849E+00
   2.0997185E-04   2.7075907E+05   -1.8061382E+00
   2.1094152E-04   2.6851558E+05   -1.8055910E+00
   2.1191567E-04   2.6629134E+05   -1.8050432E+00
   2.1289432E-04   2.6408620E+05   -1.8044949E+00
   2.1387749E-04   2.6189997E+05   -1.8039460E+00
   2.1486520E-04   2.5973251E+05   -1.8033966E+00
   2.1585747E-04   2.5758363E+05   -1.8028466E+00
   2.1685432E-04   2.5545318E+05   -1.8022961E+00
   2.1785578E-04   2.5334099E+05   -1.8017450E+00
   2.1886186E-04   2.5124691E+05   -1.8011934E+00
   2.1987259E-04   2.4917077E+05   -1.8006413E+00
   2.2088798E-04   2.4711241E+05   -1.8000887E+00
   2.2190807E-04   2.4507168E+05   -1.7995356E+00
   2.2293286E-04   2.4304843E+05   -1.7989820E+00
   2.2396239E-04   2.4104249E+05   -1.7984279E+00
   2.2499667E-04   2.3905372E+05   -1.7978732E+00
   2.2603573E-04   2.3708197E+05   -1.7973181E+00
   2.2707958E-04   2.3512707E+05   -1.7967625E+00
   2.2812826E-04   2.3318890E+05   -1.7962064E+00
   2.2918178E-04   2.3126730E+05   -1.7956499E+00
   2.3024017E-04   2.2936211E+05   -1.7950929E+00
   2.3130344E-04   2.2747321E+05   -1.7945354E+00
   2.3237162E-04   2.2560044E+05   -1.7939774E+00
   2.3344474E-04   2.2374367E+05   -1.7934190E+00
   2.3452281E-04   2.2190275E+05   -1.7928602E+00
   2.3560586E-04   2.2007754E+05   -1.7923009E+00
   2.3669392E-04   2.1826791E+05   -1.7917412E+00
   2.3778699E-04   2.1647372E+05   -1.7911810E+00
   2.3888512E-04   2.1469483E+05   -1.7906205E+00
   2.3998831E-04   2.1293111E+05   -1.7900595E+00
   2.4109661E-04   2.1118242E+05   -1.7894981E+00
   2.4221001E-04   2.0944864E+05   -1.7889362E+00
   2.4332857E-04   2.0772963E+05   -1.7883740E+00
   2.4445228E-04   2.0602526E+05   -1.7878114E+00
   2.4558119E-04   2.0433540E+05   -1.7872484E+00
   2.4671531E-04   2.0265993E+05   -1.7866850E+00
   2.4785467E-04   2.0099873E+05   -1.7861212E+00
   2.4899928E-04   1.9935165E+05   -1.7855570E+00
   2.5014919E-04   1.9771859E+05   -1.7849925E+00
   2.5130440E-04   1.9609942E+05   -1.7844276E+00
   2.5246495E-04   1.9449401E+05   -1.7838623E+00
   2.5363086E-04   1.9290225E+05   -1.7832967E+00
   2.5480216E-04   1.9132401E+05   -1.7827308E+00
   2.5597886E-04   1.8975918E+05   -1.7821645E+00
   2.5716100E-04   1.8820764E+05   -1.7815978E+00
   2.5834859E-04   1.8666927E+05   -1.7810309E+00
   2.5954168E-04   1.8514396E+05   -1.7804636E+00
   2.6074027E-04   1.8363160E+05   -1.7798960E+00
   2.6194439E-04   1.8213207E+05   -1.7793281E+00
   2.6315408E-04   1.8064525E+05   -1.7787598E+00
   2.6436935E-04   1.7917104E+05   -1.7781913E+00
   2.6559024E-04   1.7770933E+05   -1.7776225E+00
   2.6681676E-04   1.7626000E+05   -1.7770533E+00
   2.6804895E-04   1.7482295E+05   -1.7764839E+00
   2.6928683E-04   1.7339808E+05   -1.7759143E+00
   2.7053042E-04   1.7198527E+05   -1.7753443E+00
   2.7177976E-04   1.7058442E+05   -1.7747741E+00
   2.7303487E-04   1.6919542E+05   -1.7742036E+00
   2.7429577E-04   1.6781817E+05   -1.7736329E+00
   2.7556250E-04   1.6645257E+05   -1.7730619E+00
   2.7683507E-04   1.6509852E+05   -1.7724907E+00
   2.7811353E-04   1.6375592E+05   -1.7719192E+00
   2.7939788E-04   1.6242466E+05   -1.7713475E+00
   2.8068817E-04   1.6110465E+05   -1.7707756E+00
   2.8198442E-04   1.5979579E+05   -1.7702034E+00
   2.8328665E-04   1.5849798E+05   -1.7696311E+00
   2.8459490E-04   1.5721112E+05   -1.7690585E+00
   2.8590919E-04   1.5593512E+05   -1.7684857E+00
   2.8722955E-04   1.5466989E+05   -1.7679128E+00
   2.8855600E-04   1.5341533E+05   -1.7673396E+00
   2.8988859E-04   1.5217135E+05   -1.7667663E+00
   2.9122732E-04   1.5093785E+05   -1.7661928E+00
   2.9257224E-04   1.4971475E+05   -1.7656191E+00
   2.9392337E-04   1.4850195E+05   -1.7650453E+00
   2.9528074E-04   1.4729936E+05   -1.7644712E+00
   2.9664438E-04   1.4610690E+05   -1.7638971E+00
   2.9801431E-04   1.4492448E+05   -1.7633228E+00
   2.9939057E-04   1.4375201E+05   -1.7627483E+00
   3.0077319E-04   1.4258940E+05   -1.7621737E+00
   3.0216219E-04   1.4143656E+05   -1.7615990E+00
   3.0355761E-04   1.4029342E+05   -1.7610242E+00
   3.0495947E-04   1.3915989E+05   -1.7604492E+00
   3.0636780E-04   1.3803588E+05   -1.7598741E+00
   3.0778264E-04   1.3692131E+05   -1.7592990E+00
   3.0920401E-04   1.3581610E+05   -1.7587237E+00
   3.1063195E-04   1.3472018E+05   -1.7581483E+00
   3.1206648E-04   1.3363344E+05   -1.7575729E+00
   3.1350764E-04   1.3255583E+05   -1.7569973E+00
   3.1495545E-04   1.3148725E+05   -1.7564217E+00
   3.1640994E-04   1.3042764E+05   -1.7558461E+00
   3.1787116E-04   1.2937690E+05   -1.7552703E+00
   3.1933912E-04   1.2833498E+05   -1.7546945E+00
   3.2081386E-04   1.2730178E+05   -1.7541187E+00
   3.2229541E-04   1.2627723E+05   -1.7535428E+00
   3.2378381E-04   1.2526126E+05   -1.7529668E+00
   3.2527908E-04   1.2425380E+05   -1.7523909E+00
   3.2678125E-04   1.2325477E+05   -1.7518149E+00
   3.2829036E-04   1.2226409E+05   -1.7512389E+00
   3.2980644E-04   1.2128170E+05   -1.7506629E+00
   3.3132952E-04   1.2030752E+05   -1.7500868E+00
   3.3285963E-04   1.1934148E+05   -1.7495108E+00
   3.3439681E-04   1.1838351E+05   -1.7489348E+00
   3.3594109E-04   1.1743354E+05   -1.7483587E+00
   3.3749250E-04   1.1649151E+05   -1.7477827E+00
   3.3905108E-04   1.1555734E+05   -1.7472068E+00
   3.4061685E-04   1.1463097E+05   -1.7466308E+00
   3.4218986E-04   1.1371232E+05   -1.7460549E+00
   3.4377013E-04   1.1280134E+05   -1.7454790E+00
   3.4535769E-04   1.1189795E+05   -1.7449032E+00
   3.4695259E-04   1.1100209E+05   -1.7443274E+00
   3.4855485E-04   1.1011369E+05   -1.7437517E+00
   3.5016452E-04   1.0923269E+05   -1.7431761E+00
   3.5178161E-04   1.0835903E+05   -1.7426005E+00
   3.5340618E-04   1.0749265E+05   -1.7420250E+00
   3.5503824E-04   1.0663347E+05   -1.7414496E+00
   3.5667785E-04   1.0578144E+05   -1.7408743E+00
   3.5832502E-04   1.0493650E+05   -1.7402990E+00
   3.5997981E-04   1.0409858E+05   -1.7397239E+00
   3.6164223E-04   1.0326762E+05   -1.7391489E+00
   3.6331233E-04   1.0244357E+05   -1.7385740E+00
   3.6499015E-04   1.0162637E+05   -1.7379992E+00
   3.6667571E-04   1.0081595E+05   -1.7374246E+00
   3.6836906E-04   1.0001226E+05   -1.7368500E+00
   3.7007022E-04   9.9215236E+04   -1.7362756E+00
   3.7177925E-04   9.8424826E+04   -1.7357014E+00
   3.7349616E-04   9.7640971E+04   -1.7351273E+00
   3.7522101E-04   9.6863615E+04   -1.7345534E+00
   3.7695382E-04   9.6092701E+04   -1.7339796E+00
   3.7869463E-04   9.5328176E+04   -1.7334060E+00
   3.8044348E-04   9.4569983E+04   -1.7328326E+00
   3.8220041E-04   9.3818068E+04   -1.7322593E+00
   3.8396545E-04   9.3072378E+04   -1.7316863E+00
   3.8573864E-04   9.2332858E+04   -1.7311134E+00
   3.8752002E-04   9.1599455E+04   -1.7305407E+00
   3.8930963E-04   9.0872118E+04   -1.7299683E+00
   3.9110750E-04   9.0150794E+04   -1.7293960E+00
   3.9291368E-04   8.9435432E+04   -1.7288240E+00
   3.9472820E-04   8.8725979E+04   -1.7282522E+00
   3.9655109E-04   8.8022386E+04   -1.7276806E+00
   3.9838241E-04   8.7324603E+04   -1.7271092E+00
   4.0022218E-04   8.6632579E+04   -1.7265381E+00
   4.0207045E-04   8.5946266E+04   -1.7259672E+00
   4.0392725E-04   8.5265614E+04   -1.7253966E+00
   4.0579263E-04   8.4590575E+04   -1.7248263E+00
   4.0766662E-04   8.3921100E+04   -1.7242562E+00
   4.0954927E-04   8.3257142E+04   -1.7236863E+00
   4.1144061E-04   8.2598655E+04   -1.7231168E+00
   4.1334068E-04   8.1945590E+04   -1.7225475E+00
   4.1524953E-04   8.1297902E+04   -1.7219785E+00
   4.1716720E-04   8.0655544E+04   -1.7214099E+00
   4.1909372E-04   8.0018472E+04   -1.7208415E+00
   4.2102914E-04   7.9386639E+04   -1.7202734E+00
   4.2297350E-04   7.8760001E+04   -1.7197056E+00
   4.2492683E-04   7.8138514E+04   -1.7191381E+00
   4.2688919E-04   7.7522135E+04   -1.7185710E+00
   4.2886061E-04   7.6910818E+04   -1.7180042E+00
   4.3084113E-04   7.6304521E+04   -1.7174377E+00
   4.3283080E-04   7.5703201E+04   -1.7168716E+00
   4.3482966E-04   7.5106815E+04   -1.7163058E+00
   4.3683775E-04   7.4515322E+04   -1.7157403E+00
   4.3885511E-04   7.3928680E+04   -1.7151753E+00
   4.4088179E-04   7.3346847E+04   -1.7146105E+00
   4.4291783E-04   7.2769783E+04   -1.7140462E+00
   4.4496327E-04   7.2197446E+04   -1.7134822E+00
   4.4701816E-04   7.1629797E+04   -1.7129186E+00
   4.4908253E-04   7.1066796E+04   -1.7123554E+00
   4.5115644E-04   7.0508402E+04   -1.7117925E+00
   4.5323993E-04   6.9954577E+04   -1.7112301E+00
   4.5533304E-04   6.9405283E+04   -1.7106681E+00
   4.5743582E-04   6.8860480E+04   -1.7101064E+00
   4.5954830E-04   6.8320130E+04   -1.7095452E+00
   4.6167054E-04   6.7784195E+04   -1.7089844E+00
   4.6380259E-04   6.7252638E+04   -1.7084240E+00
   4.6594448E-04   6.6725422E+04   -1.7078641E+00
   4.6809626E-04   6.6202509E+04   -1.7073046E+00
   4.7025797E-04   6.5683864E+04   -1.7067455E+00
   4.7242967E-04   6.5169449E+04   -1.7061868E+00
   4.7461140E-04   6.4659230E+04   -1.7056287E+00
   4.7680321E-04   6.4153170E+04   -1.7050709E+00
   4.7900514E-04   6.3651235E+04   -1.7045137E+00
   4.8121723E-04   6.3153389E+04   -1.7039569E+00
   4.8343954E-04   6.2659597E+04   -1.7034005E+00
   4.8567212E-04   6.2169825E+04   -1.7028447E+00
   4.8791500E-04   6.1684040E+04   -1.7022893E+00
   4.9016825E-04   6.1202207E+04   -1.7017344E+00
   4.9243189E-04   6.0724293E+04   -1.7011800E+00
   4.9470600E-04   6.0250265E+04   -1.7006261E+00
   4.9699060E-04   5.9780089E+04   -1.7000727E+00
   4.9928575E-04   5.9313734E+04   -1.6995199E+00
   5.0159151E-04   5.8851167E+04   -1.6989675E+00
   5.0390791E-04   5.8392356E+04   -1.6984156E+00
   5.0623501E-04   5.7937269E+04   -1.6978643E+00
   5.0857286E-04   5.7485874E+04   -1.6973135E+00
   5.1092150E-04   5.7038142E+04   -1.6967632E+00
   5.1328099E-04   5.6594039E+04   -1.6962135E+00
   5.1565137E-04   5.6153537E+04   -1.6956643E+00
   5.1803270E-04   5.5716605E+04   -1.6951157E+00
   5.2042503E-04   5.5283212E+04   -1.6945676E+00
   5.2282841E-04   5.4853328E+04   -1.6940201E+00
   5.2524289E-04   5.4426925E+04   -1.6934731E+00
   5.2766851E-04   5.4003972E+04   -1.6929267E+00
   5.3010534E-04   5.3584440E+04   -1.6923809E+00
   5.3255342E-04   5.3168302E+04   -1.6918356E+00
   5.3501281E-04   5.2755528E+04   -1.6912910E+00
   5.3748356E-04   5.2346089E+04   -1.6907469E+00
   5.3996571E-04   5.1939959E+04   -1.6902034E+00
   5.4245933E-04   5.1537108E+04   -1.6896605E+00
   5.4496446E-04   5.1137510E+04   -1.6891183E+00
   5.4748117E-04   5.0741137E+04   -1.6885766E+00
   5.5000949E-04   5.0347962E+04   -1.6880355E+00
   5.5254949E-04   4.9957957E+04   -1.6874951E+00
   5.5510123E-04   4.9571098E+04   -1.6869552E+00
   5.5766474E-04   4.9187356E+04   -1.6864160E+00
   5.6024010E-04   4.8806706E+04   -1.6858775E+00
   5.6282734E-04   4.8429122E+04   -1.6853395E+00
   5.6542654E-04   4.8054578E+04   -1.6848022E+00
   5.6803774E-04   4.7683048E+04   -1.6842656E+00
   5.7066099E-04   4.7314508E+04   -1.6837296E+00
   5.7329637E-04   4.6948933E+04   -1.6831942E+00
   5.7594391E-04   4.6586296E+04   -1.6826595E+00
   5.7860368E-04   4.6226575E+04   -1.6821255E+00
   5.8127573E-04   4.5869744E+04   -1.6815922E+00
   5.8396012E-04   4.5515779E+04   -1.6810595E+00
   5.8665691E-04   4.5164657E+04   -1.6805274E+00
   5.8936616E-04   4.4816353E+04   -1.6799961E+00
   5.9208791E-04   4.4470844E+04   -1.6794654E+00
   5.9482223E-04   4.4128106E+04   -1.6789355E+00
   5.9756919E-04   4.3788117E+04   -1.6784062E+00
   6.0032882E-04   4.3450853E+04   -1.6778776E+00
   6.0310120E-04   4.3116291E+04   -1.6773497E+00
   6.0588639E-04   4.2784410E+04   -1.6768226E+00
   6.0868443E-04   4.2455186E+04   -1.6762961E+00
   6.1149540E-04   4.2128598E+04   -1.6757704E+00
   6.1431935E-04   4.1804624E+04   -1.6752453E+00
   6.1715634E-04   4.1483241E+04   -1.6747210E+00
   6.2000644E-04   4.1164428E+04   -1.6741974E+00
   6.2286969E-04   4.0848164E+04   -1.6736746E+00
