#        a       HoverH0(a)       dlogHdloga_of_a(a)
   1.0000000E-04   1.0495049E+06   -1.8852193E+00
   1.0046181E-04   1.0404293E+06   -1.8848114E+00
   1.0092575E-04   1.0314340E+06   -1.8844024E+00
   1.0139184E-04   1.0225185E+06   -1.8839924E+00
   1.0186008E-04   1.0136820E+06   -1.8835814E+00
   1.0233048E-04   1.0049237E+06   -1.8831694E+00
   1.0280305E-04   9.9624299E+05   -1.8827563E+00
   1.0327781E-04   9.8763915E+05   -1.8823423E+00
   1.0375475E-04   9.7911149E+05   -1.8819272E+00
   1.0423390E-04   9.7065931E+05   -1.8815111E+00
   1.0471527E-04   9.6228194E+05   -1.8810941E+00
   1.0519885E-04   9.5397871E+05   -1.8806760E+00
   1.0568467E-04   9.4574895E+05   -1.8802569E+00
   1.0617274E-04   9.3759200E+05   -1.8798368E+00
   1.0666305E-04   9.2950720E+05   -1.8794157E+00
   1.0715563E-04   9.2149391E+05   -1.8789935E+00
   1.0765049E-04   9.1355149E+05   -1.8785704E+00
   1.0814763E-04   9.0567928E+05   -1.8781463E+00
   1.0864707E-04   8.9787667E+05   -1.8777212E+00
   1.0914881E-04   8.9014302E+05   -1.8772950E+00
   1.0965287E-04   8.8247772E+05   -1.8768679E+00
   1.1015926E-04   8.7488015E+05   -1.8764398E+00
   1.1066799E-04   8.6734971E+05   -1.8760106E+00
   1.1117906E-04   8.5988578E+05   -1.8755805E+00
   1.1169250E-04   8.5248778E+05   -1.8751494E+00
   1.1220831E-04   8.4515511E+05   -1.8747173E+00
   1.1272650E-04   8.3788717E+05   -1.8742842E+00
   1.1324708E-04   8.3068340E+05   -1.8738500E+00
   1.1377007E-04   8.2354321E+05   -1.8734149E+00
   1.1429547E-04   8.1646604E+05   -1.8729789E+00
   1.1482330E-04   8.0945131E+05   -1.8725418E+00
   1.1535356E-04   8.0249847E+05   -1.8721037E+00
   1.1588628E-04   7.9560696E+05   -1.8716646E+00
   1.1642145E-04   7.8877622E+05   -1.8712246E+00
   1.1695910E-04   7.8200572E+05   -1.8707836E+00
   1.1749923E-04   7.7529491E+05   -1.8703416E+00
   1.1804185E-04   7.6864326E+05   -1.8698986E+00
   1.1858698E-04   7.6205023E+05   -1.8694546E+00
   1.1913463E-04   7.5551530E+05   -1.8690097E+00
   1.1968481E-04   7.4903794E+05   -1.8685637E+00
   1.2023752E-04   7.4261765E+05   -1.8681168E+00
   1.2079279E-04   7.3625391E+05   -1.8676689E+00
   1.2135063E-04   7.2994621E+05   -1.8672201E+00
   1.2191104E-04   7.2369405E+05   -1.8667703E+00
   1.2247403E-04   7.1749692E+05   -1.8663195E+00
   1.2303963E-04   7.1135434E+05   -1.8658677E+00
   1.2360784E-04   7.0526582E+05   -1.8654150E+00
   1.2417868E-04   6.9923088E+05   -1.8649613E+00
   1.2475215E-04   6.9324902E+05   -1.8645067E+00
   1.2532826E-04   6.8731978E+05   -1.8640511E+00
   1.2590704E-04   6.8144268E+05   -1.8635945E+00
   1.2648850E-04   6.7561725E+05   -1.8631370E+00
   1.2707263E-04   6.6984304E+05   -1.8626785E+00
   1.2765947E-04   6.6411959E+05   -1.8622190E+00
   1.2824901E-04   6.5844644E+05   -1.8617587E+00
   1.2884128E-04   6.5282313E+05   -1.8612973E+00
   1.2943628E-04   6.4724922E+05   -1.8608350E+00
   1.3003403E-04   6.4172428E+05   -1.8603718E+00
   1.3063454E-04   6.3624785E+05   -1.8599076E+00
   1.3123783E-04   6.3081951E+05   -1.8594425E+00
   1.3184390E-04   6.2543883E+05   -1.8589765E+00
   1.3245277E-04   6.2010537E+05   -1.8585095E+00
   1.3306445E-04   6.1481872E+05   -1.8580416E+00
   1.3367895E-04   6.0957846E+05   -1.8575727E+00
   1.3429630E-04   6.0438416E+05   -1.8571029E+00
   1.3491649E-04   5.9923543E+05   -1.8566322E+00
   1.3553955E-04   5.9413185E+05   -1.8561606E+00
   1.3616548E-04   5.8907301E+05   -1.8556880E+00
   1.3679431E-04   5.8405853E+05   -1.8552145E+00
   1.3742604E-04   5.7908799E+05   -1.8547401E+00
   1.3806069E-04   5.7416101E+05   -1.8542648E+00
   1.3869827E-04   5.6927720E+05   -1.8537885E+00
   1.3933879E-04   5.6443617E+05   -1.8533114E+00
   1.3998227E-04   5.5963754E+05   -1.8528333E+00
   1.4062872E-04   5.5488093E+05   -1.8523544E+00
   1.4127816E-04   5.5016596E+05   -1.8518745E+00
   1.4193060E-04   5.4549226E+05   -1.8513937E+00
   1.4258605E-04   5.4085946E+05   -1.8509120E+00
   1.4324453E-04   5.3626721E+05   -1.8504295E+00
   1.4390605E-04   5.3171512E+05   -1.8499460E+00
   1.4457062E-04   5.2720286E+05   -1.8494617E+00
   1.4523826E-04   5.2273005E+05   -1.8489764E+00
   1.4590899E-04   5.1829635E+05   -1.8484903E+00
   1.4658281E-04   5.1390141E+05   -1.8480033E+00
   1.4725974E-04   5.0954488E+05   -1.8475154E+00
   1.4793981E-04   5.0522642E+05   -1.8470266E+00
   1.4862301E-04   5.0094569E+05   -1.8465369E+00
   1.4930936E-04   4.9670234E+05   -1.8460464E+00
   1.4999889E-04   4.9249606E+05   -1.8455550E+00
   1.5069160E-04   4.8832650E+05   -1.8450628E+00
   1.5138751E-04   4.8419335E+05   -1.8445697E+00
   1.5208663E-04   4.8009626E+05   -1.8440757E+00
   1.5278899E-04   4.7603493E+05   -1.8435808E+00
   1.5349458E-04   4.7200904E+05   -1.8430852E+00
   1.5420343E-04   4.6801826E+05   -1.8425886E+00
   1.5491556E-04   4.6406229E+05   -1.8420912E+00
   1.5563098E-04   4.6014081E+05   -1.8415930E+00
   1.5634970E-04   4.5625351E+05   -1.8410939E+00
   1.5707174E-04   4.5240010E+05   -1.8405940E+00
   1.5779711E-04   4.4858026E+05   -1.8400932E+00
   1.5852584E-04   4.4479371E+05   -1.8395917E+00
   1.5925792E-04   4.4104014E+05   -1.8390892E+00
   1.5999339E-04   4.3731925E+05   -1.8385860E+00
   1.6073226E-04   4.3363077E+05   -1.8380819E+00
   1.6147454E-04   4.2997439E+05   -1.8375771E+00
   1.6222024E-04   4.2634984E+05   -1.8370714E+00
   1.6296939E-04   4.2275683E+05   -1.8365649E+00
   1.6372200E-04   4.1919508E+05   -1.8360575E+00
   1.6447809E-04   4.1566430E+05   -1.8355494E+00
   1.6523767E-04   4.1216423E+05   -1.8350405E+00
   1.6600075E-04   4.0869460E+05   -1.8345308E+00
   1.6676736E-04   4.0525512E+05   -1.8340202E+00
   1.6753751E-04   4.0184553E+05   -1.8335089E+00
   1.6831122E-04   3.9846557E+05   -1.8329968E+00
   1.6908849E-04   3.9511498E+05   -1.8324839E+00
   1.6986936E-04   3.9179348E+05   -1.8319703E+00
   1.7065384E-04   3.8850082E+05   -1.8314558E+00
   1.7144193E-04   3.8523675E+05   -1.8309406E+00
   1.7223367E-04   3.8200102E+05   -1.8304246E+00
   1.7302906E-04   3.7879336E+05   -1.8299079E+00
   1.7382813E-04   3.7561353E+05   -1.8293904E+00
   1.7463089E-04   3.7246128E+05   -1.8288721E+00
   1.7543735E-04   3.6933637E+05   -1.8283531E+00
   1.7624754E-04   3.6623856E+05   -1.8278333E+00
   1.7706147E-04   3.6316760E+05   -1.8273128E+00
   1.7787916E-04   3.6012325E+05   -1.8267915E+00
   1.7870062E-04   3.5710528E+05   -1.8262695E+00
   1.7952588E-04   3.5411345E+05   -1.8257468E+00
   1.8035495E-04   3.5114754E+05   -1.8252233E+00
   1.8118785E-04   3.4820731E+05   -1.8246992E+00
   1.8202459E-04   3.4529253E+05   -1.8241742E+00
   1.8286520E-04   3.4240298E+05   -1.8236486E+00
   1.8370969E-04   3.3953843E+05   -1.8231223E+00
   1.8455808E-04   3.3669867E+05   -1.8225952E+00
   1.8541039E-04   3.3388346E+05   -1.8220674E+00
   1.8626663E-04   3.3109261E+05   -1.8215390E+00
   1.8712683E-04   3.2832588E+05   -1.8210098E+00
   1.8799100E-04   3.2558306E+05   -1.8204800E+00
   1.8885917E-04   3.2286395E+05   -1.8199494E+00
   1.8973134E-04   3.2016832E+05   -1.8194182E+00
   1.9060754E-04   3.1749598E+05   -1.8188863E+00
   1.9148778E-04   3.1484672E+05   -1.8183537E+00
   1.9237209E-04   3.1222033E+05   -1.8178204E+00
   1.9326049E-04   3.0961661E+05   -1.8172865E+00
   1.9415299E-04   3.0703536E+05   -1.8167519E+00
   1.9504960E-04   3.0447638E+05   -1.8162167E+00
   1.9595036E-04   3.0193948E+05   -1.8156808E+00
   1.9685528E-04   2.9942445E+05   -1.8151442E+00
   1.9776438E-04   2.9693110E+05   -1.8146070E+00
   1.9867768E-04   2.9445925E+05   -1.8140692E+00
   1.9959519E-04   2.9200870E+05   -1.8135307E+00
   2.0051694E-04   2.8957926E+05   -1.8129916E+00
   2.0144295E-04   2.8717074E+05   -1.8124519E+00
   2.0237324E-04   2.8478297E+05   -1.8119116E+00
   2.0330782E-04   2.8241576E+05   -1.8113706E+00
   2.0424671E-04   2.8006891E+05   -1.8108290E+00
   2.0518995E-04   2.7774227E+05   -1.8102868E+00
   2.0613754E-04   2.7543564E+05   -1.8097440E+00
   2.0708950E-04   2.7314885E+05   -1.8092006E+00
   2.0804586E-04   2.7088173E+05   -1.8086567E+00
   2.0900664E-04   2.6863410E+05   -1.8081121E+00
   2.0997185E-04   2.6640579E+05   -1.8075669E+00
   2.1094152E-04   2.6419662E+05   -1.8070212E+00
   2.1191567E-04   2.6200643E+05   -1.8064749E+00
   2.1289432E-04   2.5983506E+05   -1.8059280E+00
   2.1387749E-04   2.5768232E+05   -1.8053806E+00
   2.1486520E-04   2.5554807E+05   -1.8048326E+00
   2.1585747E-04   2.5343214E+05   -1.8042840E+00
   2.1685432E-04   2.5133436E+05   -1.8037349E+00
   2.1785578E-04   2.4925457E+05   -1.8031853E+00
   2.1886186E-04   2.4719263E+05   -1.8026351E+00
   2.1987259E-04   2.4514836E+05   -1.8020844E+00
   2.2088798E-04   2.4312161E+05   -1.8015331E+00
   2.2190807E-04   2.4111224E+05   -1.8009813E+00
   2.2293286E-04   2.3912008E+05   -1.8004290E+00
   2.2396239E-04   2.3714498E+05   -1.7998762E+00
   2.2499667E-04   2.3518680E+05   -1.7993229E+00
   2.2603573E-04   2.3324538E+05   -1.7987691E+00
   2.2707958E-04   2.3132057E+05   -1.7982148E+00
   2.2812826E-04   2.2941224E+05   -1.7976599E+00
   2.2918178E-04   2.2752023E+05   -1.7971046E+00
   2.3024017E-04   2.2564441E+05   -1.7965489E+00
   2.3130344E-04   2.2378462E+05   -1.7959926E+00
   2.3237162E-04   2.2194073E+05   -1.7954359E+00
   2.3344474E-04   2.2011260E+05   -1.7948787E+00
   2.3452281E-04   2.1830008E+05   -1.7943210E+00
   2.3560586E-04   2.1650305E+05   -1.7937629E+00
   2.3669392E-04   2.1472137E+05   -1.7932043E+00
   2.3778699E-04   2.1295489E+05   -1.7926453E+00
   2.3888512E-04   2.1120349E+05   -1.7920858E+00
   2.3998831E-04   2.0946704E+05   -1.7915260E+00
   2.4109661E-04   2.0774540E+05   -1.7909656E+00
   2.4221001E-04   2.0603844E+05   -1.7904049E+00
   2.4332857E-04   2.0434603E+05   -1.7898437E+00
   2.4445228E-04   2.0266805E+05   -1.7892822E+00
   2.4558119E-04   2.0100437E+05   -1.7887202E+00
   2.4671531E-04   1.9935486E+05   -1.7881578E+00
   2.4785467E-04   1.9771940E+05   -1.7875950E+00
   2.4899928E-04   1.9609787E+05   -1.7870319E+00
   2.5014919E-04   1.9449014E+05   -1.7864683E+00
   2.5130440E-04   1.9289609E+05   -1.7859044E+00
   2.5246495E-04   1.9131560E+05   -1.7853401E+00
   2.5363086E-04   1.8974856E+05   -1.7847754E+00
   2.5480216E-04   1.8819484E+05   -1.7842104E+00
   2.5597886E-04   1.8665434E+05   -1.7836450E+00
   2.5716100E-04   1.8512692E+05   -1.7830792E+00
   2.5834859E-04   1.8361248E+05   -1.7825131E+00
   2.5954168E-04   1.8211091E+05   -1.7819467E+00
   2.6074027E-04   1.8062208E+05   -1.7813799E+00
   2.6194439E-04   1.7914590E+05   -1.7808128E+00
   2.6315408E-04   1.7768224E+05   -1.7802454E+00
   2.6436935E-04   1.7623101E+05   -1.7796777E+00
   2.6559024E-04   1.7479208E+05   -1.7791097E+00
   2.6681676E-04   1.7336536E+05   -1.7785413E+00
   2.6804895E-04   1.7195073E+05   -1.7779727E+00
   2.6928683E-04   1.7054810E+05   -1.7774037E+00
   2.7053042E-04   1.6915735E+05   -1.7768345E+00
   2.7177976E-04   1.6777838E+05   -1.7762650E+00
   2.7303487E-04   1.6641108E+05   -1.7756952E+00
   2.7429577E-04   1.6505537E+05   -1.7751251E+00
   2.7556250E-04   1.6371113E+05   -1.7745548E+00
   2.7683507E-04   1.6237826E+05   -1.7739842E+00
   2.7811353E-04   1.6105667E+05   -1.7734134E+00
   2.7939788E-04   1.5974625E+05   -1.7728423E+00
   2.8068817E-04   1.5844692E+05   -1.7722710E+00
   2.8198442E-04   1.5715856E+05   -1.7716994E+00
   2.8328665E-04   1.5588110E+05   -1.7711276E+00
   2.8459490E-04   1.5461442E+05   -1.7705556E+00
   2.8590919E-04   1.5335844E+05   -1.7699834E+00
   2.8722955E-04   1.5211307E+05   -1.7694110E+00
   2.8855600E-04   1.5087820E+05   -1.7688383E+00
   2.8988859E-04   1.4965376E+05   -1.7682655E+00
   2.9122732E-04   1.4843964E+05   -1.7676924E+00
   2.9257224E-04   1.4723577E+05   -1.7671192E+00
   2.9392337E-04   1.4604204E+05   -1.7665458E+00
   2.9528074E-04   1.4485837E+05   -1.7659722E+00
   2.9664438E-04   1.4368468E+05   -1.7653985E+00
   2.9801431E-04   1.4252087E+05   -1.7648246E+00
   2.9939057E-04   1.4136687E+05   -1.7642505E+00
   3.0077319E-04   1.4022258E+05   -1.7636763E+00
   3.0216219E-04   1.3908792E+05   -1.7631019E+00
   3.0355761E-04   1.3796280E+05   -1.7625274E+00
   3.0495947E-04   1.3684715E+05   -1.7619528E+00
   3.0636780E-04   1.3574088E+05   -1.7613780E+00
   3.0778264E-04   1.3464392E+05   -1.7608031E+00
   3.0920401E-04   1.3355616E+05   -1.7602281E+00
   3.1063195E-04   1.3247755E+05   -1.7596530E+00
   3.1206648E-04   1.3140800E+05   -1.7590778E+00
   3.1350764E-04   1.3034743E+05   -1.7585025E+00
   3.1495545E-04   1.2929576E+05   -1.7579271E+00
   3.1640994E-04   1.2825291E+05   -1.7573516E+00
   3.1787116E-04   1.2721882E+05   -1.7567760E+00
   3.1933912E-04   1.2619339E+05   -1.7562004E+00
   3.2081386E-04   1.2517657E+05   -1.7556247E+00
   3.2229541E-04   1.2416826E+05   -1.7550489E+00
   3.2378381E-04   1.2316841E+05   -1.7544731E+00
   3.2527908E-04   1.2217693E+05   -1.7538972E+00
   3.2678125E-04   1.2119375E+05   -1.7533213E+00
   3.2829036E-04   1.2021881E+05   -1.7527453E+00
   3.2980644E-04   1.1925202E+05   -1.7521694E+00
   3.3132952E-04   1.1829332E+05   -1.7515934E+00
   3.3285963E-04   1.1734264E+05   -1.7510174E+00
   3.3439681E-04   1.1639991E+05   -1.7504413E+00
   3.3594109E-04   1.1546506E+05   -1.7498653E+00
   3.3749250E-04   1.1453803E+05   -1.7492893E+00
   3.3905108E-04   1.1361873E+05   -1.7487132E+00
   3.4061685E-04   1.1270712E+05   -1.7481372E+00
   3.4218986E-04   1.1180311E+05   -1.7475612E+00
   3.4377013E-04   1.1090665E+05   -1.7469852E+00
   3.4535769E-04   1.1001767E+05   -1.7464093E+00
   3.4695259E-04   1.0913611E+05   -1.7458334E+00
   3.4855485E-04   1.0826190E+05   -1.7452576E+00
   3.5016452E-04   1.0739497E+05   -1.7446817E+00
   3.5178161E-04   1.0653527E+05   -1.7441060E+00
   3.5340618E-04   1.0568273E+05   -1.7435303E+00
   3.5503824E-04   1.0483729E+05   -1.7429547E+00
   3.5667785E-04   1.0399890E+05   -1.7423791E+00
   3.5832502E-04   1.0316747E+05   -1.7418037E+00
   3.5997981E-04   1.0234297E+05   -1.7412283E+00
   3.6164223E-04   1.0152533E+05   -1.7406530E+00
   3.6331233E-04   1.0071448E+05   -1.7400778E+00
   3.6499015E-04   9.9910380E+04   -1.7395027E+00
   3.6667571E-04   9.9112959E+04   -1.7389277E+00
   3.6836906E-04   9.8322162E+04   -1.7383529E+00
   3.7007022E-04   9.7537934E+04   -1.7377781E+00
   3.7177925E-04   9.6760216E+04   -1.7372035E+00
   3.7349616E-04   9.5988954E+04   -1.7366291E+00
   3.7522101E-04   9.5224092E+04   -1.7360547E+00
   3.7695382E-04   9.4465574E+04   -1.7354805E+00
   3.7869463E-04   9.3713346E+04   -1.7349065E+00
   3.8044348E-04   9.2967354E+04   -1.7343326E+00
   3.8220041E-04   9.2227544E+04   -1.7337589E+00
   3.8396545E-04   9.1493863E+04   -1.7331854E+00
   3.8573864E-04   9.0766259E+04   -1.7326120E+00
   3.8752002E-04   9.0044678E+04   -1.7320388E+00
   3.8930963E-04   8.9329070E+04   -1.7314658E+00
   3.9110750E-04   8.8619383E+04   -1.7308930E+00
   3.9291368E-04   8.7915566E+04   -1.7303204E+00
   3.9472820E-04   8.7217569E+04   -1.7297481E+00
   3.9655109E-04   8.6525342E+04   -1.7291759E+00
   3.9838241E-04   8.5838835E+04   -1.7286039E+00
   4.0022218E-04   8.5157999E+04   -1.7280322E+00
   4.0207045E-04   8.4482786E+04   -1.7274607E+00
   4.0392725E-04   8.3813147E+04   -1.7268894E+00
   4.0579263E-04   8.3149035E+04   -1.7263184E+00
   4.0766662E-04   8.2490402E+04   -1.7257476E+00
   4.0954927E-04   8.1837202E+04   -1.7251771E+00
   4.1144061E-04   8.1189387E+04   -1.7246069E+00
   4.1334068E-04   8.0546912E+04   -1.7240369E+00
   4.1524953E-04   7.9909730E+04   -1.7234671E+00
   4.1716720E-04   7.9277797E+04   -1.7228977E+00
   4.1909372E-04   7.8651068E+04   -1.7223285E+00
   4.2102914E-04   7.8029498E+04   -1.7217597E+00
   4.2297350E-04   7.7413043E+04   -1.7211911E+00
   4.2492683E-04   7.6801660E+04   -1.7206228E+00
   4.2688919E-04   7.6195304E+04   -1.7200548E+00
   4.2886061E-04   7.5593934E+04   -1.7194872E+00
   4.3084113E-04   7.4997505E+04   -1.7189198E+00
   4.3283080E-04   7.4405977E+04   -1.7183528E+00
   4.3482966E-04   7.3819308E+04   -1.7177861E+00
   4.3683775E-04   7.3237455E+04   -1.7172198E+00
   4.3885511E-04   7.2660378E+04   -1.7166538E+00
   4.4088179E-04   7.2088036E+04   -1.7160881E+00
   4.4291783E-04   7.1520389E+04   -1.7155228E+00
   4.4496327E-04   7.0957396E+04   -1.7149579E+00
   4.4701816E-04   7.0399018E+04   -1.7143933E+00
   4.4908253E-04   6.9845216E+04   -1.7138290E+00
   4.5115644E-04   6.9295950E+04   -1.7132652E+00
   4.5323993E-04   6.8751183E+04   -1.7127017E+00
   4.5533304E-04   6.8210875E+04   -1.7121387E+00
   4.5743582E-04   6.7674989E+04   -1.7115760E+00
   4.5954830E-04   6.7143487E+04   -1.7110137E+00
   4.6167054E-04   6.6616332E+04   -1.7104518E+00
   4.6380259E-04   6.6093487E+04   -1.7098903E+00
   4.6594448E-04   6.5574915E+04   -1.7093293E+00
   4.6809626E-04   6.5060580E+04   -1.7087686E+00
   4.7025797E-04   6.4550445E+04   -1.7082084E+00
   4.7242967E-04   6.4044476E+04   -1.7076486E+00
   4.7461140E-04   6.3542636E+04   -1.7070893E+00
   4.7680321E-04   6.3044891E+04   -1.7065304E+00
   4.7900514E-04   6.2551206E+04   -1.7059719E+00
   4.8121723E-04   6.2061547E+04   -1.7054139E+00
   4.8343954E-04   6.1575880E+04   -1.7048563E+00
   4.8567212E-04   6.1094169E+04   -1.7042992E+00
   4.8791500E-04   6.0616383E+04   -1.7037426E+00
   4.9016825E-04   6.0142487E+04   -1.7031864E+00
   4.9243189E-04   5.9672449E+04   -1.7026308E+00
   4.9470600E-04   5.9206236E+04   -1.7020756E+00
   4.9699060E-04   5.8743816E+04   -1.7015209E+00
   4.9928575E-04   5.8285156E+04   -1.7009667E+00
   5.0159151E-04   5.7830225E+04   -1.7004130E+00
   5.0390791E-04   5.7378991E+04   -1.6998598E+00
   5.0623501E-04   5.6931423E+04   -1.6993071E+00
   5.0857286E-04   5.6487490E+04   -1.6987549E+00
   5.1092150E-04   5.6047162E+04   -1.6982032E+00
   5.1328099E-04   5.5610406E+04   -1.6976521E+00
   5.1565137E-04   5.5177195E+04   -1.6971015E+00
   5.1803270E-04   5.4747497E+04   -1.6965514E+00
   5.2042503E-04   5.4321283E+04   -1.6960019E+00
   5.2282841E-04   5.3898523E+04   -1.6954529E+00
   5.2524289E-04   5.3479189E+04   -1.6949045E+00
   5.2766851E-04   5.3063251E+04   -1.6943566E+00
   5.3010534E-04   5.2650681E+04   -1.6938093E+00
   5.3255342E-04   5.2241451E+04   -1.6932626E+00
   5.3501281E-04   5.1835532E+04   -1.6927164E+00
   5.3748356E-04   5.1432896E+04   -1.6921708E+00
   5.3996571E-04   5.1033516E+04   -1.6916257E+00
   5.4245933E-04   5.0637364E+04   -1.6910813E+00
   5.4496446E-04   5.0244413E+04   -1.6905375E+00
   5.4748117E-04   4.9854637E+04   -1.6899942E+00
   5.5000949E-04   4.9468008E+04   -1.6894515E+00
   5.5254949E-04   4.9084500E+04   -1.6889095E+00
   5.5510123E-04   4.8704087E+04   -1.6883681E+00
   5.5766474E-04   4.8326742E+04   -1.6878272E+00
   5.6024010E-04   4.7952441E+04   -1.6872870E+00
   5.6282734E-04   4.7581157E+04   -1.6867474E+00
   5.6542654E-04   4.7212864E+04   -1.6862085E+00
   5.6803774E-04   4.6847539E+04   -1.6856701E+00
   5.7066099E-04   4.6485156E+04   -1.6851324E+00
   5.7329637E-04   4.6125691E+04   -1.6845954E+00
   5.7594391E-04   4.5769118E+04   -1.6840590E+00
   5.7860368E-04   4.5415414E+04   -1.6835232E+00
   5.8127573E-04   4.5064554E+04   -1.6829881E+00
   5.8396012E-04   4.4716516E+04   -1.6824537E+00
   5.8665691E-04   4.4371274E+04   -1.6819199E+00
   5.8936616E-04   4.4028806E+04   -1.6813868E+00
   5.9208791E-04   4.3689089E+04   -1.6808543E+00
   5.9482223E-04   4.3352099E+04   -1.6803226E+00
   5.9756919E-04   4.3017814E+04   -1.6797915E+00
   6.0032882E-04   4.2686211E+04   -1.6792611E+00
   6.0310120E-04   4.2357267E+04   -1.6787314E+00
   6.0588639E-04   4.2030961E+04   -1.6782024E+00
   6.0868443E-04   4.1707270E+04   -1.6776741E+00
   6.1149540E-04   4.1386172E+04   -1.6771464E+00
   6.1431935E-04   4.1067647E+04   -1.6766195E+00
   6.1715634E-04   4.0751672E+04   -1.6760933E+00
   6.2000644E-04   4.0438226E+04   -1.6755679E+00
   6.2286969E-04   4.0127288E+04   -1.6750431E+00
