#        a       HoverH0(a)       dlogHdloga_of_a(a)
   1.0000000E-04   1.0770951E+06   -1.8851310E+00
   1.0046181E-04   1.0677813E+06   -1.8847228E+00
   1.0092575E-04   1.0585501E+06   -1.8843136E+00
   1.0139184E-04   1.0494006E+06   -1.8839034E+00
   1.0186008E-04   1.0403322E+06   -1.8834921E+00
   1.0233048E-04   1.0313441E+06   -1.8830799E+00
   1.0280305E-04   1.0224355E+06   -1.8826666E+00
   1.0327781E-04   1.0136059E+06   -1.8822524E+00
   1.0375475E-04   1.0048545E+06   -1.8818371E+00
   1.0423390E-04   9.9618047E+05   -1.8814208E+00
   1.0471527E-04   9.8758325E+05   -1.8810035E+00
   1.0519885E-04   9.7906211E+05   -1.8805852E+00
   1.0568467E-04   9.7061637E+05   -1.8801659E+00
   1.0617274E-04   9.6224535E+05   -1.8797456E+00
   1.0666305E-04   9.5394837E+05   -1.8793242E+00
   1.0715563E-04   9.4572477E+05   -1.8789019E+00
   1.0765049E-04   9.3757389E+05   -1.8784785E+00
   1.0814763E-04   9.2949507E+05   -1.8780542E+00
   1.0864707E-04   9.2148767E+05   -1.8776289E+00
   1.0914881E-04   9.1355105E+05   -1.8772025E+00
   1.0965287E-04   9.0568456E+05   -1.8767752E+00
   1.1015926E-04   8.9788758E+05   -1.8763468E+00
   1.1066799E-04   8.9015949E+05   -1.8759175E+00
   1.1117906E-04   8.8249965E+05   -1.8754871E+00
   1.1169250E-04   8.7490747E+05   -1.8750558E+00
   1.1220831E-04   8.6738232E+05   -1.8746234E+00
   1.1272650E-04   8.5992362E+05   -1.8741901E+00
   1.1324708E-04   8.5253076E+05   -1.8737558E+00
   1.1377007E-04   8.4520315E+05   -1.8733205E+00
   1.1429547E-04   8.3794020E+05   -1.8728842E+00
   1.1482330E-04   8.3074134E+05   -1.8724469E+00
   1.1535356E-04   8.2360599E+05   -1.8720086E+00
   1.1588628E-04   8.1653357E+05   -1.8715693E+00
   1.1642145E-04   8.0952353E+05   -1.8711291E+00
   1.1695910E-04   8.0257529E+05   -1.8706878E+00
   1.1749923E-04   7.9568831E+05   -1.8702456E+00
   1.1804185E-04   7.8886204E+05   -1.8698024E+00
   1.1858698E-04   7.8209594E+05   -1.8693582E+00
   1.1913463E-04   7.7538945E+05   -1.8689130E+00
   1.1968481E-04   7.6874205E+05   -1.8684669E+00
   1.2023752E-04   7.6215321E+05   -1.8680198E+00
   1.2079279E-04   7.5562239E+05   -1.8675717E+00
   1.2135063E-04   7.4914909E+05   -1.8671226E+00
   1.2191104E-04   7.4273279E+05   -1.8666726E+00
   1.2247403E-04   7.3637296E+05   -1.8662216E+00
   1.2303963E-04   7.3006912E+05   -1.8657696E+00
   1.2360784E-04   7.2382074E+05   -1.8653167E+00
   1.2417868E-04   7.1762734E+05   -1.8648628E+00
   1.2475215E-04   7.1148843E+05   -1.8644080E+00
   1.2532826E-04   7.0540351E+05   -1.8639521E+00
   1.2590704E-04   6.9937210E+05   -1.8634954E+00
   1.2648850E-04   6.9339372E+05   -1.8630376E+00
   1.2707263E-04   6.8746790E+05   -1.8625789E+00
   1.2765947E-04   6.8159416E+05   -1.8621193E+00
   1.2824901E-04   6.7577205E+05   -1.8616587E+00
   1.2884128E-04   6.7000108E+05   -1.8611972E+00
   1.2943628E-04   6.6428082E+05   -1.8607347E+00
   1.3003403E-04   6.5861079E+05   -1.8602712E+00
   1.3063454E-04   6.5299056E+05   -1.8598069E+00
   1.3123783E-04   6.4741968E+05   -1.8593416E+00
   1.3184390E-04   6.4189770E+05   -1.8588753E+00
   1.3245277E-04   6.3642419E+05   -1.8584081E+00
   1.3306445E-04   6.3099871E+05   -1.8579400E+00
   1.3367895E-04   6.2562083E+05   -1.8574709E+00
   1.3429630E-04   6.2029013E+05   -1.8570009E+00
   1.3491649E-04   6.1500618E+05   -1.8565300E+00
   1.3553955E-04   6.0976857E+05   -1.8560582E+00
   1.3616548E-04   6.0457688E+05   -1.8555854E+00
   1.3679431E-04   5.9943070E+05   -1.8551117E+00
   1.3742604E-04   5.9432962E+05   -1.8546371E+00
   1.3806069E-04   5.8927324E+05   -1.8541616E+00
   1.3869827E-04   5.8426117E+05   -1.8536852E+00
   1.3933879E-04   5.7929299E+05   -1.8532078E+00
   1.3998227E-04   5.7436833E+05   -1.8527296E+00
   1.4062872E-04   5.6948678E+05   -1.8522504E+00
   1.4127816E-04   5.6464797E+05   -1.8517703E+00
   1.4193060E-04   5.5985152E+05   -1.8512894E+00
   1.4258605E-04   5.5509704E+05   -1.8508075E+00
   1.4324453E-04   5.5038416E+05   -1.8503247E+00
   1.4390605E-04   5.4571251E+05   -1.8498411E+00
   1.4457062E-04   5.4108172E+05   -1.8493565E+00
   1.4523826E-04   5.3649143E+05   -1.8488711E+00
   1.4590899E-04   5.3194126E+05   -1.8483848E+00
   1.4658281E-04   5.2743088E+05   -1.8478975E+00
   1.4725974E-04   5.2295991E+05   -1.8474095E+00
   1.4793981E-04   5.1852800E+05   -1.8469205E+00
   1.4862301E-04   5.1413482E+05   -1.8464307E+00
   1.4930936E-04   5.0978001E+05   -1.8459400E+00
   1.4999889E-04   5.0546323E+05   -1.8454484E+00
   1.5069160E-04   5.0118413E+05   -1.8449559E+00
   1.5138751E-04   4.9694239E+05   -1.8444626E+00
   1.5208663E-04   4.9273768E+05   -1.8439685E+00
   1.5278899E-04   4.8856965E+05   -1.8434734E+00
   1.5349458E-04   4.8443799E+05   -1.8429776E+00
   1.5420343E-04   4.8034236E+05   -1.8424808E+00
   1.5491556E-04   4.7628245E+05   -1.8419833E+00
   1.5563098E-04   4.7225794E+05   -1.8414848E+00
   1.5634970E-04   4.6826852E+05   -1.8409856E+00
   1.5707174E-04   4.6431386E+05   -1.8404855E+00
   1.5779711E-04   4.6039366E+05   -1.8399846E+00
   1.5852584E-04   4.5650761E+05   -1.8394828E+00
   1.5925792E-04   4.5265542E+05   -1.8389802E+00
   1.5999339E-04   4.4883677E+05   -1.8384768E+00
   1.6073226E-04   4.4505136E+05   -1.8379725E+00
   1.6147454E-04   4.4129891E+05   -1.8374675E+00
   1.6222024E-04   4.3757912E+05   -1.8369616E+00
   1.6296939E-04   4.3389169E+05   -1.8364549E+00
   1.6372200E-04   4.3023635E+05   -1.8359474E+00
   1.6447809E-04   4.2661279E+05   -1.8354391E+00
   1.6523767E-04   4.2302075E+05   -1.8349300E+00
   1.6600075E-04   4.1945993E+05   -1.8344201E+00
   1.6676736E-04   4.1593007E+05   -1.8339094E+00
   1.6753751E-04   4.1243088E+05   -1.8333980E+00
   1.6831122E-04   4.0896210E+05   -1.8328857E+00
   1.6908849E-04   4.0552344E+05   -1.8323726E+00
   1.6986936E-04   4.0211466E+05   -1.8318588E+00
   1.7065384E-04   3.9873547E+05   -1.8313442E+00
   1.7144193E-04   3.9538561E+05   -1.8308288E+00
   1.7223367E-04   3.9206483E+05   -1.8303127E+00
   1.7302906E-04   3.8877287E+05   -1.8297958E+00
   1.7382813E-04   3.8550946E+05   -1.8292781E+00
   1.7463089E-04   3.8227437E+05   -1.8287597E+00
   1.7543735E-04   3.7906732E+05   -1.8282405E+00
   1.7624754E-04   3.7588808E+05   -1.8277205E+00
   1.7706147E-04   3.7273640E+05   -1.8271999E+00
   1.7787916E-04   3.6961203E+05   -1.8266784E+00
   1.7870062E-04   3.6651474E+05   -1.8261563E+00
   1.7952588E-04   3.6344427E+05   -1.8256334E+00
   1.8035495E-04   3.6040039E+05   -1.8251098E+00
   1.8118785E-04   3.5738287E+05   -1.8245854E+00
   1.8202459E-04   3.5439147E+05   -1.8240603E+00
   1.8286520E-04   3.5142596E+05   -1.8235345E+00
   1.8370969E-04   3.4848611E+05   -1.8230080E+00
   1.8455808E-04   3.4557169E+05   -1.8224808E+00
   1.8541039E-04   3.4268248E+05   -1.8219529E+00
   1.8626663E-04   3.3981826E+05   -1.8214243E+00
   1.8712683E-04   3.3697879E+05   -1.8208950E+00
   1.8799100E-04   3.3416386E+05   -1.8203650E+00
   1.8885917E-04   3.3137326E+05   -1.8198343E+00
   1.8973134E-04   3.2860677E+05   -1.8193029E+00
   1.9060754E-04   3.2586417E+05   -1.8187709E+00
   1.9148778E-04   3.2314525E+05   -1.8182381E+00
   1.9237209E-04   3.2044981E+05   -1.8177047E+00
   1.9326049E-04   3.1777763E+05   -1.8171707E+00
   1.9415299E-04   3.1512851E+05   -1.8166359E+00
   1.9504960E-04   3.1250225E+05   -1.8161005E+00
   1.9595036E-04   3.0989864E+05   -1.8155645E+00
   1.9685528E-04   3.0731748E+05   -1.8150278E+00
   1.9776438E-04   3.0475857E+05   -1.8144905E+00
   1.9867768E-04   3.0222172E+05   -1.8139525E+00
   1.9959519E-04   2.9970672E+05   -1.8134139E+00
   2.0051694E-04   2.9721340E+05   -1.8128747E+00
   2.0144295E-04   2.9474155E+05   -1.8123348E+00
   2.0237324E-04   2.9229098E+05   -1.8117943E+00
   2.0330782E-04   2.8986152E+05   -1.8112532E+00
   2.0424671E-04   2.8745296E+05   -1.8107115E+00
   2.0518995E-04   2.8506512E+05   -1.8101692E+00
   2.0613754E-04   2.8269783E+05   -1.8096263E+00
   2.0708950E-04   2.8035090E+05   -1.8090828E+00
   2.0804586E-04   2.7802416E+05   -1.8085386E+00
   2.0900664E-04   2.7571741E+05   -1.8079939E+00
   2.0997185E-04   2.7343049E+05   -1.8074487E+00
   2.1094152E-04   2.7116322E+05   -1.8069028E+00
   2.1191567E-04   2.6891542E+05   -1.8063564E+00
   2.1289432E-04   2.6668694E+05   -1.8058094E+00
   2.1387749E-04   2.6447758E+05   -1.8052618E+00
   2.1486520E-04   2.6228719E+05   -1.8047137E+00
   2.1585747E-04   2.6011560E+05   -1.8041650E+00
   2.1685432E-04   2.5796264E+05   -1.8036158E+00
   2.1785578E-04   2.5582815E+05   -1.8030660E+00
   2.1886186E-04   2.5371196E+05   -1.8025157E+00
   2.1987259E-04   2.5161391E+05   -1.8019649E+00
   2.2088798E-04   2.4953385E+05   -1.8014135E+00
   2.2190807E-04   2.4747162E+05   -1.8008616E+00
   2.2293286E-04   2.4542705E+05   -1.8003092E+00
   2.2396239E-04   2.4339999E+05   -1.7997563E+00
   2.2499667E-04   2.4139029E+05   -1.7992029E+00
   2.2603573E-04   2.3939780E+05   -1.7986489E+00
   2.2707958E-04   2.3742235E+05   -1.7980945E+00
   2.2812826E-04   2.3546381E+05   -1.7975396E+00
   2.2918178E-04   2.3352203E+05   -1.7969842E+00
   2.3024017E-04   2.3159685E+05   -1.7964283E+00
   2.3130344E-04   2.2968812E+05   -1.7958719E+00
   2.3237162E-04   2.2779572E+05   -1.7953151E+00
   2.3344474E-04   2.2591949E+05   -1.7947578E+00
   2.3452281E-04   2.2405928E+05   -1.7942000E+00
   2.3560586E-04   2.2221496E+05   -1.7936418E+00
   2.3669392E-04   2.2038640E+05   -1.7930832E+00
   2.3778699E-04   2.1857344E+05   -1.7925240E+00
   2.3888512E-04   2.1677595E+05   -1.7919645E+00
   2.3998831E-04   2.1499380E+05   -1.7914045E+00
   2.4109661E-04   2.1322685E+05   -1.7908441E+00
   2.4221001E-04   2.1147497E+05   -1.7902833E+00
   2.4332857E-04   2.0973803E+05   -1.7897220E+00
   2.4445228E-04   2.0801589E+05   -1.7891604E+00
   2.4558119E-04   2.0630842E+05   -1.7885983E+00
   2.4671531E-04   2.0461550E+05   -1.7880358E+00
   2.4785467E-04   2.0293700E+05   -1.7874730E+00
   2.4899928E-04   2.0127279E+05   -1.7869097E+00
   2.5014919E-04   1.9962275E+05   -1.7863461E+00
   2.5130440E-04   1.9798674E+05   -1.7857821E+00
   2.5246495E-04   1.9636466E+05   -1.7852177E+00
   2.5363086E-04   1.9475637E+05   -1.7846529E+00
   2.5480216E-04   1.9316176E+05   -1.7840878E+00
   2.5597886E-04   1.9158070E+05   -1.7835223E+00
   2.5716100E-04   1.9001307E+05   -1.7829565E+00
   2.5834859E-04   1.8845877E+05   -1.7823904E+00
   2.5954168E-04   1.8691767E+05   -1.7818239E+00
   2.6074027E-04   1.8538965E+05   -1.7812570E+00
   2.6194439E-04   1.8387461E+05   -1.7806899E+00
   2.6315408E-04   1.8237242E+05   -1.7801224E+00
   2.6436935E-04   1.8088298E+05   -1.7795546E+00
   2.6559024E-04   1.7940618E+05   -1.7789865E+00
   2.6681676E-04   1.7794189E+05   -1.7784180E+00
   2.6804895E-04   1.7649002E+05   -1.7778493E+00
   2.6928683E-04   1.7505046E+05   -1.7772803E+00
   2.7053042E-04   1.7362309E+05   -1.7767110E+00
   2.7177976E-04   1.7220781E+05   -1.7761415E+00
   2.7303487E-04   1.7080452E+05   -1.7755716E+00
   2.7429577E-04   1.6941311E+05   -1.7750015E+00
   2.7556250E-04   1.6803347E+05   -1.7744311E+00
   2.7683507E-04   1.6666551E+05   -1.7738605E+00
   2.7811353E-04   1.6530912E+05   -1.7732896E+00
   2.7939788E-04   1.6396420E+05   -1.7727185E+00
   2.8068817E-04   1.6263065E+05   -1.7721471E+00
   2.8198442E-04   1.6130837E+05   -1.7715755E+00
   2.8328665E-04   1.5999726E+05   -1.7710037E+00
   2.8459490E-04   1.5869723E+05   -1.7704316E+00
   2.8590919E-04   1.5740817E+05   -1.7698593E+00
   2.8722955E-04   1.5613000E+05   -1.7692868E+00
   2.8855600E-04   1.5486262E+05   -1.7687142E+00
   2.8988859E-04   1.5360593E+05   -1.7681413E+00
   2.9122732E-04   1.5235983E+05   -1.7675682E+00
   2.9257224E-04   1.5112425E+05   -1.7669949E+00
   2.9392337E-04   1.4989908E+05   -1.7664215E+00
   2.9528074E-04   1.4868424E+05   -1.7658479E+00
   2.9664438E-04   1.4747963E+05   -1.7652741E+00
   2.9801431E-04   1.4628517E+05   -1.7647001E+00
   2.9939057E-04   1.4510077E+05   -1.7641260E+00
   3.0077319E-04   1.4392634E+05   -1.7635518E+00
   3.0216219E-04   1.4276179E+05   -1.7629774E+00
   3.0355761E-04   1.4160704E+05   -1.7624028E+00
   3.0495947E-04   1.4046200E+05   -1.7618282E+00
   3.0636780E-04   1.3932659E+05   -1.7612534E+00
   3.0778264E-04   1.3820072E+05   -1.7606785E+00
   3.0920401E-04   1.3708431E+05   -1.7601034E+00
   3.1063195E-04   1.3597729E+05   -1.7595283E+00
   3.1206648E-04   1.3487956E+05   -1.7589531E+00
   3.1350764E-04   1.3379104E+05   -1.7583777E+00
   3.1495545E-04   1.3271167E+05   -1.7578023E+00
   3.1640994E-04   1.3164135E+05   -1.7572268E+00
   3.1787116E-04   1.3058000E+05   -1.7566512E+00
   3.1933912E-04   1.2952756E+05   -1.7560756E+00
   3.2081386E-04   1.2848395E+05   -1.7554998E+00
   3.2229541E-04   1.2744907E+05   -1.7549241E+00
   3.2378381E-04   1.2642287E+05   -1.7543482E+00
   3.2527908E-04   1.2540527E+05   -1.7537724E+00
   3.2678125E-04   1.2439618E+05   -1.7531964E+00
   3.2829036E-04   1.2339555E+05   -1.7526205E+00
   3.2980644E-04   1.2240328E+05   -1.7520445E+00
   3.3132952E-04   1.2141932E+05   -1.7514685E+00
   3.3285963E-04   1.2044359E+05   -1.7508925E+00
   3.3439681E-04   1.1947601E+05   -1.7503164E+00
   3.3594109E-04   1.1851653E+05   -1.7497404E+00
   3.3749250E-04   1.1756506E+05   -1.7491644E+00
   3.3905108E-04   1.1662154E+05   -1.7485884E+00
   3.4061685E-04   1.1568590E+05   -1.7480123E+00
   3.4218986E-04   1.1475807E+05   -1.7474364E+00
   3.4377013E-04   1.1383798E+05   -1.7468604E+00
   3.4535769E-04   1.1292557E+05   -1.7462845E+00
   3.4695259E-04   1.1202077E+05   -1.7457086E+00
   3.4855485E-04   1.1112351E+05   -1.7451327E+00
   3.5016452E-04   1.1023373E+05   -1.7445569E+00
   3.5178161E-04   1.0935137E+05   -1.7439812E+00
   3.5340618E-04   1.0847636E+05   -1.7434055E+00
   3.5503824E-04   1.0760863E+05   -1.7428299E+00
   3.5667785E-04   1.0674813E+05   -1.7422544E+00
   3.5832502E-04   1.0589480E+05   -1.7416789E+00
   3.5997981E-04   1.0504856E+05   -1.7411036E+00
   3.6164223E-04   1.0420936E+05   -1.7405283E+00
   3.6331233E-04   1.0337714E+05   -1.7399531E+00
   3.6499015E-04   1.0255183E+05   -1.7393781E+00
   3.6667571E-04   1.0173339E+05   -1.7388031E+00
   3.6836906E-04   1.0092174E+05   -1.7382283E+00
   3.7007022E-04   1.0011684E+05   -1.7376536E+00
   3.7177925E-04   9.9318613E+04   -1.7370790E+00
   3.7349616E-04   9.8527014E+04   -1.7365045E+00
   3.7522101E-04   9.7741984E+04   -1.7359302E+00
   3.7695382E-04   9.6963465E+04   -1.7353561E+00
   3.7869463E-04   9.6191402E+04   -1.7347821E+00
   3.8044348E-04   9.5425738E+04   -1.7342082E+00
   3.8220041E-04   9.4666420E+04   -1.7336346E+00
   3.8396545E-04   9.3913391E+04   -1.7330611E+00
   3.8573864E-04   9.3166599E+04   -1.7324877E+00
   3.8752002E-04   9.2425989E+04   -1.7319146E+00
   3.8930963E-04   9.1691508E+04   -1.7313417E+00
   3.9110750E-04   9.0963104E+04   -1.7307689E+00
   3.9291368E-04   9.0240725E+04   -1.7301964E+00
   3.9472820E-04   8.9524319E+04   -1.7296240E+00
   3.9655109E-04   8.8813834E+04   -1.7290519E+00
   3.9838241E-04   8.8109220E+04   -1.7284800E+00
   4.0022218E-04   8.7410426E+04   -1.7279083E+00
   4.0207045E-04   8.6717404E+04   -1.7273368E+00
   4.0392725E-04   8.6030102E+04   -1.7267656E+00
   4.0579263E-04   8.5348472E+04   -1.7261947E+00
   4.0766662E-04   8.4672465E+04   -1.7256239E+00
   4.0954927E-04   8.4002034E+04   -1.7250535E+00
   4.1144061E-04   8.3337130E+04   -1.7244833E+00
   4.1334068E-04   8.2677706E+04   -1.7239133E+00
   4.1524953E-04   8.2023715E+04   -1.7233437E+00
   4.1716720E-04   8.1375111E+04   -1.7227743E+00
   4.1909372E-04   8.0731847E+04   -1.7222052E+00
   4.2102914E-04   8.0093879E+04   -1.7216364E+00
   4.2297350E-04   7.9461160E+04   -1.7210679E+00
   4.2492683E-04   7.8833645E+04   -1.7204997E+00
   4.2688919E-04   7.8211292E+04   -1.7199318E+00
   4.2886061E-04   7.7594054E+04   -1.7193642E+00
   4.3084113E-04   7.6981889E+04   -1.7187969E+00
   4.3283080E-04   7.6374753E+04   -1.7182300E+00
   4.3482966E-04   7.5772603E+04   -1.7176633E+00
   4.3683775E-04   7.5175396E+04   -1.7170971E+00
   4.3885511E-04   7.4583091E+04   -1.7165311E+00
   4.4088179E-04   7.3995646E+04   -1.7159655E+00
   4.4291783E-04   7.3413019E+04   -1.7154003E+00
   4.4496327E-04   7.2835169E+04   -1.7148354E+00
   4.4701816E-04   7.2262055E+04   -1.7142709E+00
   4.4908253E-04   7.1693638E+04   -1.7137068E+00
   4.5115644E-04   7.1129876E+04   -1.7131430E+00
   4.5323993E-04   7.0570731E+04   -1.7125797E+00
   4.5533304E-04   7.0016163E+04   -1.7120167E+00
   4.5743582E-04   6.9466133E+04   -1.7114541E+00
   4.5954830E-04   6.8920603E+04   -1.7108919E+00
   4.6167054E-04   6.8379534E+04   -1.7103301E+00
   4.6380259E-04   6.7842888E+04   -1.7097687E+00
   4.6594448E-04   6.7310627E+04   -1.7092077E+00
   4.6809626E-04   6.6782715E+04   -1.7086472E+00
   4.7025797E-04   6.6259115E+04   -1.7080870E+00
   4.7242967E-04   6.5739789E+04   -1.7075273E+00
   4.7461140E-04   6.5224702E+04   -1.7069681E+00
   4.7680321E-04   6.4713817E+04   -1.7064093E+00
   4.7900514E-04   6.4207099E+04   -1.7058509E+00
   4.8121723E-04   6.3704513E+04   -1.7052930E+00
   4.8343954E-04   6.3206023E+04   -1.7047355E+00
   4.8567212E-04   6.2711595E+04   -1.7041785E+00
   4.8791500E-04   6.2221194E+04   -1.7036220E+00
   4.9016825E-04   6.1734787E+04   -1.7030660E+00
   4.9243189E-04   6.1252338E+04   -1.7025104E+00
   4.9470600E-04   6.0773816E+04   -1.7019553E+00
   4.9699060E-04   6.0299185E+04   -1.7014007E+00
   4.9928575E-04   5.9828415E+04   -1.7008466E+00
   5.0159151E-04   5.9361471E+04   -1.7002930E+00
   5.0390791E-04   5.8898322E+04   -1.6997399E+00
   5.0623501E-04   5.8438935E+04   -1.6991873E+00
   5.0857286E-04   5.7983279E+04   -1.6986353E+00
   5.1092150E-04   5.7531322E+04   -1.6980837E+00
   5.1328099E-04   5.7083033E+04   -1.6975327E+00
   5.1565137E-04   5.6638380E+04   -1.6969822E+00
   5.1803270E-04   5.6197334E+04   -1.6964323E+00
   5.2042503E-04   5.5759863E+04   -1.6958829E+00
   5.2282841E-04   5.5325938E+04   -1.6953340E+00
   5.2524289E-04   5.4895529E+04   -1.6947857E+00
   5.2766851E-04   5.4468605E+04   -1.6942379E+00
   5.3010534E-04   5.4045138E+04   -1.6936908E+00
   5.3255342E-04   5.3625098E+04   -1.6931441E+00
   5.3501281E-04   5.3208457E+04   -1.6925981E+00
   5.3748356E-04   5.2795186E+04   -1.6920526E+00
   5.3996571E-04   5.2385256E+04   -1.6915077E+00
   5.4245933E-04   5.1978639E+04   -1.6909634E+00
   5.4496446E-04   5.1575308E+04   -1.6904197E+00
   5.4748117E-04   5.1175235E+04   -1.6898765E+00
   5.5000949E-04   5.0778392E+04   -1.6893340E+00
   5.5254949E-04   5.0384752E+04   -1.6887921E+00
   5.5510123E-04   4.9994289E+04   -1.6882508E+00
   5.5766474E-04   4.9606975E+04   -1.6877101E+00
   5.6024010E-04   4.9222785E+04   -1.6871700E+00
   5.6282734E-04   4.8841691E+04   -1.6866306E+00
   5.6542654E-04   4.8463668E+04   -1.6860917E+00
   5.6803774E-04   4.8088690E+04   -1.6855535E+00
   5.7066099E-04   4.7716732E+04   -1.6850160E+00
   5.7329637E-04   4.7347768E+04   -1.6844791E+00
   5.7594391E-04   4.6981773E+04   -1.6839428E+00
   5.7860368E-04   4.6618723E+04   -1.6834072E+00
   5.8127573E-04   4.6258592E+04   -1.6828722E+00
   5.8396012E-04   4.5901356E+04   -1.6823379E+00
   5.8665691E-04   4.5546991E+04   -1.6818043E+00
   5.8936616E-04   4.5195473E+04   -1.6812713E+00
   5.9208791E-04   4.4846777E+04   -1.6807390E+00
   5.9482223E-04   4.4500881E+04   -1.6802074E+00
   5.9756919E-04   4.4157761E+04   -1.6796765E+00
   6.0032882E-04   4.3817394E+04   -1.6791462E+00
   6.0310120E-04   4.3479756E+04   -1.6786167E+00
   6.0588639E-04   4.3144826E+04   -1.6780878E+00
   6.0868443E-04   4.2812579E+04   -1.6775597E+00
   6.1149540E-04   4.2482995E+04   -1.6770322E+00
   6.1431935E-04   4.2156050E+04   -1.6765054E+00
   6.1715634E-04   4.1831722E+04   -1.6759794E+00
   6.2000644E-04   4.1509991E+04   -1.6754541E+00
   6.2286969E-04   4.1190833E+04   -1.6749295E+00
