#        a       HoverH0(a)       dlogHdloga_of_a(a)
   1.0000000E-04   1.2035273E+06   -1.8828868E+00
   1.0046181E-04   1.1931326E+06   -1.8824731E+00
   1.0092575E-04   1.1828299E+06   -1.8820583E+00
   1.0139184E-04   1.1726184E+06   -1.8816426E+00
   1.0186008E-04   1.1624973E+06   -1.8812258E+00
   1.0233048E-04   1.1524658E+06   -1.8808081E+00
   1.0280305E-04   1.1425231E+06   -1.8803893E+00
   1.0327781E-04   1.1326683E+06   -1.8799695E+00
   1.0375475E-04   1.1229006E+06   -1.8795487E+00
   1.0423390E-04   1.1132194E+06   -1.8791269E+00
   1.0471527E-04   1.1036238E+06   -1.8787041E+00
   1.0519885E-04   1.0941131E+06   -1.8782803E+00
   1.0568467E-04   1.0846864E+06   -1.8778555E+00
   1.0617274E-04   1.0753430E+06   -1.8774297E+00
   1.0666305E-04   1.0660822E+06   -1.8770028E+00
   1.0715563E-04   1.0569033E+06   -1.8765750E+00
   1.0765049E-04   1.0478055E+06   -1.8761462E+00
   1.0814763E-04   1.0387880E+06   -1.8757164E+00
   1.0864707E-04   1.0298502E+06   -1.8752856E+00
   1.0914881E-04   1.0209913E+06   -1.8748538E+00
   1.0965287E-04   1.0122106E+06   -1.8744210E+00
   1.1015926E-04   1.0035074E+06   -1.8739872E+00
   1.1066799E-04   9.9488109E+05   -1.8735524E+00
   1.1117906E-04   9.8633088E+05   -1.8731166E+00
   1.1169250E-04   9.7785613E+05   -1.8726799E+00
   1.1220831E-04   9.6945614E+05   -1.8722421E+00
   1.1272650E-04   9.6113025E+05   -1.8718034E+00
   1.1324708E-04   9.5287779E+05   -1.8713636E+00
   1.1377007E-04   9.4469811E+05   -1.8709229E+00
   1.1429547E-04   9.3659055E+05   -1.8704812E+00
   1.1482330E-04   9.2855446E+05   -1.8700385E+00
   1.1535356E-04   9.2058921E+05   -1.8695949E+00
   1.1588628E-04   9.1269414E+05   -1.8691502E+00
   1.1642145E-04   9.0486864E+05   -1.8687046E+00
   1.1695910E-04   8.9711208E+05   -1.8682580E+00
   1.1749923E-04   8.8942385E+05   -1.8678105E+00
   1.1804185E-04   8.8180332E+05   -1.8673619E+00
   1.1858698E-04   8.7424989E+05   -1.8669124E+00
   1.1913463E-04   8.6676296E+05   -1.8664619E+00
   1.1968481E-04   8.5934193E+05   -1.8660105E+00
   1.2023752E-04   8.5198621E+05   -1.8655580E+00
   1.2079279E-04   8.4469522E+05   -1.8651047E+00
   1.2135063E-04   8.3746838E+05   -1.8646503E+00
   1.2191104E-04   8.3030510E+05   -1.8641950E+00
   1.2247403E-04   8.2320483E+05   -1.8637387E+00
   1.2303963E-04   8.1616699E+05   -1.8632815E+00
   1.2360784E-04   8.0919102E+05   -1.8628233E+00
   1.2417868E-04   8.0227638E+05   -1.8623642E+00
   1.2475215E-04   7.9542250E+05   -1.8619041E+00
   1.2532826E-04   7.8862885E+05   -1.8614431E+00
   1.2590704E-04   7.8189489E+05   -1.8609811E+00
   1.2648850E-04   7.7522008E+05   -1.8605182E+00
   1.2707263E-04   7.6860389E+05   -1.8600543E+00
   1.2765947E-04   7.6204580E+05   -1.8595895E+00
   1.2824901E-04   7.5554529E+05   -1.8591237E+00
   1.2884128E-04   7.4910184E+05   -1.8586570E+00
   1.2943628E-04   7.4271493E+05   -1.8581894E+00
   1.3003403E-04   7.3638407E+05   -1.8577209E+00
   1.3063454E-04   7.3010876E+05   -1.8572514E+00
   1.3123783E-04   7.2388848E+05   -1.8567809E+00
   1.3184390E-04   7.1772276E+05   -1.8563096E+00
   1.3245277E-04   7.1161110E+05   -1.8558373E+00
   1.3306445E-04   7.0555302E+05   -1.8553641E+00
   1.3367895E-04   6.9954804E+05   -1.8548900E+00
   1.3429630E-04   6.9359569E+05   -1.8544150E+00
   1.3491649E-04   6.8769549E+05   -1.8539390E+00
   1.3553955E-04   6.8184697E+05   -1.8534622E+00
   1.3616548E-04   6.7604969E+05   -1.8529844E+00
   1.3679431E-04   6.7030317E+05   -1.8525057E+00
   1.3742604E-04   6.6460697E+05   -1.8520261E+00
   1.3806069E-04   6.5896063E+05   -1.8515456E+00
   1.3869827E-04   6.5336370E+05   -1.8510642E+00
   1.3933879E-04   6.4781575E+05   -1.8505820E+00
   1.3998227E-04   6.4231634E+05   -1.8500988E+00
   1.4062872E-04   6.3686504E+05   -1.8496147E+00
   1.4127816E-04   6.3146141E+05   -1.8491297E+00
   1.4193060E-04   6.2610503E+05   -1.8486439E+00
   1.4258605E-04   6.2079547E+05   -1.8481572E+00
   1.4324453E-04   6.1553232E+05   -1.8476695E+00
   1.4390605E-04   6.1031517E+05   -1.8471811E+00
   1.4457062E-04   6.0514360E+05   -1.8466917E+00
   1.4523826E-04   6.0001720E+05   -1.8462014E+00
   1.4590899E-04   5.9493558E+05   -1.8457103E+00
   1.4658281E-04   5.8989833E+05   -1.8452183E+00
   1.4725974E-04   5.8490506E+05   -1.8447255E+00
   1.4793981E-04   5.7995538E+05   -1.8442318E+00
   1.4862301E-04   5.7504888E+05   -1.8437372E+00
   1.4930936E-04   5.7018520E+05   -1.8432418E+00
   1.4999889E-04   5.6536395E+05   -1.8427455E+00
   1.5069160E-04   5.6058474E+05   -1.8422484E+00
   1.5138751E-04   5.5584721E+05   -1.8417504E+00
   1.5208663E-04   5.5115098E+05   -1.8412516E+00
   1.5278899E-04   5.4649568E+05   -1.8407520E+00
   1.5349458E-04   5.4188096E+05   -1.8402515E+00
   1.5420343E-04   5.3730645E+05   -1.8397502E+00
   1.5491556E-04   5.3277178E+05   -1.8392480E+00
   1.5563098E-04   5.2827661E+05   -1.8387450E+00
   1.5634970E-04   5.2382058E+05   -1.8382412E+00
   1.5707174E-04   5.1940334E+05   -1.8377366E+00
   1.5779711E-04   5.1502455E+05   -1.8372312E+00
   1.5852584E-04   5.1068387E+05   -1.8367249E+00
   1.5925792E-04   5.0638095E+05   -1.8362179E+00
   1.5999339E-04   5.0211546E+05   -1.8357100E+00
   1.6073226E-04   4.9788706E+05   -1.8352013E+00
   1.6147454E-04   4.9369544E+05   -1.8346919E+00
   1.6222024E-04   4.8954025E+05   -1.8341816E+00
   1.6296939E-04   4.8542118E+05   -1.8336705E+00
   1.6372200E-04   4.8133790E+05   -1.8331587E+00
   1.6447809E-04   4.7729009E+05   -1.8326461E+00
   1.6523767E-04   4.7327744E+05   -1.8321326E+00
   1.6600075E-04   4.6929964E+05   -1.8316184E+00
   1.6676736E-04   4.6535637E+05   -1.8311035E+00
   1.6753751E-04   4.6144734E+05   -1.8305877E+00
   1.6831122E-04   4.5757222E+05   -1.8300712E+00
   1.6908849E-04   4.5373073E+05   -1.8295540E+00
   1.6986936E-04   4.4992257E+05   -1.8290359E+00
   1.7065384E-04   4.4614743E+05   -1.8285172E+00
   1.7144193E-04   4.4240502E+05   -1.8279976E+00
   1.7223367E-04   4.3869506E+05   -1.8274773E+00
   1.7302906E-04   4.3501725E+05   -1.8269563E+00
   1.7382813E-04   4.3137132E+05   -1.8264346E+00
   1.7463089E-04   4.2775697E+05   -1.8259121E+00
   1.7543735E-04   4.2417392E+05   -1.8253888E+00
   1.7624754E-04   4.2062190E+05   -1.8248649E+00
   1.7706147E-04   4.1710064E+05   -1.8243402E+00
   1.7787916E-04   4.1360985E+05   -1.8238148E+00
   1.7870062E-04   4.1014927E+05   -1.8232887E+00
   1.7952588E-04   4.0671864E+05   -1.8227618E+00
   1.8035495E-04   4.0331767E+05   -1.8222343E+00
   1.8118785E-04   3.9994612E+05   -1.8217060E+00
   1.8202459E-04   3.9660372E+05   -1.8211771E+00
   1.8286520E-04   3.9329021E+05   -1.8206475E+00
   1.8370969E-04   3.9000534E+05   -1.8201171E+00
   1.8455808E-04   3.8674885E+05   -1.8195861E+00
   1.8541039E-04   3.8352049E+05   -1.8190544E+00
   1.8626663E-04   3.8032001E+05   -1.8185221E+00
   1.8712683E-04   3.7714716E+05   -1.8179890E+00
   1.8799100E-04   3.7400170E+05   -1.8174553E+00
   1.8885917E-04   3.7088339E+05   -1.8169209E+00
   1.8973134E-04   3.6779198E+05   -1.8163859E+00
   1.9060754E-04   3.6472724E+05   -1.8158502E+00
   1.9148778E-04   3.6168894E+05   -1.8153139E+00
   1.9237209E-04   3.5867682E+05   -1.8147769E+00
   1.9326049E-04   3.5569068E+05   -1.8142392E+00
   1.9415299E-04   3.5273027E+05   -1.8137010E+00
   1.9504960E-04   3.4979537E+05   -1.8131621E+00
   1.9595036E-04   3.4688575E+05   -1.8126226E+00
   1.9685528E-04   3.4400118E+05   -1.8120824E+00
   1.9776438E-04   3.4114146E+05   -1.8115416E+00
   1.9867768E-04   3.3830635E+05   -1.8110002E+00
   1.9959519E-04   3.3549564E+05   -1.8104583E+00
   2.0051694E-04   3.3270911E+05   -1.8099157E+00
   2.0144295E-04   3.2994655E+05   -1.8093725E+00
   2.0237324E-04   3.2720775E+05   -1.8088287E+00
   2.0330782E-04   3.2449250E+05   -1.8082843E+00
   2.0424671E-04   3.2180058E+05   -1.8077393E+00
   2.0518995E-04   3.1913180E+05   -1.8071938E+00
   2.0613754E-04   3.1648595E+05   -1.8066476E+00
   2.0708950E-04   3.1386282E+05   -1.8061009E+00
   2.0804586E-04   3.1126222E+05   -1.8055537E+00
   2.0900664E-04   3.0868395E+05   -1.8050059E+00
   2.0997185E-04   3.0612781E+05   -1.8044575E+00
   2.1094152E-04   3.0359360E+05   -1.8039086E+00
   2.1191567E-04   3.0108113E+05   -1.8033591E+00
   2.1289432E-04   2.9859021E+05   -1.8028091E+00
   2.1387749E-04   2.9612065E+05   -1.8022585E+00
   2.1486520E-04   2.9367226E+05   -1.8017074E+00
   2.1585747E-04   2.9124485E+05   -1.8011558E+00
   2.1685432E-04   2.8883825E+05   -1.8006037E+00
   2.1785578E-04   2.8645225E+05   -1.8000510E+00
   2.1886186E-04   2.8408669E+05   -1.7994979E+00
   2.1987259E-04   2.8174139E+05   -1.7989442E+00
   2.2088798E-04   2.7941616E+05   -1.7983901E+00
   2.2190807E-04   2.7711083E+05   -1.7978354E+00
   2.2293286E-04   2.7482522E+05   -1.7972803E+00
   2.2396239E-04   2.7255916E+05   -1.7967246E+00
   2.2499667E-04   2.7031247E+05   -1.7961685E+00
   2.2603573E-04   2.6808500E+05   -1.7956120E+00
   2.2707958E-04   2.6587656E+05   -1.7950549E+00
   2.2812826E-04   2.6368699E+05   -1.7944974E+00
   2.2918178E-04   2.6151612E+05   -1.7939394E+00
   2.3024017E-04   2.5936379E+05   -1.7933810E+00
   2.3130344E-04   2.5722984E+05   -1.7928221E+00
   2.3237162E-04   2.5511411E+05   -1.7922628E+00
   2.3344474E-04   2.5301643E+05   -1.7917031E+00
   2.3452281E-04   2.5093664E+05   -1.7911429E+00
   2.3560586E-04   2.4887459E+05   -1.7905823E+00
   2.3669392E-04   2.4683013E+05   -1.7900212E+00
   2.3778699E-04   2.4480309E+05   -1.7894598E+00
   2.3888512E-04   2.4279333E+05   -1.7888980E+00
   2.3998831E-04   2.4080069E+05   -1.7883357E+00
   2.4109661E-04   2.3882502E+05   -1.7877731E+00
   2.4221001E-04   2.3686618E+05   -1.7872100E+00
   2.4332857E-04   2.3492401E+05   -1.7866466E+00
   2.4445228E-04   2.3299838E+05   -1.7860828E+00
   2.4558119E-04   2.3108912E+05   -1.7855186E+00
   2.4671531E-04   2.2919611E+05   -1.7849540E+00
   2.4785467E-04   2.2731920E+05   -1.7843891E+00
   2.4899928E-04   2.2545824E+05   -1.7838238E+00
   2.5014919E-04   2.2361311E+05   -1.7832582E+00
   2.5130440E-04   2.2178365E+05   -1.7826922E+00
   2.5246495E-04   2.1996973E+05   -1.7821259E+00
   2.5363086E-04   2.1817122E+05   -1.7815593E+00
   2.5480216E-04   2.1638797E+05   -1.7809923E+00
   2.5597886E-04   2.1461987E+05   -1.7804250E+00
   2.5716100E-04   2.1286676E+05   -1.7798573E+00
   2.5834859E-04   2.1112853E+05   -1.7792894E+00
   2.5954168E-04   2.0940504E+05   -1.7787211E+00
   2.6074027E-04   2.0769617E+05   -1.7781526E+00
   2.6194439E-04   2.0600178E+05   -1.7775838E+00
   2.6315408E-04   2.0432175E+05   -1.7770146E+00
   2.6436935E-04   2.0265595E+05   -1.7764452E+00
   2.6559024E-04   2.0100426E+05   -1.7758755E+00
   2.6681676E-04   1.9936655E+05   -1.7753055E+00
   2.6804895E-04   1.9774271E+05   -1.7747353E+00
   2.6928683E-04   1.9613261E+05   -1.7741648E+00
   2.7053042E-04   1.9453613E+05   -1.7735940E+00
   2.7177976E-04   1.9295315E+05   -1.7730230E+00
   2.7303487E-04   1.9138356E+05   -1.7724518E+00
   2.7429577E-04   1.8982724E+05   -1.7718803E+00
   2.7556250E-04   1.8828407E+05   -1.7713086E+00
   2.7683507E-04   1.8675393E+05   -1.7707367E+00
   2.7811353E-04   1.8523672E+05   -1.7701645E+00
   2.7939788E-04   1.8373232E+05   -1.7695922E+00
   2.8068817E-04   1.8224061E+05   -1.7690196E+00
   2.8198442E-04   1.8076150E+05   -1.7684468E+00
   2.8328665E-04   1.7929486E+05   -1.7678738E+00
   2.8459490E-04   1.7784059E+05   -1.7673007E+00
   2.8590919E-04   1.7639859E+05   -1.7667273E+00
   2.8722955E-04   1.7496874E+05   -1.7661538E+00
   2.8855600E-04   1.7355093E+05   -1.7655801E+00
   2.8988859E-04   1.7214508E+05   -1.7650063E+00
   2.9122732E-04   1.7075106E+05   -1.7644322E+00
   2.9257224E-04   1.6936877E+05   -1.7638581E+00
   2.9392337E-04   1.6799813E+05   -1.7632837E+00
   2.9528074E-04   1.6663901E+05   -1.7627093E+00
   2.9664438E-04   1.6529133E+05   -1.7621347E+00
   2.9801431E-04   1.6395498E+05   -1.7615600E+00
   2.9939057E-04   1.6262987E+05   -1.7609851E+00
   3.0077319E-04   1.6131589E+05   -1.7604102E+00
   3.0216219E-04   1.6001296E+05   -1.7598351E+00
   3.0355761E-04   1.5872096E+05   -1.7592599E+00
   3.0495947E-04   1.5743982E+05   -1.7586846E+00
   3.0636780E-04   1.5616943E+05   -1.7581093E+00
   3.0778264E-04   1.5490971E+05   -1.7575338E+00
   3.0920401E-04   1.5366055E+05   -1.7569583E+00
   3.1063195E-04   1.5242187E+05   -1.7563826E+00
   3.1206648E-04   1.5119357E+05   -1.7558070E+00
   3.1350764E-04   1.4997558E+05   -1.7552312E+00
   3.1495545E-04   1.4876779E+05   -1.7546554E+00
   3.1640994E-04   1.4757011E+05   -1.7540796E+00
   3.1787116E-04   1.4638247E+05   -1.7535037E+00
   3.1933912E-04   1.4520477E+05   -1.7529278E+00
   3.2081386E-04   1.4403693E+05   -1.7523518E+00
   3.2229541E-04   1.4287886E+05   -1.7517758E+00
   3.2378381E-04   1.4173048E+05   -1.7511998E+00
   3.2527908E-04   1.4059170E+05   -1.7506238E+00
   3.2678125E-04   1.3946244E+05   -1.7500477E+00
   3.2829036E-04   1.3834261E+05   -1.7494717E+00
   3.2980644E-04   1.3723215E+05   -1.7488957E+00
   3.3132952E-04   1.3613096E+05   -1.7483197E+00
   3.3285963E-04   1.3503896E+05   -1.7477437E+00
   3.3439681E-04   1.3395608E+05   -1.7471677E+00
   3.3594109E-04   1.3288223E+05   -1.7465918E+00
   3.3749250E-04   1.3181734E+05   -1.7460159E+00
   3.3905108E-04   1.3076134E+05   -1.7454400E+00
   3.4061685E-04   1.2971414E+05   -1.7448642E+00
   3.4218986E-04   1.2867566E+05   -1.7442884E+00
   3.4377013E-04   1.2764584E+05   -1.7437127E+00
   3.4535769E-04   1.2662460E+05   -1.7431371E+00
   3.4695259E-04   1.2561185E+05   -1.7425615E+00
   3.4855485E-04   1.2460754E+05   -1.7419860E+00
   3.5016452E-04   1.2361159E+05   -1.7414106E+00
   3.5178161E-04   1.2262392E+05   -1.7408353E+00
   3.5340618E-04   1.2164447E+05   -1.7402601E+00
   3.5503824E-04   1.2067316E+05   -1.7396850E+00
   3.5667785E-04   1.1970992E+05   -1.7391099E+00
   3.5832502E-04   1.1875469E+05   -1.7385351E+00
   3.5997981E-04   1.1780739E+05   -1.7379603E+00
   3.6164223E-04   1.1686796E+05   -1.7373856E+00
   3.6331233E-04   1.1593632E+05   -1.7368111E+00
   3.6499015E-04   1.1501242E+05   -1.7362368E+00
   3.6667571E-04   1.1409618E+05   -1.7356625E+00
   3.6836906E-04   1.1318754E+05   -1.7350885E+00
   3.7007022E-04   1.1228643E+05   -1.7345145E+00
   3.7177925E-04   1.1139279E+05   -1.7339408E+00
   3.7349616E-04   1.1050655E+05   -1.7333672E+00
   3.7522101E-04   1.0962766E+05   -1.7327938E+00
   3.7695382E-04   1.0875604E+05   -1.7322205E+00
   3.7869463E-04   1.0789164E+05   -1.7316475E+00
   3.8044348E-04   1.0703439E+05   -1.7310746E+00
   3.8220041E-04   1.0618423E+05   -1.7305020E+00
   3.8396545E-04   1.0534110E+05   -1.7299295E+00
   3.8573864E-04   1.0450495E+05   -1.7293573E+00
   3.8752002E-04   1.0367570E+05   -1.7287853E+00
   3.8930963E-04   1.0285330E+05   -1.7282135E+00
   3.9110750E-04   1.0203770E+05   -1.7276419E+00
   3.9291368E-04   1.0122883E+05   -1.7270706E+00
   3.9472820E-04   1.0042664E+05   -1.7264995E+00
   3.9655109E-04   9.9631065E+04   -1.7259286E+00
   3.9838241E-04   9.8842053E+04   -1.7253580E+00
   4.0022218E-04   9.8059547E+04   -1.7247877E+00
   4.0207045E-04   9.7283493E+04   -1.7242176E+00
   4.0392725E-04   9.6513833E+04   -1.7236478E+00
   4.0579263E-04   9.5750514E+04   -1.7230783E+00
   4.0766662E-04   9.4993482E+04   -1.7225091E+00
   4.0954927E-04   9.4242681E+04   -1.7219401E+00
   4.1144061E-04   9.3498060E+04   -1.7213714E+00
   4.1334068E-04   9.2759565E+04   -1.7208031E+00
   4.1524953E-04   9.2027144E+04   -1.7202350E+00
   4.1716720E-04   9.1300745E+04   -1.7196673E+00
   4.1909372E-04   9.0580316E+04   -1.7190998E+00
   4.2102914E-04   8.9865807E+04   -1.7185327E+00
   4.2297350E-04   8.9157167E+04   -1.7179659E+00
   4.2492683E-04   8.8454346E+04   -1.7173995E+00
   4.2688919E-04   8.7757295E+04   -1.7168334E+00
   4.2886061E-04   8.7065963E+04   -1.7162676E+00
   4.3084113E-04   8.6380303E+04   -1.7157022E+00
   4.3283080E-04   8.5700266E+04   -1.7151371E+00
   4.3482966E-04   8.5025803E+04   -1.7145724E+00
   4.3683775E-04   8.4356868E+04   -1.7140081E+00
   4.3885511E-04   8.3693413E+04   -1.7134442E+00
   4.4088179E-04   8.3035392E+04   -1.7128806E+00
   4.4291783E-04   8.2382759E+04   -1.7123174E+00
   4.4496327E-04   8.1735466E+04   -1.7117546E+00
   4.4701816E-04   8.1093470E+04   -1.7111922E+00
   4.4908253E-04   8.0456725E+04   -1.7106302E+00
   4.5115644E-04   7.9825186E+04   -1.7100686E+00
   4.5323993E-04   7.9198810E+04   -1.7095074E+00
   4.5533304E-04   7.8577551E+04   -1.7089466E+00
   4.5743582E-04   7.7961368E+04   -1.7083863E+00
   4.5954830E-04   7.7350216E+04   -1.7078264E+00
   4.6167054E-04   7.6744052E+04   -1.7072669E+00
   4.6380259E-04   7.6142835E+04   -1.7067078E+00
   4.6594448E-04   7.5546523E+04   -1.7061492E+00
   4.6809626E-04   7.4955073E+04   -1.7055911E+00
   4.7025797E-04   7.4368445E+04   -1.7050334E+00
   4.7242967E-04   7.3786598E+04   -1.7044762E+00
   4.7461140E-04   7.3209491E+04   -1.7039194E+00
   4.7680321E-04   7.2637084E+04   -1.7033631E+00
   4.7900514E-04   7.2069337E+04   -1.7028073E+00
   4.8121723E-04   7.1506210E+04   -1.7022519E+00
   4.8343954E-04   7.0947666E+04   -1.7016971E+00
   4.8567212E-04   7.0393664E+04   -1.7011427E+00
   4.8791500E-04   6.9844166E+04   -1.7005889E+00
   4.9016825E-04   6.9299135E+04   -1.7000355E+00
   4.9243189E-04   6.8758532E+04   -1.6994827E+00
   4.9470600E-04   6.8222319E+04   -1.6989304E+00
   4.9699060E-04   6.7690461E+04   -1.6983785E+00
   4.9928575E-04   6.7162920E+04   -1.6978273E+00
   5.0159151E-04   6.6639659E+04   -1.6972765E+00
   5.0390791E-04   6.6120642E+04   -1.6967263E+00
   5.0623501E-04   6.5605834E+04   -1.6961766E+00
   5.0857286E-04   6.5095199E+04   -1.6956274E+00
   5.1092150E-04   6.4588703E+04   -1.6950788E+00
   5.1328099E-04   6.4086308E+04   -1.6945308E+00
   5.1565137E-04   6.3587983E+04   -1.6939833E+00
   5.1803270E-04   6.3093691E+04   -1.6934364E+00
   5.2042503E-04   6.2603399E+04   -1.6928900E+00
   5.2282841E-04   6.2117073E+04   -1.6923443E+00
   5.2524289E-04   6.1634681E+04   -1.6917991E+00
   5.2766851E-04   6.1156188E+04   -1.6912544E+00
   5.3010534E-04   6.0681561E+04   -1.6907104E+00
   5.3255342E-04   6.0210770E+04   -1.6901670E+00
   5.3501281E-04   5.9743780E+04   -1.6896241E+00
   5.3748356E-04   5.9280560E+04   -1.6890819E+00
   5.3996571E-04   5.8821079E+04   -1.6885403E+00
   5.4245933E-04   5.8365305E+04   -1.6879993E+00
   5.4496446E-04   5.7913207E+04   -1.6874589E+00
   5.4748117E-04   5.7464754E+04   -1.6869191E+00
   5.5000949E-04   5.7019915E+04   -1.6863799E+00
   5.5254949E-04   5.6578660E+04   -1.6858414E+00
   5.5510123E-04   5.6140959E+04   -1.6853035E+00
   5.5766474E-04   5.5706782E+04   -1.6847663E+00
   5.6024010E-04   5.5276099E+04   -1.6842297E+00
   5.6282734E-04   5.4848882E+04   -1.6836937E+00
   5.6542654E-04   5.4425101E+04   -1.6831584E+00
   5.6803774E-04   5.4004727E+04   -1.6826238E+00
   5.7066099E-04   5.3587732E+04   -1.6820898E+00
   5.7329637E-04   5.3174088E+04   -1.6815565E+00
   5.7594391E-04   5.2763766E+04   -1.6810238E+00
   5.7860368E-04   5.2356739E+04   -1.6804919E+00
   5.8127573E-04   5.1952979E+04   -1.6799606E+00
   5.8396012E-04   5.1552459E+04   -1.6794300E+00
   5.8665691E-04   5.1155152E+04   -1.6789001E+00
   5.8936616E-04   5.0761030E+04   -1.6783708E+00
   5.9208791E-04   5.0370068E+04   -1.6778423E+00
   5.9482223E-04   4.9982238E+04   -1.6773145E+00
   5.9756919E-04   4.9597515E+04   -1.6767874E+00
   6.0032882E-04   4.9215873E+04   -1.6762610E+00
   6.0310120E-04   4.8837286E+04   -1.6757353E+00
   6.0588639E-04   4.8461728E+04   -1.6752103E+00
   6.0868443E-04   4.8089175E+04   -1.6746860E+00
   6.1149540E-04   4.7719601E+04   -1.6741625E+00
   6.1431935E-04   4.7352981E+04   -1.6736397E+00
   6.1715634E-04   4.6989291E+04   -1.6731176E+00
   6.2000644E-04   4.6628507E+04   -1.6725963E+00
   6.2286969E-04   4.6270604E+04   -1.6720757E+00
