#        a       HoverH0(a)       dlogHdloga_of_a(a)
   1.0000000E-04   1.0866177E+06   -1.8511142E+00
   1.0046181E-04   1.0773906E+06   -1.8506320E+00
   1.0092575E-04   1.0682442E+06   -1.8501489E+00
   1.0139184E-04   1.0591778E+06   -1.8496649E+00
   1.0186008E-04   1.0501907E+06   -1.8491801E+00
   1.0233048E-04   1.0412822E+06   -1.8486943E+00
   1.0280305E-04   1.0324516E+06   -1.8482077E+00
   1.0327781E-04   1.0236982E+06   -1.8477202E+00
   1.0375475E-04   1.0150212E+06   -1.8472318E+00
   1.0423390E-04   1.0064201E+06   -1.8467425E+00
   1.0471527E-04   9.9789413E+05   -1.8462524E+00
   1.0519885E-04   9.8944261E+05   -1.8457614E+00
   1.0568467E-04   9.8106488E+05   -1.8452695E+00
   1.0617274E-04   9.7276030E+05   -1.8447768E+00
   1.0666305E-04   9.6452820E+05   -1.8442832E+00
   1.0715563E-04   9.5636795E+05   -1.8437887E+00
   1.0765049E-04   9.4827890E+05   -1.8432934E+00
   1.0814763E-04   9.4026042E+05   -1.8427972E+00
   1.0864707E-04   9.3231187E+05   -1.8423002E+00
   1.0914881E-04   9.2443263E+05   -1.8418023E+00
   1.0965287E-04   9.1662209E+05   -1.8413036E+00
   1.1015926E-04   9.0887963E+05   -1.8408041E+00
   1.1066799E-04   9.0120464E+05   -1.8403037E+00
   1.1117906E-04   8.9359653E+05   -1.8398025E+00
   1.1169250E-04   8.8605469E+05   -1.8393004E+00
   1.1220831E-04   8.7857854E+05   -1.8387975E+00
   1.1272650E-04   8.7116749E+05   -1.8382938E+00
   1.1324708E-04   8.6382096E+05   -1.8377893E+00
   1.1377007E-04   8.5653838E+05   -1.8372840E+00
   1.1429547E-04   8.4931917E+05   -1.8367778E+00
   1.1482330E-04   8.4216277E+05   -1.8362709E+00
   1.1535356E-04   8.3506863E+05   -1.8357631E+00
   1.1588628E-04   8.2803619E+05   -1.8352545E+00
   1.1642145E-04   8.2106489E+05   -1.8347451E+00
   1.1695910E-04   8.1415420E+05   -1.8342350E+00
   1.1749923E-04   8.0730357E+05   -1.8337240E+00
   1.1804185E-04   8.0051247E+05   -1.8332123E+00
   1.1858698E-04   7.9378037E+05   -1.8326997E+00
   1.1913463E-04   7.8710674E+05   -1.8321864E+00
   1.1968481E-04   7.8049108E+05   -1.8316723E+00
   1.2023752E-04   7.7393285E+05   -1.8311574E+00
   1.2079279E-04   7.6743155E+05   -1.8306418E+00
   1.2135063E-04   7.6098667E+05   -1.8301254E+00
   1.2191104E-04   7.5459772E+05   -1.8296082E+00
   1.2247403E-04   7.4826418E+05   -1.8290903E+00
   1.2303963E-04   7.4198558E+05   -1.8285716E+00
   1.2360784E-04   7.3576142E+05   -1.8280522E+00
   1.2417868E-04   7.2959122E+05   -1.8275320E+00
   1.2475215E-04   7.2347450E+05   -1.8270110E+00
   1.2532826E-04   7.1741078E+05   -1.8264894E+00
   1.2590704E-04   7.1139960E+05   -1.8259670E+00
   1.2648850E-04   7.0544048E+05   -1.8254438E+00
   1.2707263E-04   6.9953297E+05   -1.8249200E+00
   1.2765947E-04   6.9367660E+05   -1.8243954E+00
   1.2824901E-04   6.8787093E+05   -1.8238701E+00
   1.2884128E-04   6.8211550E+05   -1.8233440E+00
   1.2943628E-04   6.7640987E+05   -1.8228173E+00
   1.3003403E-04   6.7075359E+05   -1.8222898E+00
   1.3063454E-04   6.6514622E+05   -1.8217617E+00
   1.3123783E-04   6.5958734E+05   -1.8212328E+00
   1.3184390E-04   6.5407651E+05   -1.8207033E+00
   1.3245277E-04   6.4861331E+05   -1.8201731E+00
   1.3306445E-04   6.4319731E+05   -1.8196421E+00
   1.3367895E-04   6.3782810E+05   -1.8191105E+00
   1.3429630E-04   6.3250525E+05   -1.8185783E+00
   1.3491649E-04   6.2722837E+05   -1.8180453E+00
   1.3553955E-04   6.2199704E+05   -1.8175117E+00
   1.3616548E-04   6.1681086E+05   -1.8169774E+00
   1.3679431E-04   6.1166943E+05   -1.8164425E+00
   1.3742604E-04   6.0657235E+05   -1.8159069E+00
   1.3806069E-04   6.0151923E+05   -1.8153706E+00
   1.3869827E-04   5.9650968E+05   -1.8148337E+00
   1.3933879E-04   5.9154331E+05   -1.8142962E+00
   1.3998227E-04   5.8661975E+05   -1.8137580E+00
   1.4062872E-04   5.8173861E+05   -1.8132192E+00
   1.4127816E-04   5.7689952E+05   -1.8126797E+00
   1.4193060E-04   5.7210210E+05   -1.8121397E+00
   1.4258605E-04   5.6734599E+05   -1.8115990E+00
   1.4324453E-04   5.6263082E+05   -1.8110577E+00
   1.4390605E-04   5.5795624E+05   -1.8105158E+00
   1.4457062E-04   5.5332187E+05   -1.8099733E+00
   1.4523826E-04   5.4872737E+05   -1.8094301E+00
   1.4590899E-04   5.4417238E+05   -1.8088864E+00
   1.4658281E-04   5.3965656E+05   -1.8083421E+00
   1.4725974E-04   5.3517955E+05   -1.8077973E+00
   1.4793981E-04   5.3074102E+05   -1.8072518E+00
   1.4862301E-04   5.2634062E+05   -1.8067057E+00
   1.4930936E-04   5.2197802E+05   -1.8061591E+00
   1.4999889E-04   5.1765288E+05   -1.8056120E+00
   1.5069160E-04   5.1336488E+05   -1.8050642E+00
   1.5138751E-04   5.0911368E+05   -1.8045159E+00
   1.5208663E-04   5.0489896E+05   -1.8039671E+00
   1.5278899E-04   5.0072040E+05   -1.8034177E+00
   1.5349458E-04   4.9657769E+05   -1.8028677E+00
   1.5420343E-04   4.9247049E+05   -1.8023173E+00
   1.5491556E-04   4.8839851E+05   -1.8017663E+00
   1.5563098E-04   4.8436142E+05   -1.8012147E+00
   1.5634970E-04   4.8035892E+05   -1.8006627E+00
   1.5707174E-04   4.7639072E+05   -1.8001101E+00
   1.5779711E-04   4.7245649E+05   -1.7995571E+00
   1.5852584E-04   4.6855595E+05   -1.7990035E+00
   1.5925792E-04   4.6468880E+05   -1.7984494E+00
   1.5999339E-04   4.6085475E+05   -1.7978948E+00
   1.6073226E-04   4.5705349E+05   -1.7973397E+00
   1.6147454E-04   4.5328475E+05   -1.7967842E+00
   1.6222024E-04   4.4954824E+05   -1.7962282E+00
   1.6296939E-04   4.4584367E+05   -1.7956717E+00
   1.6372200E-04   4.4217076E+05   -1.7951147E+00
   1.6447809E-04   4.3852924E+05   -1.7945572E+00
   1.6523767E-04   4.3491882E+05   -1.7939993E+00
   1.6600075E-04   4.3133924E+05   -1.7934410E+00
   1.6676736E-04   4.2779022E+05   -1.7928822E+00
   1.6753751E-04   4.2427149E+05   -1.7923230E+00
   1.6831122E-04   4.2078279E+05   -1.7917633E+00
   1.6908849E-04   4.1732386E+05   -1.7912032E+00
   1.6986936E-04   4.1389442E+05   -1.7906426E+00
   1.7065384E-04   4.1049423E+05   -1.7900817E+00
   1.7144193E-04   4.0712303E+05   -1.7895203E+00
   1.7223367E-04   4.0378055E+05   -1.7889586E+00
   1.7302906E-04   4.0046655E+05   -1.7883964E+00
   1.7382813E-04   3.9718079E+05   -1.7878338E+00
   1.7463089E-04   3.9392300E+05   -1.7872708E+00
   1.7543735E-04   3.9069295E+05   -1.7867075E+00
   1.7624754E-04   3.8749039E+05   -1.7861437E+00
   1.7706147E-04   3.8431508E+05   -1.7855796E+00
   1.7787916E-04   3.8116678E+05   -1.7850151E+00
   1.7870062E-04   3.7804526E+05   -1.7844503E+00
   1.7952588E-04   3.7495027E+05   -1.7838851E+00
   1.8035495E-04   3.7188159E+05   -1.7833195E+00
   1.8118785E-04   3.6883899E+05   -1.7827536E+00
   1.8202459E-04   3.6582224E+05   -1.7821873E+00
   1.8286520E-04   3.6283110E+05   -1.7816208E+00
   1.8370969E-04   3.5986537E+05   -1.7810538E+00
   1.8455808E-04   3.5692481E+05   -1.7804866E+00
   1.8541039E-04   3.5400920E+05   -1.7799190E+00
   1.8626663E-04   3.5111833E+05   -1.7793512E+00
   1.8712683E-04   3.4825197E+05   -1.7787830E+00
   1.8799100E-04   3.4540992E+05   -1.7782145E+00
   1.8885917E-04   3.4259196E+05   -1.7776457E+00
   1.8973134E-04   3.3979788E+05   -1.7770766E+00
   1.9060754E-04   3.3702747E+05   -1.7765073E+00
   1.9148778E-04   3.3428053E+05   -1.7759376E+00
   1.9237209E-04   3.3155685E+05   -1.7753677E+00
   1.9326049E-04   3.2885622E+05   -1.7747976E+00
   1.9415299E-04   3.2617844E+05   -1.7742271E+00
   1.9504960E-04   3.2352333E+05   -1.7736564E+00
   1.9595036E-04   3.2089067E+05   -1.7730855E+00
   1.9685528E-04   3.1828026E+05   -1.7725143E+00
   1.9776438E-04   3.1569193E+05   -1.7719429E+00
   1.9867768E-04   3.1312547E+05   -1.7713713E+00
   1.9959519E-04   3.1058069E+05   -1.7707994E+00
   2.0051694E-04   3.0805741E+05   -1.7702273E+00
   2.0144295E-04   3.0555543E+05   -1.7696550E+00
   2.0237324E-04   3.0307457E+05   -1.7690825E+00
   2.0330782E-04   3.0061464E+05   -1.7685097E+00
   2.0424671E-04   2.9817547E+05   -1.7679368E+00
   2.0518995E-04   2.9575687E+05   -1.7673637E+00
   2.0613754E-04   2.9335867E+05   -1.7667904E+00
   2.0708950E-04   2.9098068E+05   -1.7662170E+00
   2.0804586E-04   2.8862272E+05   -1.7656433E+00
   2.0900664E-04   2.8628464E+05   -1.7650695E+00
   2.0997185E-04   2.8396624E+05   -1.7644956E+00
   2.1094152E-04   2.8166736E+05   -1.7639214E+00
   2.1191567E-04   2.7938784E+05   -1.7633472E+00
   2.1289432E-04   2.7712749E+05   -1.7627728E+00
   2.1387749E-04   2.7488616E+05   -1.7621982E+00
   2.1486520E-04   2.7266368E+05   -1.7616236E+00
   2.1585747E-04   2.7045989E+05   -1.7610488E+00
   2.1685432E-04   2.6827461E+05   -1.7604739E+00
   2.1785578E-04   2.6610770E+05   -1.7598988E+00
   2.1886186E-04   2.6395899E+05   -1.7593237E+00
   2.1987259E-04   2.6182832E+05   -1.7587485E+00
   2.2088798E-04   2.5971555E+05   -1.7581732E+00
   2.2190807E-04   2.5762050E+05   -1.7575978E+00
   2.2293286E-04   2.5554303E+05   -1.7570223E+00
   2.2396239E-04   2.5348298E+05   -1.7564467E+00
   2.2499667E-04   2.5144021E+05   -1.7558711E+00
   2.2603573E-04   2.4941457E+05   -1.7552954E+00
   2.2707958E-04   2.4740590E+05   -1.7547196E+00
   2.2812826E-04   2.4541405E+05   -1.7541438E+00
   2.2918178E-04   2.4343889E+05   -1.7535680E+00
   2.3024017E-04   2.4148026E+05   -1.7529921E+00
   2.3130344E-04   2.3953803E+05   -1.7524162E+00
   2.3237162E-04   2.3761206E+05   -1.7518403E+00
   2.3344474E-04   2.3570219E+05   -1.7512643E+00
   2.3452281E-04   2.3380829E+05   -1.7506883E+00
   2.3560586E-04   2.3193023E+05   -1.7501123E+00
   2.3669392E-04   2.3006786E+05   -1.7495364E+00
   2.3778699E-04   2.2822106E+05   -1.7489604E+00
   2.3888512E-04   2.2638968E+05   -1.7483844E+00
   2.3998831E-04   2.2457359E+05   -1.7478085E+00
   2.4109661E-04   2.2277266E+05   -1.7472325E+00
   2.4221001E-04   2.2098676E+05   -1.7466566E+00
   2.4332857E-04   2.1921576E+05   -1.7460808E+00
   2.4445228E-04   2.1745952E+05   -1.7455049E+00
   2.4558119E-04   2.1571793E+05   -1.7449292E+00
   2.4671531E-04   2.1399086E+05   -1.7443534E+00
   2.4785467E-04   2.1227818E+05   -1.7437778E+00
   2.4899928E-04   2.1057976E+05   -1.7432022E+00
   2.5014919E-04   2.0889548E+05   -1.7426267E+00
   2.5130440E-04   2.0722523E+05   -1.7420512E+00
   2.5246495E-04   2.0556888E+05   -1.7414758E+00
   2.5363086E-04   2.0392630E+05   -1.7409006E+00
   2.5480216E-04   2.0229739E+05   -1.7403254E+00
   2.5597886E-04   2.0068202E+05   -1.7397503E+00
   2.5716100E-04   1.9908007E+05   -1.7391753E+00
   2.5834859E-04   1.9749144E+05   -1.7386005E+00
   2.5954168E-04   1.9591600E+05   -1.7380258E+00
   2.6074027E-04   1.9435365E+05   -1.7374512E+00
   2.6194439E-04   1.9280426E+05   -1.7368767E+00
   2.6315408E-04   1.9126773E+05   -1.7363023E+00
   2.6436935E-04   1.8974395E+05   -1.7357282E+00
   2.6559024E-04   1.8823281E+05   -1.7351541E+00
   2.6681676E-04   1.8673420E+05   -1.7345802E+00
   2.6804895E-04   1.8524800E+05   -1.7340065E+00
   2.6928683E-04   1.8377413E+05   -1.7334330E+00
   2.7053042E-04   1.8231245E+05   -1.7328596E+00
   2.7177976E-04   1.8086289E+05   -1.7322864E+00
   2.7303487E-04   1.7942532E+05   -1.7317134E+00
   2.7429577E-04   1.7799965E+05   -1.7311406E+00
   2.7556250E-04   1.7658577E+05   -1.7305679E+00
   2.7683507E-04   1.7518358E+05   -1.7299955E+00
   2.7811353E-04   1.7379299E+05   -1.7294233E+00
   2.7939788E-04   1.7241389E+05   -1.7288513E+00
   2.8068817E-04   1.7104618E+05   -1.7282796E+00
   2.8198442E-04   1.6968977E+05   -1.7277080E+00
   2.8328665E-04   1.6834457E+05   -1.7271367E+00
   2.8459490E-04   1.6701046E+05   -1.7265657E+00
   2.8590919E-04   1.6568736E+05   -1.7259949E+00
   2.8722955E-04   1.6437518E+05   -1.7254243E+00
   2.8855600E-04   1.6307382E+05   -1.7248540E+00
   2.8988859E-04   1.6178318E+05   -1.7242839E+00
   2.9122732E-04   1.6050318E+05   -1.7237142E+00
   2.9257224E-04   1.5923373E+05   -1.7231447E+00
   2.9392337E-04   1.5797473E+05   -1.7225755E+00
   2.9528074E-04   1.5672610E+05   -1.7220065E+00
   2.9664438E-04   1.5548774E+05   -1.7214379E+00
   2.9801431E-04   1.5425957E+05   -1.7208696E+00
   2.9939057E-04   1.5304150E+05   -1.7203015E+00
   3.0077319E-04   1.5183345E+05   -1.7197338E+00
   3.0216219E-04   1.5063533E+05   -1.7191664E+00
   3.0355761E-04   1.4944706E+05   -1.7185993E+00
   3.0495947E-04   1.4826854E+05   -1.7180326E+00
   3.0636780E-04   1.4709970E+05   -1.7174661E+00
   3.0778264E-04   1.4594046E+05   -1.7169001E+00
   3.0920401E-04   1.4479073E+05   -1.7163343E+00
   3.1063195E-04   1.4365043E+05   -1.7157689E+00
   3.1206648E-04   1.4251949E+05   -1.7152039E+00
   3.1350764E-04   1.4139781E+05   -1.7146392E+00
   3.1495545E-04   1.4028533E+05   -1.7140749E+00
   3.1640994E-04   1.3918196E+05   -1.7135110E+00
   3.1787116E-04   1.3808763E+05   -1.7129474E+00
   3.1933912E-04   1.3700226E+05   -1.7123843E+00
   3.2081386E-04   1.3592578E+05   -1.7118215E+00
   3.2229541E-04   1.3485810E+05   -1.7112591E+00
   3.2378381E-04   1.3379915E+05   -1.7106971E+00
   3.2527908E-04   1.3274887E+05   -1.7101356E+00
   3.2678125E-04   1.3170717E+05   -1.7095744E+00
   3.2829036E-04   1.3067398E+05   -1.7090137E+00
   3.2980644E-04   1.2964923E+05   -1.7084533E+00
   3.3132952E-04   1.2863284E+05   -1.7078934E+00
   3.3285963E-04   1.2762476E+05   -1.7073340E+00
   3.3439681E-04   1.2662490E+05   -1.7067750E+00
   3.3594109E-04   1.2563320E+05   -1.7062164E+00
   3.3749250E-04   1.2464959E+05   -1.7056583E+00
   3.3905108E-04   1.2367399E+05   -1.7051006E+00
   3.4061685E-04   1.2270635E+05   -1.7045434E+00
   3.4218986E-04   1.2174659E+05   -1.7039866E+00
   3.4377013E-04   1.2079464E+05   -1.7034304E+00
   3.4535769E-04   1.1985045E+05   -1.7028746E+00
   3.4695259E-04   1.1891394E+05   -1.7023192E+00
   3.4855485E-04   1.1798505E+05   -1.7017644E+00
   3.5016452E-04   1.1706371E+05   -1.7012101E+00
   3.5178161E-04   1.1614987E+05   -1.7006562E+00
   3.5340618E-04   1.1524346E+05   -1.7001029E+00
   3.5503824E-04   1.1434440E+05   -1.6995501E+00
   3.5667785E-04   1.1345266E+05   -1.6989978E+00
   3.5832502E-04   1.1256815E+05   -1.6984460E+00
   3.5997981E-04   1.1169082E+05   -1.6978947E+00
   3.6164223E-04   1.1082061E+05   -1.6973440E+00
   3.6331233E-04   1.0995746E+05   -1.6967938E+00
   3.6499015E-04   1.0910131E+05   -1.6962441E+00
   3.6667571E-04   1.0825210E+05   -1.6956950E+00
   3.6836906E-04   1.0740978E+05   -1.6951464E+00
   3.7007022E-04   1.0657427E+05   -1.6945984E+00
   3.7177925E-04   1.0574553E+05   -1.6940509E+00
   3.7349616E-04   1.0492350E+05   -1.6935040E+00
   3.7522101E-04   1.0410812E+05   -1.6929577E+00
   3.7695382E-04   1.0329934E+05   -1.6924119E+00
   3.7869463E-04   1.0249710E+05   -1.6918667E+00
   3.8044348E-04   1.0170135E+05   -1.6913221E+00
   3.8220041E-04   1.0091202E+05   -1.6907781E+00
   3.8396545E-04   1.0012908E+05   -1.6902347E+00
   3.8573864E-04   9.9352452E+04   -1.6896919E+00
   3.8752002E-04   9.8582098E+04   -1.6891496E+00
   3.8930963E-04   9.7817962E+04   -1.6886080E+00
   3.9110750E-04   9.7059991E+04   -1.6880670E+00
   3.9291368E-04   9.6308133E+04   -1.6875267E+00
   3.9472820E-04   9.5562337E+04   -1.6869869E+00
   3.9655109E-04   9.4822552E+04   -1.6864478E+00
   3.9838241E-04   9.4088728E+04   -1.6859092E+00
   4.0022218E-04   9.3360814E+04   -1.6853714E+00
   4.0207045E-04   9.2638761E+04   -1.6848341E+00
   4.0392725E-04   9.1922520E+04   -1.6842976E+00
   4.0579263E-04   9.1212042E+04   -1.6837616E+00
   4.0766662E-04   9.0507278E+04   -1.6832263E+00
   4.0954927E-04   8.9808182E+04   -1.6826917E+00
   4.1144061E-04   8.9114705E+04   -1.6821577E+00
   4.1334068E-04   8.8426800E+04   -1.6816245E+00
   4.1524953E-04   8.7744420E+04   -1.6810918E+00
   4.1716720E-04   8.7067520E+04   -1.6805599E+00
   4.1909372E-04   8.6396054E+04   -1.6800286E+00
   4.2102914E-04   8.5729975E+04   -1.6794980E+00
   4.2297350E-04   8.5069240E+04   -1.6789681E+00
   4.2492683E-04   8.4413803E+04   -1.6784389E+00
   4.2688919E-04   8.3763620E+04   -1.6779104E+00
   4.2886061E-04   8.3118647E+04   -1.6773826E+00
   4.3084113E-04   8.2478841E+04   -1.6768555E+00
   4.3283080E-04   8.1844159E+04   -1.6763291E+00
   4.3482966E-04   8.1214557E+04   -1.6758034E+00
   4.3683775E-04   8.0589994E+04   -1.6752784E+00
   4.3885511E-04   7.9970427E+04   -1.6747542E+00
   4.4088179E-04   7.9355815E+04   -1.6742307E+00
   4.4291783E-04   7.8746116E+04   -1.6737079E+00
   4.4496327E-04   7.8141289E+04   -1.6731858E+00
   4.4701816E-04   7.7541295E+04   -1.6726645E+00
   4.4908253E-04   7.6946092E+04   -1.6721440E+00
   4.5115644E-04   7.6355641E+04   -1.6716241E+00
   4.5323993E-04   7.5769902E+04   -1.6711050E+00
   4.5533304E-04   7.5188836E+04   -1.6705867E+00
   4.5743582E-04   7.4612404E+04   -1.6700692E+00
   4.5954830E-04   7.4040568E+04   -1.6695523E+00
   4.6167054E-04   7.3473290E+04   -1.6690363E+00
   4.6380259E-04   7.2910531E+04   -1.6685210E+00
   4.6594448E-04   7.2352253E+04   -1.6680065E+00
   4.6809626E-04   7.1798421E+04   -1.6674928E+00
   4.7025797E-04   7.1248997E+04   -1.6669799E+00
   4.7242967E-04   7.0703944E+04   -1.6664677E+00
   4.7461140E-04   7.0163226E+04   -1.6659563E+00
   4.7680321E-04   6.9626807E+04   -1.6654457E+00
   4.7900514E-04   6.9094651E+04   -1.6649360E+00
   4.8121723E-04   6.8566724E+04   -1.6644270E+00
   4.8343954E-04   6.8042990E+04   -1.6639188E+00
   4.8567212E-04   6.7523415E+04   -1.6634114E+00
   4.8791500E-04   6.7007963E+04   -1.6629048E+00
   4.9016825E-04   6.6496602E+04   -1.6623990E+00
   4.9243189E-04   6.5989296E+04   -1.6618941E+00
   4.9470600E-04   6.5486013E+04   -1.6613900E+00
   4.9699060E-04   6.4986719E+04   -1.6608867E+00
   4.9928575E-04   6.4491381E+04   -1.6603842E+00
   5.0159151E-04   6.3999967E+04   -1.6598825E+00
   5.0390791E-04   6.3512444E+04   -1.6593817E+00
   5.0623501E-04   6.3028780E+04   -1.6588817E+00
   5.0857286E-04   6.2548943E+04   -1.6583825E+00
   5.1092150E-04   6.2072902E+04   -1.6578842E+00
   5.1328099E-04   6.1600626E+04   -1.6573868E+00
   5.1565137E-04   6.1132082E+04   -1.6568901E+00
   5.1803270E-04   6.0667241E+04   -1.6563944E+00
   5.2042503E-04   6.0206073E+04   -1.6558995E+00
   5.2282841E-04   5.9748545E+04   -1.6554054E+00
   5.2524289E-04   5.9294630E+04   -1.6549122E+00
   5.2766851E-04   5.8844297E+04   -1.6544199E+00
   5.3010534E-04   5.8397516E+04   -1.6539284E+00
   5.3255342E-04   5.7954258E+04   -1.6534378E+00
   5.3501281E-04   5.7514495E+04   -1.6529481E+00
   5.3748356E-04   5.7078198E+04   -1.6524592E+00
   5.3996571E-04   5.6645337E+04   -1.6519712E+00
   5.4245933E-04   5.6215886E+04   -1.6514841E+00
   5.4496446E-04   5.5789816E+04   -1.6509979E+00
   5.4748117E-04   5.5367098E+04   -1.6505126E+00
   5.5000949E-04   5.4947707E+04   -1.6500281E+00
   5.5254949E-04   5.4531614E+04   -1.6495446E+00
   5.5510123E-04   5.4118792E+04   -1.6490619E+00
   5.5766474E-04   5.3709215E+04   -1.6485802E+00
   5.6024010E-04   5.3302855E+04   -1.6480993E+00
   5.6282734E-04   5.2899688E+04   -1.6476193E+00
   5.6542654E-04   5.2499685E+04   -1.6471403E+00
   5.6803774E-04   5.2102822E+04   -1.6466621E+00
   5.7066099E-04   5.1709073E+04   -1.6461849E+00
   5.7329637E-04   5.1318413E+04   -1.6457086E+00
   5.7594391E-04   5.0930815E+04   -1.6452331E+00
   5.7860368E-04   5.0546256E+04   -1.6447586E+00
   5.8127573E-04   5.0164709E+04   -1.6442850E+00
   5.8396012E-04   4.9786152E+04   -1.6438124E+00
   5.8665691E-04   4.9410558E+04   -1.6433406E+00
   5.8936616E-04   4.9037905E+04   -1.6428698E+00
   5.9208791E-04   4.8668168E+04   -1.6423999E+00
   5.9482223E-04   4.8301322E+04   -1.6419310E+00
   5.9756919E-04   4.7937346E+04   -1.6414630E+00
   6.0032882E-04   4.7576215E+04   -1.6409959E+00
   6.0310120E-04   4.7217905E+04   -1.6405297E+00
   6.0588639E-04   4.6862395E+04   -1.6400645E+00
   6.0868443E-04   4.6509661E+04   -1.6396002E+00
   6.1149540E-04   4.6159681E+04   -1.6391369E+00
   6.1431935E-04   4.5812432E+04   -1.6386745E+00
   6.1715634E-04   4.5467892E+04   -1.6382130E+00
   6.2000644E-04   4.5126039E+04   -1.6377526E+00
   6.2286969E-04   4.4786852E+04   -1.6372930E+00
