#        a       HoverH0(a)       dlogHdloga_of_a(a)
   1.0000000E-04   1.1202415E+06   -1.8829790E+00
   1.0046181E-04   1.1105656E+06   -1.8825655E+00
   1.0092575E-04   1.1009754E+06   -1.8821510E+00
   1.0139184E-04   1.0914701E+06   -1.8817355E+00
   1.0186008E-04   1.0820490E+06   -1.8813189E+00
   1.0233048E-04   1.0727112E+06   -1.8809014E+00
   1.0280305E-04   1.0634561E+06   -1.8804828E+00
   1.0327781E-04   1.0542828E+06   -1.8800633E+00
   1.0375475E-04   1.0451907E+06   -1.8796427E+00
   1.0423390E-04   1.0361790E+06   -1.8792211E+00
   1.0471527E-04   1.0272470E+06   -1.8787985E+00
   1.0519885E-04   1.0183940E+06   -1.8783750E+00
   1.0568467E-04   1.0096193E+06   -1.8779504E+00
   1.0617274E-04   1.0009221E+06   -1.8775248E+00
   1.0666305E-04   9.9230179E+05   -1.8770982E+00
   1.0715563E-04   9.8375767E+05   -1.8766706E+00
   1.0765049E-04   9.7528903E+05   -1.8762420E+00
   1.0814763E-04   9.6689521E+05   -1.8758124E+00
   1.0864707E-04   9.5857553E+05   -1.8753818E+00
   1.0914881E-04   9.5032933E+05   -1.8749502E+00
   1.0965287E-04   9.4215593E+05   -1.8745177E+00
   1.1015926E-04   9.3405470E+05   -1.8740841E+00
   1.1066799E-04   9.2602498E+05   -1.8736495E+00
   1.1117906E-04   9.1806613E+05   -1.8732140E+00
   1.1169250E-04   9.1017750E+05   -1.8727774E+00
   1.1220831E-04   9.0235848E+05   -1.8723399E+00
   1.1272650E-04   8.9460844E+05   -1.8719014E+00
   1.1324708E-04   8.8692675E+05   -1.8714619E+00
   1.1377007E-04   8.7931281E+05   -1.8710214E+00
   1.1429547E-04   8.7176600E+05   -1.8705799E+00
   1.1482330E-04   8.6428572E+05   -1.8701374E+00
   1.1535356E-04   8.5687138E+05   -1.8696940E+00
   1.1588628E-04   8.4952238E+05   -1.8692496E+00
   1.1642145E-04   8.4223813E+05   -1.8688042E+00
   1.1695910E-04   8.3501806E+05   -1.8683578E+00
   1.1749923E-04   8.2786159E+05   -1.8679104E+00
   1.1804185E-04   8.2076814E+05   -1.8674621E+00
   1.1858698E-04   8.1373715E+05   -1.8670128E+00
   1.1913463E-04   8.0676807E+05   -1.8665625E+00
   1.1968481E-04   7.9986033E+05   -1.8661113E+00
   1.2023752E-04   7.9301339E+05   -1.8656591E+00
   1.2079279E-04   7.8622671E+05   -1.8652059E+00
   1.2135063E-04   7.7949973E+05   -1.8647518E+00
   1.2191104E-04   7.7283193E+05   -1.8642967E+00
   1.2247403E-04   7.6622277E+05   -1.8638407E+00
   1.2303963E-04   7.5967173E+05   -1.8633836E+00
   1.2360784E-04   7.5317829E+05   -1.8629257E+00
   1.2417868E-04   7.4674192E+05   -1.8624668E+00
   1.2475215E-04   7.4036213E+05   -1.8620069E+00
   1.2532826E-04   7.3403840E+05   -1.8615461E+00
   1.2590704E-04   7.2777023E+05   -1.8610843E+00
   1.2648850E-04   7.2155713E+05   -1.8606216E+00
   1.2707263E-04   7.1539859E+05   -1.8601579E+00
   1.2765947E-04   7.0929413E+05   -1.8596933E+00
   1.2824901E-04   7.0324327E+05   -1.8592278E+00
   1.2884128E-04   6.9724553E+05   -1.8587613E+00
   1.2943628E-04   6.9130042E+05   -1.8582939E+00
   1.3003403E-04   6.8540749E+05   -1.8578255E+00
   1.3063454E-04   6.7956625E+05   -1.8573562E+00
   1.3123783E-04   6.7377626E+05   -1.8568860E+00
   1.3184390E-04   6.6803704E+05   -1.8564149E+00
   1.3245277E-04   6.6234815E+05   -1.8559428E+00
   1.3306445E-04   6.5670914E+05   -1.8554698E+00
   1.3367895E-04   6.5111955E+05   -1.8549959E+00
   1.3429630E-04   6.4557896E+05   -1.8545211E+00
   1.3491649E-04   6.4008691E+05   -1.8540453E+00
   1.3553955E-04   6.3464297E+05   -1.8535687E+00
   1.3616548E-04   6.2924672E+05   -1.8530911E+00
   1.3679431E-04   6.2389773E+05   -1.8526126E+00
   1.3742604E-04   6.1859557E+05   -1.8521332E+00
   1.3806069E-04   6.1333983E+05   -1.8516529E+00
   1.3869827E-04   6.0813008E+05   -1.8511718E+00
   1.3933879E-04   6.0296593E+05   -1.8506897E+00
   1.3998227E-04   5.9784696E+05   -1.8502067E+00
   1.4062872E-04   5.9277277E+05   -1.8497228E+00
   1.4127816E-04   5.8774296E+05   -1.8492381E+00
   1.4193060E-04   5.8275713E+05   -1.8487524E+00
   1.4258605E-04   5.7781489E+05   -1.8482659E+00
   1.4324453E-04   5.7291584E+05   -1.8477784E+00
   1.4390605E-04   5.6805961E+05   -1.8472901E+00
   1.4457062E-04   5.6324582E+05   -1.8468010E+00
   1.4523826E-04   5.5847407E+05   -1.8463109E+00
   1.4590899E-04   5.5374401E+05   -1.8458200E+00
   1.4658281E-04   5.4905525E+05   -1.8453282E+00
   1.4725974E-04   5.4440742E+05   -1.8448356E+00
   1.4793981E-04   5.3980016E+05   -1.8443421E+00
   1.4862301E-04   5.3523312E+05   -1.8438477E+00
   1.4930936E-04   5.3070592E+05   -1.8433524E+00
   1.4999889E-04   5.2621822E+05   -1.8428564E+00
   1.5069160E-04   5.2176966E+05   -1.8423594E+00
   1.5138751E-04   5.1735989E+05   -1.8418617E+00
   1.5208663E-04   5.1298857E+05   -1.8413630E+00
   1.5278899E-04   5.0865535E+05   -1.8408636E+00
   1.5349458E-04   5.0435990E+05   -1.8403633E+00
   1.5420343E-04   5.0010188E+05   -1.8398621E+00
   1.5491556E-04   4.9588095E+05   -1.8393602E+00
   1.5563098E-04   4.9169678E+05   -1.8388574E+00
   1.5634970E-04   4.8754905E+05   -1.8383538E+00
   1.5707174E-04   4.8343743E+05   -1.8378493E+00
   1.5779711E-04   4.7936160E+05   -1.8373441E+00
   1.5852584E-04   4.7532124E+05   -1.8368380E+00
   1.5925792E-04   4.7131603E+05   -1.8363311E+00
   1.5999339E-04   4.6734567E+05   -1.8358234E+00
   1.6073226E-04   4.6340983E+05   -1.8353149E+00
   1.6147454E-04   4.5950822E+05   -1.8348056E+00
   1.6222024E-04   4.5564053E+05   -1.8342955E+00
   1.6296939E-04   4.5180646E+05   -1.8337847E+00
   1.6372200E-04   4.4800571E+05   -1.8332730E+00
   1.6447809E-04   4.4423797E+05   -1.8327605E+00
   1.6523767E-04   4.4050297E+05   -1.8322473E+00
   1.6600075E-04   4.3680040E+05   -1.8317333E+00
   1.6676736E-04   4.3312997E+05   -1.8312185E+00
   1.6753751E-04   4.2949141E+05   -1.8307029E+00
   1.6831122E-04   4.2588443E+05   -1.8301866E+00
   1.6908849E-04   4.2230875E+05   -1.8296695E+00
   1.6986936E-04   4.1876408E+05   -1.8291516E+00
   1.7065384E-04   4.1525016E+05   -1.8286330E+00
   1.7144193E-04   4.1176671E+05   -1.8281136E+00
   1.7223367E-04   4.0831346E+05   -1.8275935E+00
   1.7302906E-04   4.0489014E+05   -1.8270727E+00
   1.7382813E-04   4.0149649E+05   -1.8265511E+00
   1.7463089E-04   3.9813224E+05   -1.8260287E+00
   1.7543735E-04   3.9479713E+05   -1.8255057E+00
   1.7624754E-04   3.9149090E+05   -1.8249819E+00
   1.7706147E-04   3.8821330E+05   -1.8244573E+00
   1.7787916E-04   3.8496407E+05   -1.8239321E+00
   1.7870062E-04   3.8174295E+05   -1.8234061E+00
   1.7952588E-04   3.7854971E+05   -1.8228795E+00
   1.8035495E-04   3.7538409E+05   -1.8223521E+00
   1.8118785E-04   3.7224585E+05   -1.8218240E+00
   1.8202459E-04   3.6913474E+05   -1.8212952E+00
   1.8286520E-04   3.6605053E+05   -1.8207657E+00
   1.8370969E-04   3.6299297E+05   -1.8202356E+00
   1.8455808E-04   3.5996183E+05   -1.8197047E+00
   1.8541039E-04   3.5695688E+05   -1.8191732E+00
   1.8626663E-04   3.5397788E+05   -1.8186409E+00
   1.8712683E-04   3.5102460E+05   -1.8181080E+00
   1.8799100E-04   3.4809682E+05   -1.8175745E+00
   1.8885917E-04   3.4519431E+05   -1.8170403E+00
   1.8973134E-04   3.4231684E+05   -1.8165054E+00
   1.9060754E-04   3.3946419E+05   -1.8159698E+00
   1.9148778E-04   3.3663615E+05   -1.8154336E+00
   1.9237209E-04   3.3383249E+05   -1.8148968E+00
   1.9326049E-04   3.3105300E+05   -1.8143593E+00
   1.9415299E-04   3.2829747E+05   -1.8138212E+00
   1.9504960E-04   3.2556568E+05   -1.8132824E+00
   1.9595036E-04   3.2285742E+05   -1.8127430E+00
   1.9685528E-04   3.2017249E+05   -1.8122030E+00
   1.9776438E-04   3.1751068E+05   -1.8116624E+00
   1.9867768E-04   3.1487178E+05   -1.8111211E+00
   1.9959519E-04   3.1225560E+05   -1.8105793E+00
   2.0051694E-04   3.0966192E+05   -1.8100368E+00
   2.0144295E-04   3.0709056E+05   -1.8094937E+00
   2.0237324E-04   3.0454131E+05   -1.8089501E+00
   2.0330782E-04   3.0201398E+05   -1.8084058E+00
   2.0424671E-04   2.9950837E+05   -1.8078610E+00
   2.0518995E-04   2.9702430E+05   -1.8073156E+00
   2.0613754E-04   2.9456157E+05   -1.8067696E+00
   2.0708950E-04   2.9212000E+05   -1.8062230E+00
   2.0804586E-04   2.8969939E+05   -1.8056759E+00
   2.0900664E-04   2.8729957E+05   -1.8051282E+00
   2.0997185E-04   2.8492034E+05   -1.8045799E+00
   2.1094152E-04   2.8256154E+05   -1.8040311E+00
   2.1191567E-04   2.8022297E+05   -1.8034818E+00
   2.1289432E-04   2.7790445E+05   -1.8029319E+00
   2.1387749E-04   2.7560582E+05   -1.8023814E+00
   2.1486520E-04   2.7332690E+05   -1.8018305E+00
   2.1585747E-04   2.7106751E+05   -1.8012790E+00
   2.1685432E-04   2.6882748E+05   -1.8007270E+00
   2.1785578E-04   2.6660663E+05   -1.8001744E+00
   2.1886186E-04   2.6440481E+05   -1.7996214E+00
   2.1987259E-04   2.6222184E+05   -1.7990678E+00
   2.2088798E-04   2.6005756E+05   -1.7985138E+00
   2.2190807E-04   2.5791180E+05   -1.7979592E+00
   2.2293286E-04   2.5578440E+05   -1.7974042E+00
   2.2396239E-04   2.5367519E+05   -1.7968487E+00
   2.2499667E-04   2.5158403E+05   -1.7962927E+00
   2.2603573E-04   2.4951073E+05   -1.7957362E+00
   2.2707958E-04   2.4745517E+05   -1.7951793E+00
   2.2812826E-04   2.4541716E+05   -1.7946218E+00
   2.2918178E-04   2.4339657E+05   -1.7940640E+00
   2.3024017E-04   2.4139323E+05   -1.7935057E+00
   2.3130344E-04   2.3940699E+05   -1.7929469E+00
   2.3237162E-04   2.3743771E+05   -1.7923877E+00
   2.3344474E-04   2.3548524E+05   -1.7918280E+00
   2.3452281E-04   2.3354943E+05   -1.7912679E+00
   2.3560586E-04   2.3163012E+05   -1.7907074E+00
   2.3669392E-04   2.2972719E+05   -1.7901465E+00
   2.3778699E-04   2.2784047E+05   -1.7895851E+00
   2.3888512E-04   2.2596984E+05   -1.7890234E+00
   2.3998831E-04   2.2411514E+05   -1.7884612E+00
   2.4109661E-04   2.2227625E+05   -1.7878987E+00
   2.4221001E-04   2.2045301E+05   -1.7873357E+00
   2.4332857E-04   2.1864529E+05   -1.7867724E+00
   2.4445228E-04   2.1685296E+05   -1.7862086E+00
   2.4558119E-04   2.1507589E+05   -1.7856445E+00
   2.4671531E-04   2.1331393E+05   -1.7850801E+00
   2.4785467E-04   2.1156695E+05   -1.7845152E+00
   2.4899928E-04   2.0983483E+05   -1.7839500E+00
   2.5014919E-04   2.0811743E+05   -1.7833845E+00
   2.5130440E-04   2.0641463E+05   -1.7828186E+00
   2.5246495E-04   2.0472629E+05   -1.7822523E+00
   2.5363086E-04   2.0305229E+05   -1.7816857E+00
   2.5480216E-04   2.0139251E+05   -1.7811188E+00
   2.5597886E-04   1.9974681E+05   -1.7805516E+00
   2.5716100E-04   1.9811509E+05   -1.7799840E+00
   2.5834859E-04   1.9649720E+05   -1.7794162E+00
   2.5954168E-04   1.9489304E+05   -1.7788480E+00
   2.6074027E-04   1.9330247E+05   -1.7782795E+00
   2.6194439E-04   1.9172540E+05   -1.7777107E+00
   2.6315408E-04   1.9016168E+05   -1.7771416E+00
   2.6436935E-04   1.8861122E+05   -1.7765723E+00
   2.6559024E-04   1.8707389E+05   -1.7760027E+00
   2.6681676E-04   1.8554957E+05   -1.7754327E+00
   2.6804895E-04   1.8403816E+05   -1.7748626E+00
   2.6928683E-04   1.8253954E+05   -1.7742921E+00
   2.7053042E-04   1.8105360E+05   -1.7737214E+00
   2.7177976E-04   1.7958023E+05   -1.7731505E+00
   2.7303487E-04   1.7811932E+05   -1.7725793E+00
   2.7429577E-04   1.7667075E+05   -1.7720079E+00
   2.7556250E-04   1.7523443E+05   -1.7714362E+00
   2.7683507E-04   1.7381024E+05   -1.7708643E+00
   2.7811353E-04   1.7239809E+05   -1.7702922E+00
   2.7939788E-04   1.7099785E+05   -1.7697199E+00
   2.8068817E-04   1.6960944E+05   -1.7691474E+00
   2.8198442E-04   1.6823274E+05   -1.7685746E+00
   2.8328665E-04   1.6686766E+05   -1.7680017E+00
   2.8459490E-04   1.6551410E+05   -1.7674286E+00
   2.8590919E-04   1.6417194E+05   -1.7668553E+00
   2.8722955E-04   1.6284110E+05   -1.7662818E+00
   2.8855600E-04   1.6152147E+05   -1.7657081E+00
   2.8988859E-04   1.6021297E+05   -1.7651343E+00
   2.9122732E-04   1.5891548E+05   -1.7645603E+00
   2.9257224E-04   1.5762892E+05   -1.7639862E+00
   2.9392337E-04   1.5635318E+05   -1.7634119E+00
   2.9528074E-04   1.5508818E+05   -1.7628375E+00
   2.9664438E-04   1.5383383E+05   -1.7622629E+00
   2.9801431E-04   1.5259002E+05   -1.7616882E+00
   2.9939057E-04   1.5135667E+05   -1.7611134E+00
   3.0077319E-04   1.5013369E+05   -1.7605385E+00
   3.0216219E-04   1.4892098E+05   -1.7599634E+00
   3.0355761E-04   1.4771846E+05   -1.7593883E+00
   3.0495947E-04   1.4652604E+05   -1.7588130E+00
   3.0636780E-04   1.4534363E+05   -1.7582377E+00
   3.0778264E-04   1.4417115E+05   -1.7576622E+00
   3.0920401E-04   1.4300850E+05   -1.7570867E+00
   3.1063195E-04   1.4185560E+05   -1.7565111E+00
   3.1206648E-04   1.4071237E+05   -1.7559354E+00
   3.1350764E-04   1.3957873E+05   -1.7553597E+00
   3.1495545E-04   1.3845458E+05   -1.7547839E+00
   3.1640994E-04   1.3733986E+05   -1.7542081E+00
   3.1787116E-04   1.3623447E+05   -1.7536322E+00
   3.1933912E-04   1.3513833E+05   -1.7530563E+00
   3.2081386E-04   1.3405137E+05   -1.7524803E+00
   3.2229541E-04   1.3297351E+05   -1.7519043E+00
   3.2378381E-04   1.3190466E+05   -1.7513283E+00
   3.2527908E-04   1.3084475E+05   -1.7507523E+00
   3.2678125E-04   1.2979370E+05   -1.7501763E+00
   3.2829036E-04   1.2875144E+05   -1.7496003E+00
   3.2980644E-04   1.2771789E+05   -1.7490242E+00
   3.3132952E-04   1.2669297E+05   -1.7484482E+00
   3.3285963E-04   1.2567660E+05   -1.7478722E+00
   3.3439681E-04   1.2466872E+05   -1.7472962E+00
   3.3594109E-04   1.2366926E+05   -1.7467203E+00
   3.3749250E-04   1.2267813E+05   -1.7461444E+00
   3.3905108E-04   1.2169526E+05   -1.7455685E+00
   3.4061685E-04   1.2072060E+05   -1.7449927E+00
   3.4218986E-04   1.1975405E+05   -1.7444169E+00
   3.4377013E-04   1.1879556E+05   -1.7438412E+00
   3.4535769E-04   1.1784506E+05   -1.7432655E+00
   3.4695259E-04   1.1690246E+05   -1.7426899E+00
   3.4855485E-04   1.1596772E+05   -1.7421144E+00
   3.5016452E-04   1.1504075E+05   -1.7415390E+00
   3.5178161E-04   1.1412150E+05   -1.7409637E+00
   3.5340618E-04   1.1320989E+05   -1.7403884E+00
   3.5503824E-04   1.1230587E+05   -1.7398133E+00
   3.5667785E-04   1.1140935E+05   -1.7392382E+00
   3.5832502E-04   1.1052029E+05   -1.7386633E+00
   3.5997981E-04   1.0963861E+05   -1.7380885E+00
   3.6164223E-04   1.0876425E+05   -1.7375139E+00
   3.6331233E-04   1.0789715E+05   -1.7369393E+00
   3.6499015E-04   1.0703725E+05   -1.7363649E+00
   3.6667571E-04   1.0618448E+05   -1.7357906E+00
   3.6836906E-04   1.0533879E+05   -1.7352165E+00
   3.7007022E-04   1.0450010E+05   -1.7346426E+00
   3.7177925E-04   1.0366837E+05   -1.7340688E+00
   3.7349616E-04   1.0284353E+05   -1.7334952E+00
   3.7522101E-04   1.0202552E+05   -1.7329217E+00
   3.7695382E-04   1.0121428E+05   -1.7323484E+00
   3.7869463E-04   1.0040977E+05   -1.7317753E+00
   3.8044348E-04   9.9611905E+04   -1.7312024E+00
   3.8220041E-04   9.8820645E+04   -1.7306298E+00
   3.8396545E-04   9.8035928E+04   -1.7300573E+00
   3.8573864E-04   9.7257699E+04   -1.7294850E+00
   3.8752002E-04   9.6485903E+04   -1.7289129E+00
   3.8930963E-04   9.5720483E+04   -1.7283411E+00
   3.9110750E-04   9.4961385E+04   -1.7277694E+00
   3.9291368E-04   9.4208556E+04   -1.7271980E+00
   3.9472820E-04   9.3461940E+04   -1.7266269E+00
   3.9655109E-04   9.2721486E+04   -1.7260560E+00
   3.9838241E-04   9.1987139E+04   -1.7254853E+00
   4.0022218E-04   9.1258849E+04   -1.7249149E+00
   4.0207045E-04   9.0536563E+04   -1.7243448E+00
   4.0392725E-04   8.9820229E+04   -1.7237750E+00
   4.0579263E-04   8.9109797E+04   -1.7232054E+00
   4.0766662E-04   8.8405216E+04   -1.7226361E+00
   4.0954927E-04   8.7706436E+04   -1.7220670E+00
   4.1144061E-04   8.7013407E+04   -1.7214983E+00
   4.1334068E-04   8.6326081E+04   -1.7209299E+00
   4.1524953E-04   8.5644408E+04   -1.7203617E+00
   4.1716720E-04   8.4968340E+04   -1.7197939E+00
   4.1909372E-04   8.4297830E+04   -1.7192264E+00
   4.2102914E-04   8.3632829E+04   -1.7186592E+00
   4.2297350E-04   8.2973291E+04   -1.7180924E+00
   4.2492683E-04   8.2319169E+04   -1.7175258E+00
   4.2688919E-04   8.1670418E+04   -1.7169597E+00
   4.2886061E-04   8.1026990E+04   -1.7163938E+00
   4.3084113E-04   8.0388841E+04   -1.7158283E+00
   4.3283080E-04   7.9755926E+04   -1.7152632E+00
   4.3482966E-04   7.9128199E+04   -1.7146984E+00
   4.3683775E-04   7.8505618E+04   -1.7141340E+00
   4.3885511E-04   7.7888137E+04   -1.7135700E+00
   4.4088179E-04   7.7275714E+04   -1.7130063E+00
   4.4291783E-04   7.6668305E+04   -1.7124430E+00
   4.4496327E-04   7.6065868E+04   -1.7118801E+00
   4.4701816E-04   7.5468361E+04   -1.7113176E+00
   4.4908253E-04   7.4875741E+04   -1.7107555E+00
   4.5115644E-04   7.4287967E+04   -1.7101938E+00
   4.5323993E-04   7.3704997E+04   -1.7096326E+00
   4.5533304E-04   7.3126792E+04   -1.7090717E+00
   4.5743582E-04   7.2553310E+04   -1.7085113E+00
   4.5954830E-04   7.1984511E+04   -1.7079512E+00
   4.6167054E-04   7.1420355E+04   -1.7073917E+00
   4.6380259E-04   7.0860804E+04   -1.7068325E+00
   4.6594448E-04   7.0305817E+04   -1.7062738E+00
   4.6809626E-04   6.9755357E+04   -1.7057156E+00
   4.7025797E-04   6.9209384E+04   -1.7051578E+00
   4.7242967E-04   6.8667861E+04   -1.7046004E+00
   4.7461140E-04   6.8130750E+04   -1.7040436E+00
   4.7680321E-04   6.7598014E+04   -1.7034872E+00
   4.7900514E-04   6.7069615E+04   -1.7029312E+00
   4.8121723E-04   6.6545517E+04   -1.7023758E+00
   4.8343954E-04   6.6025683E+04   -1.7018208E+00
   4.8567212E-04   6.5510078E+04   -1.7012664E+00
   4.8791500E-04   6.4998665E+04   -1.7007124E+00
   4.9016825E-04   6.4491409E+04   -1.7001589E+00
   4.9243189E-04   6.3988274E+04   -1.6996060E+00
   4.9470600E-04   6.3489227E+04   -1.6990535E+00
   4.9699060E-04   6.2994232E+04   -1.6985016E+00
   4.9928575E-04   6.2503255E+04   -1.6979502E+00
   5.0159151E-04   6.2016262E+04   -1.6973993E+00
   5.0390791E-04   6.1533219E+04   -1.6968490E+00
   5.0623501E-04   6.1054094E+04   -1.6962992E+00
   5.0857286E-04   6.0578853E+04   -1.6957499E+00
   5.1092150E-04   6.0107463E+04   -1.6952012E+00
   5.1328099E-04   5.9639892E+04   -1.6946530E+00
   5.1565137E-04   5.9176108E+04   -1.6941054E+00
   5.1803270E-04   5.8716078E+04   -1.6935583E+00
   5.2042503E-04   5.8259771E+04   -1.6930119E+00
   5.2282841E-04   5.7807156E+04   -1.6924660E+00
   5.2524289E-04   5.7358201E+04   -1.6919206E+00
   5.2766851E-04   5.6912876E+04   -1.6913759E+00
   5.3010534E-04   5.6471150E+04   -1.6908317E+00
   5.3255342E-04   5.6032993E+04   -1.6902882E+00
   5.3501281E-04   5.5598375E+04   -1.6897452E+00
   5.3748356E-04   5.5167266E+04   -1.6892028E+00
   5.3996571E-04   5.4739636E+04   -1.6886611E+00
   5.4245933E-04   5.4315457E+04   -1.6881199E+00
   5.4496446E-04   5.3894699E+04   -1.6875794E+00
   5.4748117E-04   5.3477333E+04   -1.6870394E+00
   5.5000949E-04   5.3063332E+04   -1.6865002E+00
   5.5254949E-04   5.2652666E+04   -1.6859615E+00
   5.5510123E-04   5.2245308E+04   -1.6854235E+00
   5.5766474E-04   5.1841230E+04   -1.6848861E+00
   5.6024010E-04   5.1440405E+04   -1.6843493E+00
   5.6282734E-04   5.1042805E+04   -1.6838132E+00
   5.6542654E-04   5.0648403E+04   -1.6832778E+00
   5.6803774E-04   5.0257173E+04   -1.6827430E+00
   5.7066099E-04   4.9869087E+04   -1.6822089E+00
   5.7329637E-04   4.9484120E+04   -1.6816754E+00
   5.7594391E-04   4.9102245E+04   -1.6811426E+00
   5.7860368E-04   4.8723437E+04   -1.6806105E+00
   5.8127573E-04   4.8347670E+04   -1.6800790E+00
   5.8396012E-04   4.7974918E+04   -1.6795483E+00
   5.8665691E-04   4.7605156E+04   -1.6790182E+00
   5.8936616E-04   4.7238359E+04   -1.6784888E+00
   5.9208791E-04   4.6874503E+04   -1.6779602E+00
   5.9482223E-04   4.6513563E+04   -1.6774322E+00
   5.9756919E-04   4.6155514E+04   -1.6769049E+00
   6.0032882E-04   4.5800332E+04   -1.6763783E+00
   6.0310120E-04   4.5447994E+04   -1.6758525E+00
   6.0588639E-04   4.5098476E+04   -1.6753273E+00
   6.0868443E-04   4.4751754E+04   -1.6748029E+00
   6.1149540E-04   4.4407804E+04   -1.6742792E+00
   6.1431935E-04   4.4066605E+04   -1.6737563E+00
   6.1715634E-04   4.3728132E+04   -1.6732340E+00
   6.2000644E-04   4.3392364E+04   -1.6727125E+00
   6.2286969E-04   4.3059277E+04   -1.6721918E+00
