#        a       HoverH0(a)       dlogHdloga_of_a(a)
   1.0000000E-04   1.1608079E+06   -1.8874273E+00
   1.0046181E-04   1.1507580E+06   -1.8870249E+00
   1.0092575E-04   1.1407973E+06   -1.8866214E+00
   1.0139184E-04   1.1309248E+06   -1.8862170E+00
   1.0186008E-04   1.1211400E+06   -1.8858115E+00
   1.0233048E-04   1.1114418E+06   -1.8854050E+00
   1.0280305E-04   1.1018296E+06   -1.8849975E+00
   1.0327781E-04   1.0923026E+06   -1.8845890E+00
   1.0375475E-04   1.0828600E+06   -1.8841795E+00
   1.0423390E-04   1.0735011E+06   -1.8837689E+00
   1.0471527E-04   1.0642250E+06   -1.8833573E+00
   1.0519885E-04   1.0550311E+06   -1.8829448E+00
   1.0568467E-04   1.0459187E+06   -1.8825312E+00
   1.0617274E-04   1.0368869E+06   -1.8821166E+00
   1.0666305E-04   1.0279351E+06   -1.8817010E+00
   1.0715563E-04   1.0190625E+06   -1.8812844E+00
   1.0765049E-04   1.0102684E+06   -1.8808667E+00
   1.0814763E-04   1.0015522E+06   -1.8804481E+00
   1.0864707E-04   9.9291308E+05   -1.8800284E+00
   1.0914881E-04   9.8435039E+05   -1.8796078E+00
   1.0965287E-04   9.7586343E+05   -1.8791861E+00
   1.1015926E-04   9.6745152E+05   -1.8787635E+00
   1.1066799E-04   9.5911400E+05   -1.8783398E+00
   1.1117906E-04   9.5085019E+05   -1.8779151E+00
   1.1169250E-04   9.4265942E+05   -1.8774894E+00
   1.1220831E-04   9.3454105E+05   -1.8770628E+00
   1.1272650E-04   9.2649441E+05   -1.8766351E+00
   1.1324708E-04   9.1851887E+05   -1.8762064E+00
   1.1377007E-04   9.1061380E+05   -1.8757767E+00
   1.1429547E-04   9.0277854E+05   -1.8753461E+00
   1.1482330E-04   8.9501248E+05   -1.8749144E+00
   1.1535356E-04   8.8731499E+05   -1.8744817E+00
   1.1588628E-04   8.7968546E+05   -1.8740481E+00
   1.1642145E-04   8.7212328E+05   -1.8736134E+00
   1.1695910E-04   8.6462783E+05   -1.8731778E+00
   1.1749923E-04   8.5719853E+05   -1.8727412E+00
   1.1804185E-04   8.4983478E+05   -1.8723035E+00
   1.1858698E-04   8.4253598E+05   -1.8718649E+00
   1.1913463E-04   8.3530157E+05   -1.8714253E+00
   1.1968481E-04   8.2813094E+05   -1.8709848E+00
   1.2023752E-04   8.2102355E+05   -1.8705432E+00
   1.2079279E-04   8.1397881E+05   -1.8701007E+00
   1.2135063E-04   8.0699616E+05   -1.8696571E+00
   1.2191104E-04   8.0007505E+05   -1.8692126E+00
   1.2247403E-04   7.9321493E+05   -1.8687671E+00
   1.2303963E-04   7.8641524E+05   -1.8683207E+00
   1.2360784E-04   7.7967545E+05   -1.8678732E+00
   1.2417868E-04   7.7299502E+05   -1.8674248E+00
   1.2475215E-04   7.6637340E+05   -1.8669755E+00
   1.2532826E-04   7.5981009E+05   -1.8665251E+00
   1.2590704E-04   7.5330455E+05   -1.8660738E+00
   1.2648850E-04   7.4685626E+05   -1.8656215E+00
   1.2707263E-04   7.4046472E+05   -1.8651683E+00
   1.2765947E-04   7.3412941E+05   -1.8647140E+00
   1.2824901E-04   7.2784983E+05   -1.8642589E+00
   1.2884128E-04   7.2162548E+05   -1.8638027E+00
   1.2943628E-04   7.1545586E+05   -1.8633456E+00
   1.3003403E-04   7.0934049E+05   -1.8628876E+00
   1.3063454E-04   7.0327887E+05   -1.8624286E+00
   1.3123783E-04   6.9727053E+05   -1.8619686E+00
   1.3184390E-04   6.9131498E+05   -1.8615077E+00
   1.3245277E-04   6.8541176E+05   -1.8610459E+00
   1.3306445E-04   6.7956040E+05   -1.8605831E+00
   1.3367895E-04   6.7376042E+05   -1.8601193E+00
   1.3429630E-04   6.6801138E+05   -1.8596547E+00
   1.3491649E-04   6.6231281E+05   -1.8591890E+00
   1.3553955E-04   6.5666427E+05   -1.8587225E+00
   1.3616548E-04   6.5106530E+05   -1.8582550E+00
   1.3679431E-04   6.4551546E+05   -1.8577865E+00
   1.3742604E-04   6.4001431E+05   -1.8573172E+00
   1.3806069E-04   6.3456142E+05   -1.8568469E+00
   1.3869827E-04   6.2915635E+05   -1.8563757E+00
   1.3933879E-04   6.2379868E+05   -1.8559035E+00
   1.3998227E-04   6.1848797E+05   -1.8554304E+00
   1.4062872E-04   6.1322382E+05   -1.8549565E+00
   1.4127816E-04   6.0800580E+05   -1.8544815E+00
   1.4193060E-04   6.0283350E+05   -1.8540057E+00
   1.4258605E-04   5.9770651E+05   -1.8535290E+00
   1.4324453E-04   5.9262443E+05   -1.8530513E+00
   1.4390605E-04   5.8758686E+05   -1.8525728E+00
   1.4457062E-04   5.8259339E+05   -1.8520933E+00
   1.4523826E-04   5.7764364E+05   -1.8516130E+00
   1.4590899E-04   5.7273721E+05   -1.8511317E+00
   1.4658281E-04   5.6787372E+05   -1.8506495E+00
   1.4725974E-04   5.6305277E+05   -1.8501665E+00
   1.4793981E-04   5.5827400E+05   -1.8496825E+00
   1.4862301E-04   5.5353702E+05   -1.8491977E+00
   1.4930936E-04   5.4884146E+05   -1.8487120E+00
   1.4999889E-04   5.4418695E+05   -1.8482253E+00
   1.5069160E-04   5.3957313E+05   -1.8477378E+00
   1.5138751E-04   5.3499962E+05   -1.8472495E+00
   1.5208663E-04   5.3046608E+05   -1.8467602E+00
   1.5278899E-04   5.2597214E+05   -1.8462701E+00
   1.5349458E-04   5.2151745E+05   -1.8457791E+00
   1.5420343E-04   5.1710166E+05   -1.8452872E+00
   1.5491556E-04   5.1272442E+05   -1.8447945E+00
   1.5563098E-04   5.0838539E+05   -1.8443009E+00
   1.5634970E-04   5.0408423E+05   -1.8438065E+00
   1.5707174E-04   4.9982060E+05   -1.8433112E+00
   1.5779711E-04   4.9559416E+05   -1.8428150E+00
   1.5852584E-04   4.9140458E+05   -1.8423180E+00
   1.5925792E-04   4.8725154E+05   -1.8418202E+00
   1.5999339E-04   4.8313471E+05   -1.8413215E+00
   1.6073226E-04   4.7905376E+05   -1.8408219E+00
   1.6147454E-04   4.7500837E+05   -1.8403215E+00
   1.6222024E-04   4.7099824E+05   -1.8398203E+00
   1.6296939E-04   4.6702303E+05   -1.8393183E+00
   1.6372200E-04   4.6308246E+05   -1.8388154E+00
   1.6447809E-04   4.5917619E+05   -1.8383117E+00
   1.6523767E-04   4.5530394E+05   -1.8378072E+00
   1.6600075E-04   4.5146538E+05   -1.8373019E+00
   1.6676736E-04   4.4766024E+05   -1.8367958E+00
   1.6753751E-04   4.4388820E+05   -1.8362888E+00
   1.6831122E-04   4.4014897E+05   -1.8357811E+00
   1.6908849E-04   4.3644227E+05   -1.8352725E+00
   1.6986936E-04   4.3276779E+05   -1.8347631E+00
   1.7065384E-04   4.2912526E+05   -1.8342530E+00
   1.7144193E-04   4.2551439E+05   -1.8337420E+00
   1.7223367E-04   4.2193489E+05   -1.8332303E+00
   1.7302906E-04   4.1838650E+05   -1.8327178E+00
   1.7382813E-04   4.1486892E+05   -1.8322044E+00
   1.7463089E-04   4.1138190E+05   -1.8316904E+00
   1.7543735E-04   4.0792515E+05   -1.8311755E+00
   1.7624754E-04   4.0449840E+05   -1.8306599E+00
   1.7706147E-04   4.0110140E+05   -1.8301435E+00
   1.7787916E-04   3.9773387E+05   -1.8296263E+00
   1.7870062E-04   3.9439555E+05   -1.8291084E+00
   1.7952588E-04   3.9108619E+05   -1.8285897E+00
   1.8035495E-04   3.8780553E+05   -1.8280703E+00
   1.8118785E-04   3.8455330E+05   -1.8275501E+00
   1.8202459E-04   3.8132926E+05   -1.8270291E+00
   1.8286520E-04   3.7813317E+05   -1.8265075E+00
   1.8370969E-04   3.7496476E+05   -1.8259851E+00
   1.8455808E-04   3.7182379E+05   -1.8254619E+00
   1.8541039E-04   3.6871003E+05   -1.8249381E+00
   1.8626663E-04   3.6562323E+05   -1.8244135E+00
   1.8712683E-04   3.6256314E+05   -1.8238882E+00
   1.8799100E-04   3.5952954E+05   -1.8233622E+00
   1.8885917E-04   3.5652218E+05   -1.8228354E+00
   1.8973134E-04   3.5354084E+05   -1.8223080E+00
   1.9060754E-04   3.5058528E+05   -1.8217798E+00
   1.9148778E-04   3.4765527E+05   -1.8212510E+00
   1.9237209E-04   3.4475060E+05   -1.8207214E+00
   1.9326049E-04   3.4187102E+05   -1.8201912E+00
   1.9415299E-04   3.3901633E+05   -1.8196603E+00
   1.9504960E-04   3.3618630E+05   -1.8191287E+00
   1.9595036E-04   3.3338071E+05   -1.8185964E+00
   1.9685528E-04   3.3059934E+05   -1.8180635E+00
   1.9776438E-04   3.2784199E+05   -1.8175298E+00
   1.9867768E-04   3.2510843E+05   -1.8169955E+00
   1.9959519E-04   3.2239846E+05   -1.8164606E+00
   2.0051694E-04   3.1971187E+05   -1.8159250E+00
   2.0144295E-04   3.1704844E+05   -1.8153887E+00
   2.0237324E-04   3.1440799E+05   -1.8148518E+00
   2.0330782E-04   3.1179029E+05   -1.8143143E+00
   2.0424671E-04   3.0919516E+05   -1.8137761E+00
   2.0518995E-04   3.0662238E+05   -1.8132373E+00
   2.0613754E-04   3.0407177E+05   -1.8126978E+00
   2.0708950E-04   3.0154313E+05   -1.8121578E+00
   2.0804586E-04   2.9903626E+05   -1.8116171E+00
   2.0900664E-04   2.9655097E+05   -1.8110758E+00
   2.0997185E-04   2.9408706E+05   -1.8105339E+00
   2.1094152E-04   2.9164436E+05   -1.8099914E+00
   2.1191567E-04   2.8922267E+05   -1.8094482E+00
   2.1289432E-04   2.8682181E+05   -1.8089045E+00
   2.1387749E-04   2.8444159E+05   -1.8083602E+00
   2.1486520E-04   2.8208183E+05   -1.8078153E+00
   2.1585747E-04   2.7974235E+05   -1.8072698E+00
   2.1685432E-04   2.7742297E+05   -1.8067238E+00
   2.1785578E-04   2.7512351E+05   -1.8061772E+00
   2.1886186E-04   2.7284380E+05   -1.8056300E+00
   2.1987259E-04   2.7058367E+05   -1.8050822E+00
   2.2088798E-04   2.6834293E+05   -1.8045339E+00
   2.2190807E-04   2.6612142E+05   -1.8039851E+00
   2.2293286E-04   2.6391897E+05   -1.8034357E+00
   2.2396239E-04   2.6173541E+05   -1.8028857E+00
   2.2499667E-04   2.5957057E+05   -1.8023352E+00
   2.2603573E-04   2.5742430E+05   -1.8017842E+00
   2.2707958E-04   2.5529641E+05   -1.8012327E+00
   2.2812826E-04   2.5318676E+05   -1.8006806E+00
   2.2918178E-04   2.5109519E+05   -1.8001280E+00
   2.3024017E-04   2.4902152E+05   -1.7995750E+00
   2.3130344E-04   2.4696561E+05   -1.7990214E+00
   2.3237162E-04   2.4492730E+05   -1.7984673E+00
   2.3344474E-04   2.4290643E+05   -1.7979127E+00
   2.3452281E-04   2.4090286E+05   -1.7973576E+00
   2.3560586E-04   2.3891642E+05   -1.7968020E+00
   2.3669392E-04   2.3694696E+05   -1.7962460E+00
   2.3778699E-04   2.3499435E+05   -1.7956894E+00
   2.3888512E-04   2.3305842E+05   -1.7951325E+00
   2.3998831E-04   2.3113903E+05   -1.7945750E+00
   2.4109661E-04   2.2923605E+05   -1.7940171E+00
   2.4221001E-04   2.2734931E+05   -1.7934587E+00
   2.4332857E-04   2.2547868E+05   -1.7928999E+00
   2.4445228E-04   2.2362402E+05   -1.7923406E+00
   2.4558119E-04   2.2178519E+05   -1.7917809E+00
   2.4671531E-04   2.1996204E+05   -1.7912208E+00
   2.4785467E-04   2.1815445E+05   -1.7906603E+00
   2.4899928E-04   2.1636226E+05   -1.7900993E+00
   2.5014919E-04   2.1458536E+05   -1.7895379E+00
   2.5130440E-04   2.1282360E+05   -1.7889761E+00
   2.5246495E-04   2.1107685E+05   -1.7884139E+00
   2.5363086E-04   2.0934498E+05   -1.7878513E+00
   2.5480216E-04   2.0762786E+05   -1.7872883E+00
   2.5597886E-04   2.0592535E+05   -1.7867249E+00
   2.5716100E-04   2.0423734E+05   -1.7861612E+00
   2.5834859E-04   2.0256369E+05   -1.7855970E+00
   2.5954168E-04   2.0090428E+05   -1.7850325E+00
   2.6074027E-04   1.9925898E+05   -1.7844676E+00
   2.6194439E-04   1.9762767E+05   -1.7839024E+00
   2.6315408E-04   1.9601022E+05   -1.7833368E+00
   2.6436935E-04   1.9440652E+05   -1.7827709E+00
   2.6559024E-04   1.9281645E+05   -1.7822046E+00
   2.6681676E-04   1.9123987E+05   -1.7816380E+00
   2.6804895E-04   1.8967669E+05   -1.7810710E+00
   2.6928683E-04   1.8812677E+05   -1.7805038E+00
   2.7053042E-04   1.8659001E+05   -1.7799362E+00
   2.7177976E-04   1.8506628E+05   -1.7793683E+00
   2.7303487E-04   1.8355548E+05   -1.7788001E+00
   2.7429577E-04   1.8205748E+05   -1.7782315E+00
   2.7556250E-04   1.8057219E+05   -1.7776627E+00
   2.7683507E-04   1.7909948E+05   -1.7770936E+00
   2.7811353E-04   1.7763925E+05   -1.7765242E+00
   2.7939788E-04   1.7619139E+05   -1.7759546E+00
   2.8068817E-04   1.7475578E+05   -1.7753846E+00
   2.8198442E-04   1.7333233E+05   -1.7748144E+00
   2.8328665E-04   1.7192093E+05   -1.7742440E+00
   2.8459490E-04   1.7052147E+05   -1.7736732E+00
   2.8590919E-04   1.6913384E+05   -1.7731023E+00
   2.8722955E-04   1.6775795E+05   -1.7725310E+00
   2.8855600E-04   1.6639368E+05   -1.7719596E+00
   2.8988859E-04   1.6504095E+05   -1.7713879E+00
   2.9122732E-04   1.6369965E+05   -1.7708160E+00
   2.9257224E-04   1.6236967E+05   -1.7702439E+00
   2.9392337E-04   1.6105093E+05   -1.7696715E+00
   2.9528074E-04   1.5974331E+05   -1.7690990E+00
   2.9664438E-04   1.5844673E+05   -1.7685262E+00
   2.9801431E-04   1.5716109E+05   -1.7679532E+00
   2.9939057E-04   1.5588630E+05   -1.7673801E+00
   3.0077319E-04   1.5462225E+05   -1.7668068E+00
   3.0216219E-04   1.5336886E+05   -1.7662333E+00
   3.0355761E-04   1.5212603E+05   -1.7656596E+00
   3.0495947E-04   1.5089366E+05   -1.7650857E+00
   3.0636780E-04   1.4967168E+05   -1.7645117E+00
   3.0778264E-04   1.4845999E+05   -1.7639376E+00
   3.0920401E-04   1.4725850E+05   -1.7633633E+00
   3.1063195E-04   1.4606711E+05   -1.7627888E+00
   3.1206648E-04   1.4488575E+05   -1.7622142E+00
   3.1350764E-04   1.4371433E+05   -1.7616395E+00
   3.1495545E-04   1.4255275E+05   -1.7610647E+00
   3.1640994E-04   1.4140093E+05   -1.7604897E+00
   3.1787116E-04   1.4025880E+05   -1.7599147E+00
   3.1933912E-04   1.3912626E+05   -1.7593395E+00
   3.2081386E-04   1.3800323E+05   -1.7587642E+00
   3.2229541E-04   1.3688962E+05   -1.7581888E+00
   3.2378381E-04   1.3578537E+05   -1.7576134E+00
   3.2527908E-04   1.3469037E+05   -1.7570379E+00
   3.2678125E-04   1.3360457E+05   -1.7564622E+00
   3.2829036E-04   1.3252786E+05   -1.7558866E+00
   3.2980644E-04   1.3146018E+05   -1.7553108E+00
   3.3132952E-04   1.3040145E+05   -1.7547350E+00
   3.3285963E-04   1.2935159E+05   -1.7541592E+00
   3.3439681E-04   1.2831053E+05   -1.7535833E+00
   3.3594109E-04   1.2727818E+05   -1.7530073E+00
   3.3749250E-04   1.2625447E+05   -1.7524314E+00
   3.3905108E-04   1.2523932E+05   -1.7518554E+00
   3.4061685E-04   1.2423267E+05   -1.7512793E+00
   3.4218986E-04   1.2323444E+05   -1.7507033E+00
   3.4377013E-04   1.2224455E+05   -1.7501273E+00
   3.4535769E-04   1.2126294E+05   -1.7495512E+00
   3.4695259E-04   1.2028952E+05   -1.7489752E+00
   3.4855485E-04   1.1932424E+05   -1.7483992E+00
   3.5016452E-04   1.1836702E+05   -1.7478232E+00
   3.5178161E-04   1.1741779E+05   -1.7472472E+00
   3.5340618E-04   1.1647648E+05   -1.7466712E+00
   3.5503824E-04   1.1554302E+05   -1.7460953E+00
   3.5667785E-04   1.1461735E+05   -1.7455194E+00
   3.5832502E-04   1.1369939E+05   -1.7449436E+00
   3.5997981E-04   1.1278909E+05   -1.7443678E+00
   3.6164223E-04   1.1188637E+05   -1.7437921E+00
   3.6331233E-04   1.1099117E+05   -1.7432164E+00
   3.6499015E-04   1.1010342E+05   -1.7426408E+00
   3.6667571E-04   1.0922307E+05   -1.7420653E+00
   3.6836906E-04   1.0835004E+05   -1.7414899E+00
   3.7007022E-04   1.0748427E+05   -1.7409145E+00
   3.7177925E-04   1.0662571E+05   -1.7403393E+00
   3.7349616E-04   1.0577428E+05   -1.7397642E+00
   3.7522101E-04   1.0492993E+05   -1.7391891E+00
   3.7695382E-04   1.0409260E+05   -1.7386142E+00
   3.7869463E-04   1.0326222E+05   -1.7380394E+00
   3.8044348E-04   1.0243874E+05   -1.7374647E+00
   3.8220041E-04   1.0162209E+05   -1.7368902E+00
   3.8396545E-04   1.0081222E+05   -1.7363158E+00
   3.8573864E-04   1.0000907E+05   -1.7357415E+00
   3.8752002E-04   9.9212580E+04   -1.7351674E+00
   3.8930963E-04   9.8422694E+04   -1.7345935E+00
   3.9110750E-04   9.7639355E+04   -1.7340197E+00
   3.9291368E-04   9.6862506E+04   -1.7334460E+00
   3.9472820E-04   9.6092092E+04   -1.7328726E+00
   3.9655109E-04   9.5328057E+04   -1.7322993E+00
   3.9838241E-04   9.4570347E+04   -1.7317262E+00
   4.0022218E-04   9.3818907E+04   -1.7311533E+00
   4.0207045E-04   9.3073684E+04   -1.7305807E+00
   4.0392725E-04   9.2334624E+04   -1.7300082E+00
   4.0579263E-04   9.1601674E+04   -1.7294359E+00
   4.0766662E-04   9.0874782E+04   -1.7288638E+00
   4.0954927E-04   9.0153895E+04   -1.7282920E+00
   4.1144061E-04   8.9438963E+04   -1.7277204E+00
   4.1334068E-04   8.8729934E+04   -1.7271490E+00
   4.1524953E-04   8.8026757E+04   -1.7265778E+00
   4.1716720E-04   8.7329383E+04   -1.7260070E+00
   4.1909372E-04   8.6637761E+04   -1.7254363E+00
   4.2102914E-04   8.5951843E+04   -1.7248659E+00
   4.2297350E-04   8.5271579E+04   -1.7242958E+00
   4.2492683E-04   8.4596921E+04   -1.7237259E+00
   4.2688919E-04   8.3927822E+04   -1.7231564E+00
   4.2886061E-04   8.3264233E+04   -1.7225871E+00
   4.3084113E-04   8.2606107E+04   -1.7220181E+00
   4.3283080E-04   8.1953399E+04   -1.7214493E+00
   4.3482966E-04   8.1306060E+04   -1.7208809E+00
   4.3683775E-04   8.0664046E+04   -1.7203128E+00
   4.3885511E-04   8.0027311E+04   -1.7197450E+00
   4.4088179E-04   7.9395809E+04   -1.7191775E+00
   4.4291783E-04   7.8769497E+04   -1.7186103E+00
   4.4496327E-04   7.8148330E+04   -1.7180435E+00
   4.4701816E-04   7.7532263E+04   -1.7174770E+00
   4.4908253E-04   7.6921254E+04   -1.7169108E+00
   4.5115644E-04   7.6315259E+04   -1.7163450E+00
   4.5323993E-04   7.5714235E+04   -1.7157795E+00
   4.5533304E-04   7.5118141E+04   -1.7152144E+00
   4.5743582E-04   7.4526933E+04   -1.7146496E+00
   4.5954830E-04   7.3940571E+04   -1.7140852E+00
   4.6167054E-04   7.3359013E+04   -1.7135212E+00
   4.6380259E-04   7.2782218E+04   -1.7129576E+00
   4.6594448E-04   7.2210146E+04   -1.7123943E+00
   4.6809626E-04   7.1642756E+04   -1.7118314E+00
   4.7025797E-04   7.1080008E+04   -1.7112689E+00
   4.7242967E-04   7.0521864E+04   -1.7107069E+00
   4.7461140E-04   6.9968283E+04   -1.7101452E+00
   4.7680321E-04   6.9419228E+04   -1.7095839E+00
   4.7900514E-04   6.8874659E+04   -1.7090231E+00
   4.8121723E-04   6.8334539E+04   -1.7084627E+00
   4.8343954E-04   6.7798829E+04   -1.7079027E+00
   4.8567212E-04   6.7267493E+04   -1.7073431E+00
   4.8791500E-04   6.6740492E+04   -1.7067840E+00
   4.9016825E-04   6.6217791E+04   -1.7062253E+00
   4.9243189E-04   6.5699352E+04   -1.7056671E+00
   4.9470600E-04   6.5185141E+04   -1.7051093E+00
   4.9699060E-04   6.4675120E+04   -1.7045520E+00
   4.9928575E-04   6.4169254E+04   -1.7039952E+00
   5.0159151E-04   6.3667508E+04   -1.7034388E+00
   5.0390791E-04   6.3169847E+04   -1.7028829E+00
   5.0623501E-04   6.2676236E+04   -1.7023275E+00
   5.0857286E-04   6.2186642E+04   -1.7017725E+00
   5.1092150E-04   6.1701030E+04   -1.7012181E+00
   5.1328099E-04   6.1219366E+04   -1.7006641E+00
   5.1565137E-04   6.0741618E+04   -1.7001107E+00
   5.1803270E-04   6.0267751E+04   -1.6995578E+00
   5.2042503E-04   5.9797733E+04   -1.6990054E+00
   5.2282841E-04   5.9331532E+04   -1.6984534E+00
   5.2524289E-04   5.8869115E+04   -1.6979021E+00
   5.2766851E-04   5.8410451E+04   -1.6973512E+00
   5.3010534E-04   5.7955507E+04   -1.6968009E+00
   5.3255342E-04   5.7504252E+04   -1.6962511E+00
   5.3501281E-04   5.7056655E+04   -1.6957019E+00
   5.3748356E-04   5.6612686E+04   -1.6951532E+00
   5.3996571E-04   5.6172312E+04   -1.6946050E+00
   5.4245933E-04   5.5735506E+04   -1.6940575E+00
   5.4496446E-04   5.5302235E+04   -1.6935105E+00
   5.4748117E-04   5.4872471E+04   -1.6929640E+00
   5.5000949E-04   5.4446183E+04   -1.6924181E+00
   5.5254949E-04   5.4023343E+04   -1.6918728E+00
   5.5510123E-04   5.3603922E+04   -1.6913281E+00
   5.5766474E-04   5.3187890E+04   -1.6907840E+00
   5.6024010E-04   5.2775219E+04   -1.6902404E+00
   5.6282734E-04   5.2365881E+04   -1.6896975E+00
   5.6542654E-04   5.1959848E+04   -1.6891552E+00
   5.6803774E-04   5.1557092E+04   -1.6886134E+00
   5.7066099E-04   5.1157585E+04   -1.6880723E+00
   5.7329637E-04   5.0761301E+04   -1.6875318E+00
   5.7594391E-04   5.0368212E+04   -1.6869919E+00
   5.7860368E-04   4.9978291E+04   -1.6864527E+00
   5.8127573E-04   4.9591512E+04   -1.6859140E+00
   5.8396012E-04   4.9207848E+04   -1.6853761E+00
   5.8665691E-04   4.8827273E+04   -1.6848387E+00
   5.8936616E-04   4.8449762E+04   -1.6843020E+00
   5.9208791E-04   4.8075288E+04   -1.6837659E+00
   5.9482223E-04   4.7703826E+04   -1.6832305E+00
   5.9756919E-04   4.7335351E+04   -1.6826958E+00
   6.0032882E-04   4.6969838E+04   -1.6821617E+00
   6.0310120E-04   4.6607262E+04   -1.6816282E+00
   6.0588639E-04   4.6247598E+04   -1.6810955E+00
   6.0868443E-04   4.5890823E+04   -1.6805634E+00
   6.1149540E-04   4.5536911E+04   -1.6800320E+00
   6.1431935E-04   4.5185839E+04   -1.6795013E+00
   6.1715634E-04   4.4837584E+04   -1.6789712E+00
   6.2000644E-04   4.4492121E+04   -1.6784419E+00
   6.2286969E-04   4.4149427E+04   -1.6779133E+00
