#        a       HoverH0(a)       dlogHdloga_of_a(a)
   1.0000000E-04   1.1914271E+06   -1.8820344E+00
   1.0046181E-04   1.1811415E+06   -1.8816186E+00
   1.0092575E-04   1.1709470E+06   -1.8812018E+00
   1.0139184E-04   1.1608427E+06   -1.8807839E+00
   1.0186008E-04   1.1508278E+06   -1.8803651E+00
   1.0233048E-04   1.1409015E+06   -1.8799452E+00
   1.0280305E-04   1.1310630E+06   -1.8795244E+00
   1.0327781E-04   1.1213115E+06   -1.8791025E+00
   1.0375475E-04   1.1116463E+06   -1.8786797E+00
   1.0423390E-04   1.1020665E+06   -1.8782558E+00
   1.0471527E-04   1.0925714E+06   -1.8778309E+00
   1.0519885E-04   1.0831603E+06   -1.8774051E+00
   1.0568467E-04   1.0738323E+06   -1.8769782E+00
   1.0617274E-04   1.0645868E+06   -1.8765503E+00
   1.0666305E-04   1.0554229E+06   -1.8761215E+00
   1.0715563E-04   1.0463400E+06   -1.8756916E+00
   1.0765049E-04   1.0373373E+06   -1.8752607E+00
   1.0814763E-04   1.0284141E+06   -1.8748289E+00
   1.0864707E-04   1.0195697E+06   -1.8743960E+00
   1.0914881E-04   1.0108034E+06   -1.8739621E+00
   1.0965287E-04   1.0021145E+06   -1.8735273E+00
   1.1015926E-04   9.9350221E+05   -1.8730915E+00
   1.1066799E-04   9.8496595E+05   -1.8726546E+00
   1.1117906E-04   9.7650500E+05   -1.8722168E+00
   1.1169250E-04   9.6811869E+05   -1.8717780E+00
   1.1220831E-04   9.5980634E+05   -1.8713382E+00
   1.1272650E-04   9.5156729E+05   -1.8708975E+00
   1.1324708E-04   9.4340089E+05   -1.8704557E+00
   1.1377007E-04   9.3530648E+05   -1.8700130E+00
   1.1429547E-04   9.2728341E+05   -1.8695693E+00
   1.1482330E-04   9.1933104E+05   -1.8691246E+00
   1.1535356E-04   9.1144875E+05   -1.8686789E+00
   1.1588628E-04   9.0363589E+05   -1.8682322E+00
   1.1642145E-04   8.9589185E+05   -1.8677846E+00
   1.1695910E-04   8.8821601E+05   -1.8673360E+00
   1.1749923E-04   8.8060776E+05   -1.8668864E+00
   1.1804185E-04   8.7306648E+05   -1.8664359E+00
   1.1858698E-04   8.6559159E+05   -1.8659844E+00
   1.1913463E-04   8.5818248E+05   -1.8655319E+00
   1.1968481E-04   8.5083857E+05   -1.8650785E+00
   1.2023752E-04   8.4355926E+05   -1.8646241E+00
   1.2079279E-04   8.3634399E+05   -1.8641687E+00
   1.2135063E-04   8.2919218E+05   -1.8637124E+00
   1.2191104E-04   8.2210325E+05   -1.8632551E+00
   1.2247403E-04   8.1507664E+05   -1.8627969E+00
   1.2303963E-04   8.0811180E+05   -1.8623377E+00
   1.2360784E-04   8.0120817E+05   -1.8618776E+00
   1.2417868E-04   7.9436521E+05   -1.8614165E+00
   1.2475215E-04   7.8758236E+05   -1.8609544E+00
   1.2532826E-04   7.8085910E+05   -1.8604915E+00
   1.2590704E-04   7.7419488E+05   -1.8600275E+00
   1.2648850E-04   7.6758918E+05   -1.8595627E+00
   1.2707263E-04   7.6104147E+05   -1.8590969E+00
   1.2765947E-04   7.5455123E+05   -1.8586301E+00
   1.2824901E-04   7.4811796E+05   -1.8581624E+00
   1.2884128E-04   7.4174114E+05   -1.8576938E+00
   1.2943628E-04   7.3542026E+05   -1.8572243E+00
   1.3003403E-04   7.2915483E+05   -1.8567538E+00
   1.3063454E-04   7.2294434E+05   -1.8562824E+00
   1.3123783E-04   7.1678831E+05   -1.8558101E+00
   1.3184390E-04   7.1068624E+05   -1.8553368E+00
   1.3245277E-04   7.0463767E+05   -1.8548626E+00
   1.3306445E-04   6.9864209E+05   -1.8543876E+00
   1.3367895E-04   6.9269905E+05   -1.8539116E+00
   1.3429630E-04   6.8680807E+05   -1.8534346E+00
   1.3491649E-04   6.8096869E+05   -1.8529568E+00
   1.3553955E-04   6.7518045E+05   -1.8524781E+00
   1.3616548E-04   6.6944288E+05   -1.8519985E+00
   1.3679431E-04   6.6375554E+05   -1.8515179E+00
   1.3742604E-04   6.5811798E+05   -1.8510365E+00
   1.3806069E-04   6.5252974E+05   -1.8505541E+00
   1.3869827E-04   6.4699040E+05   -1.8500709E+00
   1.3933879E-04   6.4149951E+05   -1.8495868E+00
   1.3998227E-04   6.3605663E+05   -1.8491018E+00
   1.4062872E-04   6.3066136E+05   -1.8486159E+00
   1.4127816E-04   6.2531324E+05   -1.8481291E+00
   1.4193060E-04   6.2001187E+05   -1.8476414E+00
   1.4258605E-04   6.1475683E+05   -1.8471529E+00
   1.4324453E-04   6.0954770E+05   -1.8466635E+00
   1.4390605E-04   6.0438407E+05   -1.8461732E+00
   1.4457062E-04   5.9926555E+05   -1.8456820E+00
   1.4523826E-04   5.9419172E+05   -1.8451900E+00
   1.4590899E-04   5.8916218E+05   -1.8446971E+00
   1.4658281E-04   5.8417654E+05   -1.8442033E+00
   1.4725974E-04   5.7923442E+05   -1.8437087E+00
   1.4793981E-04   5.7433541E+05   -1.8432132E+00
   1.4862301E-04   5.6947914E+05   -1.8427169E+00
   1.4930936E-04   5.6466522E+05   -1.8422197E+00
   1.4999889E-04   5.5989328E+05   -1.8417217E+00
   1.5069160E-04   5.5516294E+05   -1.8412229E+00
   1.5138751E-04   5.5047383E+05   -1.8407232E+00
   1.5208663E-04   5.4582559E+05   -1.8402226E+00
   1.5278899E-04   5.4121784E+05   -1.8397213E+00
   1.5349458E-04   5.3665023E+05   -1.8392191E+00
   1.5420343E-04   5.3212241E+05   -1.8387160E+00
   1.5491556E-04   5.2763401E+05   -1.8382122E+00
   1.5563098E-04   5.2318469E+05   -1.8377075E+00
   1.5634970E-04   5.1877409E+05   -1.8372020E+00
   1.5707174E-04   5.1440187E+05   -1.8366957E+00
   1.5779711E-04   5.1006770E+05   -1.8361886E+00
   1.5852584E-04   5.0577122E+05   -1.8356807E+00
   1.5925792E-04   5.0151211E+05   -1.8351720E+00
   1.5999339E-04   4.9729003E+05   -1.8346625E+00
   1.6073226E-04   4.9310465E+05   -1.8341522E+00
   1.6147454E-04   4.8895565E+05   -1.8336411E+00
   1.6222024E-04   4.8484271E+05   -1.8331292E+00
   1.6296939E-04   4.8076549E+05   -1.8326165E+00
   1.6372200E-04   4.7672369E+05   -1.8321030E+00
   1.6447809E-04   4.7271699E+05   -1.8315888E+00
   1.6523767E-04   4.6874507E+05   -1.8310738E+00
   1.6600075E-04   4.6480764E+05   -1.8305580E+00
   1.6676736E-04   4.6090437E+05   -1.8300415E+00
   1.6753751E-04   4.5703497E+05   -1.8295242E+00
   1.6831122E-04   4.5319913E+05   -1.8290061E+00
   1.6908849E-04   4.4939656E+05   -1.8284873E+00
   1.6986936E-04   4.4562696E+05   -1.8279677E+00
   1.7065384E-04   4.4189004E+05   -1.8274474E+00
   1.7144193E-04   4.3818551E+05   -1.8269263E+00
   1.7223367E-04   4.3451308E+05   -1.8264045E+00
   1.7302906E-04   4.3087246E+05   -1.8258819E+00
   1.7382813E-04   4.2726338E+05   -1.8253587E+00
   1.7463089E-04   4.2368555E+05   -1.8248347E+00
   1.7543735E-04   4.2013870E+05   -1.8243099E+00
   1.7624754E-04   4.1662254E+05   -1.8237845E+00
   1.7706147E-04   4.1313682E+05   -1.8232583E+00
   1.7787916E-04   4.0968125E+05   -1.8227315E+00
   1.7870062E-04   4.0625557E+05   -1.8222039E+00
   1.7952588E-04   4.0285951E+05   -1.8216756E+00
   1.8035495E-04   3.9949282E+05   -1.8211466E+00
   1.8118785E-04   3.9615523E+05   -1.8206170E+00
   1.8202459E-04   3.9284648E+05   -1.8200866E+00
   1.8286520E-04   3.8956632E+05   -1.8195555E+00
   1.8370969E-04   3.8631450E+05   -1.8190238E+00
   1.8455808E-04   3.8309075E+05   -1.8184914E+00
   1.8541039E-04   3.7989485E+05   -1.8179583E+00
   1.8626663E-04   3.7672653E+05   -1.8174246E+00
   1.8712683E-04   3.7358555E+05   -1.8168902E+00
   1.8799100E-04   3.7047167E+05   -1.8163551E+00
   1.8885917E-04   3.6738466E+05   -1.8158194E+00
   1.8973134E-04   3.6432426E+05   -1.8152830E+00
   1.9060754E-04   3.6129026E+05   -1.8147460E+00
   1.9148778E-04   3.5828240E+05   -1.8142083E+00
   1.9237209E-04   3.5530047E+05   -1.8136700E+00
   1.9326049E-04   3.5234423E+05   -1.8131311E+00
   1.9415299E-04   3.4941346E+05   -1.8125915E+00
   1.9504960E-04   3.4650793E+05   -1.8120513E+00
   1.9595036E-04   3.4362741E+05   -1.8115105E+00
   1.9685528E-04   3.4077169E+05   -1.8109691E+00
   1.9776438E-04   3.3794055E+05   -1.8104271E+00
   1.9867768E-04   3.3513376E+05   -1.8098844E+00
   1.9959519E-04   3.3235112E+05   -1.8093412E+00
   2.0051694E-04   3.2959241E+05   -1.8087974E+00
   2.0144295E-04   3.2685741E+05   -1.8082529E+00
   2.0237324E-04   3.2414593E+05   -1.8077079E+00
   2.0330782E-04   3.2145774E+05   -1.8071624E+00
   2.0424671E-04   3.1879265E+05   -1.8066162E+00
   2.0518995E-04   3.1615045E+05   -1.8060695E+00
   2.0613754E-04   3.1353094E+05   -1.8055222E+00
   2.0708950E-04   3.1093392E+05   -1.8049743E+00
   2.0804586E-04   3.0835919E+05   -1.8044259E+00
   2.0900664E-04   3.0580656E+05   -1.8038770E+00
   2.0997185E-04   3.0327582E+05   -1.8033275E+00
   2.1094152E-04   3.0076679E+05   -1.8027774E+00
   2.1191567E-04   2.9827927E+05   -1.8022268E+00
   2.1289432E-04   2.9581307E+05   -1.8016757E+00
   2.1387749E-04   2.9336801E+05   -1.8011241E+00
   2.1486520E-04   2.9094391E+05   -1.8005719E+00
   2.1585747E-04   2.8854056E+05   -1.8000193E+00
   2.1685432E-04   2.8615780E+05   -1.7994661E+00
   2.1785578E-04   2.8379544E+05   -1.7989124E+00
   2.1886186E-04   2.8145329E+05   -1.7983582E+00
   2.1987259E-04   2.7913119E+05   -1.7978035E+00
   2.2088798E-04   2.7682896E+05   -1.7972483E+00
   2.2190807E-04   2.7454642E+05   -1.7966927E+00
   2.2293286E-04   2.7228340E+05   -1.7961365E+00
   2.2396239E-04   2.7003972E+05   -1.7955799E+00
   2.2499667E-04   2.6781522E+05   -1.7950229E+00
   2.2603573E-04   2.6560972E+05   -1.7944653E+00
   2.2707958E-04   2.6342306E+05   -1.7939073E+00
   2.2812826E-04   2.6125508E+05   -1.7933489E+00
   2.2918178E-04   2.5910561E+05   -1.7927900E+00
   2.3024017E-04   2.5697448E+05   -1.7922306E+00
   2.3130344E-04   2.5486154E+05   -1.7916709E+00
   2.3237162E-04   2.5276662E+05   -1.7911107E+00
   2.3344474E-04   2.5068958E+05   -1.7905500E+00
   2.3452281E-04   2.4863024E+05   -1.7899890E+00
   2.3560586E-04   2.4658846E+05   -1.7894275E+00
   2.3669392E-04   2.4456407E+05   -1.7888657E+00
   2.3778699E-04   2.4255694E+05   -1.7883034E+00
   2.3888512E-04   2.4056690E+05   -1.7877407E+00
   2.3998831E-04   2.3859380E+05   -1.7871777E+00
   2.4109661E-04   2.3663751E+05   -1.7866142E+00
   2.4221001E-04   2.3469786E+05   -1.7860504E+00
   2.4332857E-04   2.3277472E+05   -1.7854862E+00
   2.4445228E-04   2.3086793E+05   -1.7849216E+00
   2.4558119E-04   2.2897736E+05   -1.7843567E+00
   2.4671531E-04   2.2710286E+05   -1.7837914E+00
   2.4785467E-04   2.2524430E+05   -1.7832257E+00
   2.4899928E-04   2.2340153E+05   -1.7826597E+00
   2.5014919E-04   2.2157441E+05   -1.7820934E+00
   2.5130440E-04   2.1976281E+05   -1.7815267E+00
   2.5246495E-04   2.1796659E+05   -1.7809597E+00
   2.5363086E-04   2.1618562E+05   -1.7803924E+00
   2.5480216E-04   2.1441976E+05   -1.7798247E+00
   2.5597886E-04   2.1266888E+05   -1.7792568E+00
   2.5716100E-04   2.1093285E+05   -1.7786885E+00
   2.5834859E-04   2.0921154E+05   -1.7781199E+00
   2.5954168E-04   2.0750482E+05   -1.7775511E+00
   2.6074027E-04   2.0581256E+05   -1.7769819E+00
   2.6194439E-04   2.0413463E+05   -1.7764125E+00
   2.6315408E-04   2.0247092E+05   -1.7758428E+00
   2.6436935E-04   2.0082130E+05   -1.7752728E+00
   2.6559024E-04   1.9918564E+05   -1.7747025E+00
   2.6681676E-04   1.9756382E+05   -1.7741320E+00
   2.6804895E-04   1.9595572E+05   -1.7735613E+00
   2.6928683E-04   1.9436122E+05   -1.7729903E+00
   2.7053042E-04   1.9278020E+05   -1.7724190E+00
   2.7177976E-04   1.9121255E+05   -1.7718475E+00
   2.7303487E-04   1.8965815E+05   -1.7712758E+00
   2.7429577E-04   1.8811687E+05   -1.7707038E+00
   2.7556250E-04   1.8658861E+05   -1.7701317E+00
   2.7683507E-04   1.8507326E+05   -1.7695593E+00
   2.7811353E-04   1.8357070E+05   -1.7689867E+00
   2.7939788E-04   1.8208082E+05   -1.7684139E+00
   2.8068817E-04   1.8060350E+05   -1.7678409E+00
   2.8198442E-04   1.7913865E+05   -1.7672678E+00
   2.8328665E-04   1.7768614E+05   -1.7666944E+00
   2.8459490E-04   1.7624588E+05   -1.7661209E+00
   2.8590919E-04   1.7481776E+05   -1.7655472E+00
   2.8722955E-04   1.7340166E+05   -1.7649733E+00
   2.8855600E-04   1.7199749E+05   -1.7643993E+00
   2.8988859E-04   1.7060515E+05   -1.7638251E+00
   2.9122732E-04   1.6922452E+05   -1.7632508E+00
   2.9257224E-04   1.6785551E+05   -1.7626763E+00
   2.9392337E-04   1.6649801E+05   -1.7621017E+00
   2.9528074E-04   1.6515193E+05   -1.7615270E+00
   2.9664438E-04   1.6381717E+05   -1.7609521E+00
   2.9801431E-04   1.6249363E+05   -1.7603772E+00
   2.9939057E-04   1.6118120E+05   -1.7598021E+00
   3.0077319E-04   1.5987980E+05   -1.7592269E+00
   3.0216219E-04   1.5858933E+05   -1.7586516E+00
   3.0355761E-04   1.5730969E+05   -1.7580763E+00
   3.0495947E-04   1.5604079E+05   -1.7575008E+00
   3.0636780E-04   1.5478254E+05   -1.7569253E+00
   3.0778264E-04   1.5353484E+05   -1.7563496E+00
   3.0920401E-04   1.5229760E+05   -1.7557740E+00
   3.1063195E-04   1.5107073E+05   -1.7551982E+00
   3.1206648E-04   1.4985414E+05   -1.7546224E+00
   3.1350764E-04   1.4864774E+05   -1.7540466E+00
   3.1495545E-04   1.4745145E+05   -1.7534707E+00
   3.1640994E-04   1.4626517E+05   -1.7528947E+00
   3.1787116E-04   1.4508882E+05   -1.7523188E+00
   3.1933912E-04   1.4392232E+05   -1.7517428E+00
   3.2081386E-04   1.4276557E+05   -1.7511668E+00
   3.2229541E-04   1.4161850E+05   -1.7505908E+00
   3.2378381E-04   1.4048101E+05   -1.7500147E+00
   3.2527908E-04   1.3935303E+05   -1.7494387E+00
   3.2678125E-04   1.3823447E+05   -1.7488627E+00
   3.2829036E-04   1.3712526E+05   -1.7482867E+00
   3.2980644E-04   1.3602531E+05   -1.7477107E+00
   3.3132952E-04   1.3493454E+05   -1.7471347E+00
   3.3285963E-04   1.3385287E+05   -1.7465588E+00
   3.3439681E-04   1.3278022E+05   -1.7459829E+00
   3.3594109E-04   1.3171652E+05   -1.7454070E+00
   3.3749250E-04   1.3066169E+05   -1.7448312E+00
   3.3905108E-04   1.2961565E+05   -1.7442554E+00
   3.4061685E-04   1.2857832E+05   -1.7436797E+00
   3.4218986E-04   1.2754964E+05   -1.7431041E+00
   3.4377013E-04   1.2652952E+05   -1.7425285E+00
   3.4535769E-04   1.2551789E+05   -1.7419531E+00
   3.4695259E-04   1.2451468E+05   -1.7413777E+00
   3.4855485E-04   1.2351982E+05   -1.7408024E+00
   3.5016452E-04   1.2253323E+05   -1.7402271E+00
   3.5178161E-04   1.2155484E+05   -1.7396520E+00
   3.5340618E-04   1.2058458E+05   -1.7390770E+00
   3.5503824E-04   1.1962239E+05   -1.7385022E+00
   3.5667785E-04   1.1866818E+05   -1.7379274E+00
   3.5832502E-04   1.1772190E+05   -1.7373528E+00
   3.5997981E-04   1.1678348E+05   -1.7367783E+00
   3.6164223E-04   1.1585284E+05   -1.7362039E+00
   3.6331233E-04   1.1492992E+05   -1.7356297E+00
   3.6499015E-04   1.1401466E+05   -1.7350556E+00
   3.6667571E-04   1.1310698E+05   -1.7344817E+00
   3.6836906E-04   1.1220683E+05   -1.7339080E+00
   3.7007022E-04   1.1131414E+05   -1.7333344E+00
   3.7177925E-04   1.1042883E+05   -1.7327610E+00
   3.7349616E-04   1.0955086E+05   -1.7321878E+00
   3.7522101E-04   1.0868016E+05   -1.7316147E+00
   3.7695382E-04   1.0781666E+05   -1.7310419E+00
   3.7869463E-04   1.0696031E+05   -1.7304693E+00
   3.8044348E-04   1.0611103E+05   -1.7298968E+00
   3.8220041E-04   1.0526878E+05   -1.7293246E+00
   3.8396545E-04   1.0443349E+05   -1.7287526E+00
   3.8573864E-04   1.0360510E+05   -1.7281808E+00
   3.8752002E-04   1.0278355E+05   -1.7276093E+00
   3.8930963E-04   1.0196878E+05   -1.7270379E+00
   3.9110750E-04   1.0116074E+05   -1.7264669E+00
   3.9291368E-04   1.0035937E+05   -1.7258960E+00
   3.9472820E-04   9.9564601E+04   -1.7253255E+00
   3.9655109E-04   9.8776390E+04   -1.7247551E+00
   3.9838241E-04   9.7994677E+04   -1.7241851E+00
   4.0022218E-04   9.7219405E+04   -1.7236153E+00
   4.0207045E-04   9.6450520E+04   -1.7230458E+00
   4.0392725E-04   9.5687967E+04   -1.7224766E+00
   4.0579263E-04   9.4931692E+04   -1.7219076E+00
   4.0766662E-04   9.4181641E+04   -1.7213390E+00
   4.0954927E-04   9.3437761E+04   -1.7207706E+00
   4.1144061E-04   9.2699999E+04   -1.7202026E+00
   4.1334068E-04   9.1968302E+04   -1.7196349E+00
   4.1524953E-04   9.1242620E+04   -1.7190674E+00
   4.1716720E-04   9.0522900E+04   -1.7185004E+00
   4.1909372E-04   8.9809092E+04   -1.7179336E+00
   4.2102914E-04   8.9101145E+04   -1.7173672E+00
   4.2297350E-04   8.8399010E+04   -1.7168011E+00
   4.2492683E-04   8.7702636E+04   -1.7162353E+00
   4.2688919E-04   8.7011975E+04   -1.7156699E+00
   4.2886061E-04   8.6326977E+04   -1.7151049E+00
   4.3084113E-04   8.5647595E+04   -1.7145402E+00
   4.3283080E-04   8.4973781E+04   -1.7139759E+00
   4.3482966E-04   8.4305487E+04   -1.7134120E+00
   4.3683775E-04   8.3642666E+04   -1.7128484E+00
   4.3885511E-04   8.2985272E+04   -1.7122853E+00
   4.4088179E-04   8.2333258E+04   -1.7117225E+00
   4.4291783E-04   8.1686578E+04   -1.7111601E+00
   4.4496327E-04   8.1045188E+04   -1.7105981E+00
   4.4701816E-04   8.0409042E+04   -1.7100366E+00
   4.4908253E-04   7.9778096E+04   -1.7094754E+00
   4.5115644E-04   7.9152305E+04   -1.7089147E+00
   4.5323993E-04   7.8531625E+04   -1.7083543E+00
   4.5533304E-04   7.7916014E+04   -1.7077945E+00
   4.5743582E-04   7.7305429E+04   -1.7072350E+00
   4.5954830E-04   7.6699825E+04   -1.7066760E+00
   4.6167054E-04   7.6099162E+04   -1.7061174E+00
   4.6380259E-04   7.5503397E+04   -1.7055593E+00
   4.6594448E-04   7.4912488E+04   -1.7050016E+00
   4.6809626E-04   7.4326396E+04   -1.7044444E+00
   4.7025797E-04   7.3745077E+04   -1.7038877E+00
   4.7242967E-04   7.3168493E+04   -1.7033314E+00
   4.7461140E-04   7.2596603E+04   -1.7027756E+00
   4.7680321E-04   7.2029367E+04   -1.7022203E+00
   4.7900514E-04   7.1466746E+04   -1.7016655E+00
   4.8121723E-04   7.0908701E+04   -1.7011112E+00
   4.8343954E-04   7.0355194E+04   -1.7005574E+00
   4.8567212E-04   6.9806185E+04   -1.7000041E+00
   4.8791500E-04   6.9261636E+04   -1.6994512E+00
   4.9016825E-04   6.8721510E+04   -1.6988989E+00
   4.9243189E-04   6.8185770E+04   -1.6983472E+00
   4.9470600E-04   6.7654379E+04   -1.6977959E+00
   4.9699060E-04   6.7127298E+04   -1.6972452E+00
   4.9928575E-04   6.6604494E+04   -1.6966950E+00
   5.0159151E-04   6.6085928E+04   -1.6961453E+00
   5.0390791E-04   6.5571566E+04   -1.6955962E+00
   5.0623501E-04   6.5061372E+04   -1.6950476E+00
   5.0857286E-04   6.4555310E+04   -1.6944996E+00
   5.1092150E-04   6.4053347E+04   -1.6939522E+00
   5.1328099E-04   6.3555446E+04   -1.6934053E+00
   5.1565137E-04   6.3061575E+04   -1.6928590E+00
   5.1803270E-04   6.2571699E+04   -1.6923132E+00
   5.2042503E-04   6.2085785E+04   -1.6917681E+00
   5.2282841E-04   6.1603799E+04   -1.6912235E+00
   5.2524289E-04   6.1125707E+04   -1.6906795E+00
   5.2766851E-04   6.0651478E+04   -1.6901361E+00
   5.3010534E-04   6.0181079E+04   -1.6895933E+00
   5.3255342E-04   5.9714478E+04   -1.6890511E+00
   5.3501281E-04   5.9251641E+04   -1.6885095E+00
   5.3748356E-04   5.8792539E+04   -1.6879686E+00
   5.3996571E-04   5.8337140E+04   -1.6874282E+00
   5.4245933E-04   5.7885412E+04   -1.6868885E+00
   5.4496446E-04   5.7437325E+04   -1.6863493E+00
   5.4748117E-04   5.6992848E+04   -1.6858109E+00
   5.5000949E-04   5.6551950E+04   -1.6852730E+00
   5.5254949E-04   5.6114603E+04   -1.6847358E+00
   5.5510123E-04   5.5680775E+04   -1.6841992E+00
   5.5766474E-04   5.5250438E+04   -1.6836633E+00
   5.6024010E-04   5.4823562E+04   -1.6831281E+00
   5.6282734E-04   5.4400119E+04   -1.6825935E+00
   5.6542654E-04   5.3980078E+04   -1.6820595E+00
   5.6803774E-04   5.3563413E+04   -1.6815263E+00
   5.7066099E-04   5.3150094E+04   -1.6809937E+00
   5.7329637E-04   5.2740094E+04   -1.6804617E+00
   5.7594391E-04   5.2333385E+04   -1.6799305E+00
   5.7860368E-04   5.1929940E+04   -1.6793999E+00
   5.8127573E-04   5.1529730E+04   -1.6788701E+00
   5.8396012E-04   5.1132730E+04   -1.6783409E+00
   5.8665691E-04   5.0738912E+04   -1.6778124E+00
   5.8936616E-04   5.0348249E+04   -1.6772846E+00
   5.9208791E-04   4.9960716E+04   -1.6767575E+00
   5.9482223E-04   4.9576286E+04   -1.6762312E+00
   5.9756919E-04   4.9194933E+04   -1.6757055E+00
   6.0032882E-04   4.8816632E+04   -1.6751806E+00
   6.0310120E-04   4.8441357E+04   -1.6746564E+00
   6.0588639E-04   4.8069082E+04   -1.6741329E+00
   6.0868443E-04   4.7699784E+04   -1.6736101E+00
   6.1149540E-04   4.7333437E+04   -1.6730881E+00
   6.1431935E-04   4.6970017E+04   -1.6725668E+00
   6.1715634E-04   4.6609498E+04   -1.6720463E+00
   6.2000644E-04   4.6251858E+04   -1.6715265E+00
   6.2286969E-04   4.5897072E+04   -1.6710074E+00
