#        a       HoverH0(a)       dlogHdloga_of_a(a)
   1.0000000E-04   1.0213606E+06   -1.8765190E+00
   1.0046181E-04   1.0125690E+06   -1.8760901E+00
   1.0092575E-04   1.0038550E+06   -1.8756601E+00
   1.0139184E-04   9.9521799E+05   -1.8752292E+00
   1.0186008E-04   9.8665726E+05   -1.8747973E+00
   1.0233048E-04   9.7817212E+05   -1.8743643E+00
   1.0280305E-04   9.6976188E+05   -1.8739304E+00
   1.0327781E-04   9.6142588E+05   -1.8734955E+00
   1.0375475E-04   9.5316345E+05   -1.8730596E+00
   1.0423390E-04   9.4497392E+05   -1.8726227E+00
   1.0471527E-04   9.3685665E+05   -1.8721848E+00
   1.0519885E-04   9.2881097E+05   -1.8717459E+00
   1.0568467E-04   9.2083626E+05   -1.8713061E+00
   1.0617274E-04   9.1293187E+05   -1.8708652E+00
   1.0666305E-04   9.0509717E+05   -1.8704234E+00
   1.0715563E-04   8.9733154E+05   -1.8699806E+00
   1.0765049E-04   8.8963436E+05   -1.8695368E+00
   1.0814763E-04   8.8200500E+05   -1.8690921E+00
   1.0864707E-04   8.7444287E+05   -1.8686463E+00
   1.0914881E-04   8.6694735E+05   -1.8681996E+00
   1.0965287E-04   8.5951786E+05   -1.8677519E+00
   1.1015926E-04   8.5215379E+05   -1.8673032E+00
   1.1066799E-04   8.4485456E+05   -1.8668536E+00
   1.1117906E-04   8.3761960E+05   -1.8664030E+00
   1.1169250E-04   8.3044832E+05   -1.8659514E+00
   1.1220831E-04   8.2334014E+05   -1.8654989E+00
   1.1272650E-04   8.1629452E+05   -1.8650454E+00
   1.1324708E-04   8.0931088E+05   -1.8645909E+00
   1.1377007E-04   8.0238867E+05   -1.8641355E+00
   1.1429547E-04   7.9552734E+05   -1.8636791E+00
   1.1482330E-04   7.8872634E+05   -1.8632217E+00
   1.1535356E-04   7.8198513E+05   -1.8627634E+00
   1.1588628E-04   7.7530318E+05   -1.8623042E+00
   1.1642145E-04   7.6867995E+05   -1.8618440E+00
   1.1695910E-04   7.6211492E+05   -1.8613828E+00
   1.1749923E-04   7.5560756E+05   -1.8609207E+00
   1.1804185E-04   7.4915737E+05   -1.8604577E+00
   1.1858698E-04   7.4276382E+05   -1.8599937E+00
   1.1913463E-04   7.3642642E+05   -1.8595287E+00
   1.1968481E-04   7.3014465E+05   -1.8590629E+00
   1.2023752E-04   7.2391802E+05   -1.8585960E+00
   1.2079279E-04   7.1774604E+05   -1.8581283E+00
   1.2135063E-04   7.1162821E+05   -1.8576596E+00
   1.2191104E-04   7.0556406E+05   -1.8571900E+00
   1.2247403E-04   6.9955310E+05   -1.8567195E+00
   1.2303963E-04   6.9359485E+05   -1.8562480E+00
   1.2360784E-04   6.8768884E+05   -1.8557756E+00
   1.2417868E-04   6.8183461E+05   -1.8553023E+00
   1.2475215E-04   6.7603169E+05   -1.8548281E+00
   1.2532826E-04   6.7027963E+05   -1.8543529E+00
   1.2590704E-04   6.6457796E+05   -1.8538769E+00
   1.2648850E-04   6.5892624E+05   -1.8533999E+00
   1.2707263E-04   6.5332402E+05   -1.8529220E+00
   1.2765947E-04   6.4777086E+05   -1.8524432E+00
   1.2824901E-04   6.4226632E+05   -1.8519635E+00
   1.2884128E-04   6.3680996E+05   -1.8514829E+00
   1.2943628E-04   6.3140136E+05   -1.8510014E+00
   1.3003403E-04   6.2604008E+05   -1.8505190E+00
   1.3063454E-04   6.2072571E+05   -1.8500357E+00
   1.3123783E-04   6.1545783E+05   -1.8495515E+00
   1.3184390E-04   6.1023601E+05   -1.8490664E+00
   1.3245277E-04   6.0505985E+05   -1.8485805E+00
   1.3306445E-04   5.9992894E+05   -1.8480936E+00
   1.3367895E-04   5.9484287E+05   -1.8476059E+00
   1.3429630E-04   5.8980125E+05   -1.8471173E+00
   1.3491649E-04   5.8480368E+05   -1.8466278E+00
   1.3553955E-04   5.7984976E+05   -1.8461375E+00
   1.3616548E-04   5.7493911E+05   -1.8456462E+00
   1.3679431E-04   5.7007134E+05   -1.8451541E+00
   1.3742604E-04   5.6524606E+05   -1.8446612E+00
   1.3806069E-04   5.6046290E+05   -1.8441674E+00
   1.3869827E-04   5.5572148E+05   -1.8436727E+00
   1.3933879E-04   5.5102143E+05   -1.8431772E+00
   1.3998227E-04   5.4636238E+05   -1.8426808E+00
   1.4062872E-04   5.4174397E+05   -1.8421836E+00
   1.4127816E-04   5.3716582E+05   -1.8416855E+00
   1.4193060E-04   5.3262759E+05   -1.8411866E+00
   1.4258605E-04   5.2812891E+05   -1.8406868E+00
   1.4324453E-04   5.2366943E+05   -1.8401862E+00
   1.4390605E-04   5.1924881E+05   -1.8396848E+00
   1.4457062E-04   5.1486670E+05   -1.8391825E+00
   1.4523826E-04   5.1052275E+05   -1.8386795E+00
   1.4590899E-04   5.0621663E+05   -1.8381756E+00
   1.4658281E-04   5.0194800E+05   -1.8376708E+00
   1.4725974E-04   4.9771651E+05   -1.8371653E+00
   1.4793981E-04   4.9352185E+05   -1.8366589E+00
   1.4862301E-04   4.8936369E+05   -1.8361518E+00
   1.4930936E-04   4.8524169E+05   -1.8356438E+00
   1.4999889E-04   4.8115554E+05   -1.8351350E+00
   1.5069160E-04   4.7710492E+05   -1.8346255E+00
   1.5138751E-04   4.7308951E+05   -1.8341151E+00
   1.5208663E-04   4.6910900E+05   -1.8336039E+00
   1.5278899E-04   4.6516308E+05   -1.8330920E+00
   1.5349458E-04   4.6125143E+05   -1.8325793E+00
   1.5420343E-04   4.5737377E+05   -1.8320658E+00
   1.5491556E-04   4.5352977E+05   -1.8315515E+00
   1.5563098E-04   4.4971915E+05   -1.8310364E+00
   1.5634970E-04   4.4594161E+05   -1.8305206E+00
   1.5707174E-04   4.4219684E+05   -1.8300040E+00
   1.5779711E-04   4.3848457E+05   -1.8294866E+00
   1.5852584E-04   4.3480450E+05   -1.8289685E+00
   1.5925792E-04   4.3115635E+05   -1.8284496E+00
   1.5999339E-04   4.2753982E+05   -1.8279300E+00
   1.6073226E-04   4.2395465E+05   -1.8274096E+00
   1.6147454E-04   4.2040055E+05   -1.8268885E+00
   1.6222024E-04   4.1687725E+05   -1.8263666E+00
   1.6296939E-04   4.1338447E+05   -1.8258440E+00
   1.6372200E-04   4.0992194E+05   -1.8253207E+00
   1.6447809E-04   4.0648940E+05   -1.8247967E+00
   1.6523767E-04   4.0308657E+05   -1.8242719E+00
   1.6600075E-04   3.9971320E+05   -1.8237464E+00
   1.6676736E-04   3.9636901E+05   -1.8232202E+00
   1.6753751E-04   3.9305376E+05   -1.8226933E+00
   1.6831122E-04   3.8976719E+05   -1.8221657E+00
   1.6908849E-04   3.8650904E+05   -1.8216373E+00
   1.6986936E-04   3.8327905E+05   -1.8211083E+00
   1.7065384E-04   3.8007699E+05   -1.8205786E+00
   1.7144193E-04   3.7690259E+05   -1.8200482E+00
   1.7223367E-04   3.7375563E+05   -1.8195171E+00
   1.7302906E-04   3.7063584E+05   -1.8189853E+00
   1.7382813E-04   3.6754300E+05   -1.8184528E+00
   1.7463089E-04   3.6447687E+05   -1.8179197E+00
   1.7543735E-04   3.6143720E+05   -1.8173859E+00
   1.7624754E-04   3.5842376E+05   -1.8168515E+00
   1.7706147E-04   3.5543632E+05   -1.8163164E+00
   1.7787916E-04   3.5247465E+05   -1.8157806E+00
   1.7870062E-04   3.4953852E+05   -1.8152442E+00
   1.7952588E-04   3.4662771E+05   -1.8147071E+00
   1.8035495E-04   3.4374199E+05   -1.8141694E+00
   1.8118785E-04   3.4088114E+05   -1.8136310E+00
   1.8202459E-04   3.3804494E+05   -1.8130921E+00
   1.8286520E-04   3.3523316E+05   -1.8125525E+00
   1.8370969E-04   3.3244561E+05   -1.8120122E+00
   1.8455808E-04   3.2968205E+05   -1.8114714E+00
   1.8541039E-04   3.2694228E+05   -1.8109299E+00
   1.8626663E-04   3.2422609E+05   -1.8103879E+00
   1.8712683E-04   3.2153327E+05   -1.8098452E+00
   1.8799100E-04   3.1886361E+05   -1.8093019E+00
   1.8885917E-04   3.1621691E+05   -1.8087581E+00
   1.8973134E-04   3.1359296E+05   -1.8082136E+00
   1.9060754E-04   3.1099157E+05   -1.8076686E+00
   1.9148778E-04   3.0841253E+05   -1.8071230E+00
   1.9237209E-04   3.0585565E+05   -1.8065768E+00
   1.9326049E-04   3.0332073E+05   -1.8060300E+00
   1.9415299E-04   3.0080758E+05   -1.8054827E+00
   1.9504960E-04   2.9831600E+05   -1.8049348E+00
   1.9595036E-04   2.9584581E+05   -1.8043863E+00
   1.9685528E-04   2.9339682E+05   -1.8038374E+00
   1.9776438E-04   2.9096883E+05   -1.8032878E+00
   1.9867768E-04   2.8856167E+05   -1.8027377E+00
   1.9959519E-04   2.8617514E+05   -1.8021871E+00
   2.0051694E-04   2.8380908E+05   -1.8016360E+00
   2.0144295E-04   2.8146329E+05   -1.8010843E+00
   2.0237324E-04   2.7913760E+05   -1.8005321E+00
   2.0330782E-04   2.7683183E+05   -1.7999794E+00
   2.0424671E-04   2.7454581E+05   -1.7994262E+00
   2.0518995E-04   2.7227936E+05   -1.7988725E+00
   2.0613754E-04   2.7003231E+05   -1.7983183E+00
   2.0708950E-04   2.6780449E+05   -1.7977635E+00
   2.0804586E-04   2.6559573E+05   -1.7972083E+00
   2.0900664E-04   2.6340586E+05   -1.7966527E+00
   2.0997185E-04   2.6123471E+05   -1.7960965E+00
   2.1094152E-04   2.5908212E+05   -1.7955399E+00
   2.1191567E-04   2.5694793E+05   -1.7949828E+00
   2.1289432E-04   2.5483198E+05   -1.7944252E+00
   2.1387749E-04   2.5273410E+05   -1.7938672E+00
   2.1486520E-04   2.5065413E+05   -1.7933087E+00
   2.1585747E-04   2.4859192E+05   -1.7927498E+00
   2.1685432E-04   2.4654732E+05   -1.7921904E+00
   2.1785578E-04   2.4452016E+05   -1.7916306E+00
   2.1886186E-04   2.4251029E+05   -1.7910704E+00
   2.1987259E-04   2.4051757E+05   -1.7905097E+00
   2.2088798E-04   2.3854183E+05   -1.7899487E+00
   2.2190807E-04   2.3658294E+05   -1.7893872E+00
   2.2293286E-04   2.3464074E+05   -1.7888253E+00
   2.2396239E-04   2.3271509E+05   -1.7882630E+00
   2.2499667E-04   2.3080584E+05   -1.7877003E+00
   2.2603573E-04   2.2891285E+05   -1.7871372E+00
   2.2707958E-04   2.2703597E+05   -1.7865737E+00
   2.2812826E-04   2.2517507E+05   -1.7860099E+00
   2.2918178E-04   2.2332999E+05   -1.7854457E+00
   2.3024017E-04   2.2150062E+05   -1.7848811E+00
   2.3130344E-04   2.1968680E+05   -1.7843161E+00
   2.3237162E-04   2.1788840E+05   -1.7837508E+00
   2.3344474E-04   2.1610528E+05   -1.7831851E+00
   2.3452281E-04   2.1433732E+05   -1.7826191E+00
   2.3560586E-04   2.1258438E+05   -1.7820528E+00
   2.3669392E-04   2.1084632E+05   -1.7814861E+00
   2.3778699E-04   2.0912302E+05   -1.7809191E+00
   2.3888512E-04   2.0741434E+05   -1.7803517E+00
   2.3998831E-04   2.0572017E+05   -1.7797840E+00
   2.4109661E-04   2.0404036E+05   -1.7792161E+00
   2.4221001E-04   2.0237480E+05   -1.7786478E+00
   2.4332857E-04   2.0072337E+05   -1.7780792E+00
   2.4445228E-04   1.9908593E+05   -1.7775103E+00
   2.4558119E-04   1.9746237E+05   -1.7769412E+00
   2.4671531E-04   1.9585256E+05   -1.7763717E+00
   2.4785467E-04   1.9425638E+05   -1.7758020E+00
   2.4899928E-04   1.9267372E+05   -1.7752320E+00
   2.5014919E-04   1.9110446E+05   -1.7746618E+00
   2.5130440E-04   1.8954847E+05   -1.7740912E+00
   2.5246495E-04   1.8800565E+05   -1.7735205E+00
   2.5363086E-04   1.8647588E+05   -1.7729494E+00
   2.5480216E-04   1.8495904E+05   -1.7723782E+00
   2.5597886E-04   1.8345502E+05   -1.7718067E+00
   2.5716100E-04   1.8196371E+05   -1.7712349E+00
   2.5834859E-04   1.8048500E+05   -1.7706630E+00
   2.5954168E-04   1.7901878E+05   -1.7700908E+00
   2.6074027E-04   1.7756494E+05   -1.7695184E+00
   2.6194439E-04   1.7612337E+05   -1.7689458E+00
   2.6315408E-04   1.7469396E+05   -1.7683730E+00
   2.6436935E-04   1.7327661E+05   -1.7678001E+00
   2.6559024E-04   1.7187122E+05   -1.7672269E+00
   2.6681676E-04   1.7047767E+05   -1.7666535E+00
   2.6804895E-04   1.6909587E+05   -1.7660800E+00
   2.6928683E-04   1.6772571E+05   -1.7655063E+00
   2.7053042E-04   1.6636710E+05   -1.7649324E+00
   2.7177976E-04   1.6501993E+05   -1.7643584E+00
   2.7303487E-04   1.6368409E+05   -1.7637842E+00
   2.7429577E-04   1.6235951E+05   -1.7632099E+00
   2.7556250E-04   1.6104606E+05   -1.7626354E+00
   2.7683507E-04   1.5974367E+05   -1.7620608E+00
   2.7811353E-04   1.5845222E+05   -1.7614861E+00
   2.7939788E-04   1.5717164E+05   -1.7609112E+00
   2.8068817E-04   1.5590182E+05   -1.7603363E+00
   2.8198442E-04   1.5464266E+05   -1.7597612E+00
   2.8328665E-04   1.5339408E+05   -1.7591860E+00
   2.8459490E-04   1.5215599E+05   -1.7586107E+00
   2.8590919E-04   1.5092829E+05   -1.7580354E+00
   2.8722955E-04   1.4971089E+05   -1.7574599E+00
   2.8855600E-04   1.4850371E+05   -1.7568844E+00
   2.8988859E-04   1.4730665E+05   -1.7563088E+00
   2.9122732E-04   1.4611962E+05   -1.7557331E+00
   2.9257224E-04   1.4494255E+05   -1.7551573E+00
   2.9392337E-04   1.4377534E+05   -1.7545815E+00
   2.9528074E-04   1.4261791E+05   -1.7540057E+00
   2.9664438E-04   1.4147017E+05   -1.7534298E+00
   2.9801431E-04   1.4033204E+05   -1.7528539E+00
   2.9939057E-04   1.3920343E+05   -1.7522779E+00
   3.0077319E-04   1.3808427E+05   -1.7517020E+00
   3.0216219E-04   1.3697447E+05   -1.7511260E+00
   3.0355761E-04   1.3587395E+05   -1.7505500E+00
   3.0495947E-04   1.3478263E+05   -1.7499739E+00
   3.0636780E-04   1.3370043E+05   -1.7493979E+00
   3.0778264E-04   1.3262727E+05   -1.7488219E+00
   3.0920401E-04   1.3156308E+05   -1.7482459E+00
   3.1063195E-04   1.3050777E+05   -1.7476699E+00
   3.1206648E-04   1.2946126E+05   -1.7470940E+00
   3.1350764E-04   1.2842349E+05   -1.7465180E+00
   3.1495545E-04   1.2739438E+05   -1.7459422E+00
   3.1640994E-04   1.2637385E+05   -1.7453663E+00
   3.1787116E-04   1.2536183E+05   -1.7447905E+00
   3.1933912E-04   1.2435824E+05   -1.7442148E+00
   3.2081386E-04   1.2336301E+05   -1.7436391E+00
   3.2229541E-04   1.2237608E+05   -1.7430635E+00
   3.2378381E-04   1.2139736E+05   -1.7424879E+00
   3.2527908E-04   1.2042678E+05   -1.7419125E+00
   3.2678125E-04   1.1946429E+05   -1.7413371E+00
   3.2829036E-04   1.1850980E+05   -1.7407618E+00
   3.2980644E-04   1.1756324E+05   -1.7401866E+00
   3.3132952E-04   1.1662456E+05   -1.7396115E+00
   3.3285963E-04   1.1569368E+05   -1.7390365E+00
   3.3439681E-04   1.1477053E+05   -1.7384617E+00
   3.3594109E-04   1.1385505E+05   -1.7378869E+00
   3.3749250E-04   1.1294718E+05   -1.7373123E+00
   3.3905108E-04   1.1204683E+05   -1.7367378E+00
   3.4061685E-04   1.1115396E+05   -1.7361635E+00
   3.4218986E-04   1.1026850E+05   -1.7355893E+00
   3.4377013E-04   1.0939038E+05   -1.7350153E+00
   3.4535769E-04   1.0851954E+05   -1.7344414E+00
   3.4695259E-04   1.0765591E+05   -1.7338677E+00
   3.4855485E-04   1.0679944E+05   -1.7332941E+00
   3.5016452E-04   1.0595007E+05   -1.7327207E+00
   3.5178161E-04   1.0510772E+05   -1.7321475E+00
   3.5340618E-04   1.0427235E+05   -1.7315745E+00
   3.5503824E-04   1.0344390E+05   -1.7310017E+00
   3.5667785E-04   1.0262229E+05   -1.7304291E+00
   3.5832502E-04   1.0180748E+05   -1.7298567E+00
   3.5997981E-04   1.0099941E+05   -1.7292845E+00
   3.6164223E-04   1.0019801E+05   -1.7287125E+00
   3.6331233E-04   9.9403234E+04   -1.7281408E+00
   3.6499015E-04   9.8615021E+04   -1.7275693E+00
   3.6667571E-04   9.7833317E+04   -1.7269980E+00
   3.6836906E-04   9.7058064E+04   -1.7264269E+00
   3.7007022E-04   9.6289208E+04   -1.7258561E+00
   3.7177925E-04   9.5526694E+04   -1.7252856E+00
   3.7349616E-04   9.4770467E+04   -1.7247153E+00
   3.7522101E-04   9.4020473E+04   -1.7241453E+00
   3.7695382E-04   9.3276660E+04   -1.7235755E+00
   3.7869463E-04   9.2538975E+04   -1.7230060E+00
   3.8044348E-04   9.1807364E+04   -1.7224368E+00
   3.8220041E-04   9.1081776E+04   -1.7218679E+00
   3.8396545E-04   9.0362159E+04   -1.7212993E+00
   3.8573864E-04   8.9648463E+04   -1.7207310E+00
   3.8752002E-04   8.8940637E+04   -1.7201630E+00
   3.8930963E-04   8.8238630E+04   -1.7195953E+00
   3.9110750E-04   8.7542392E+04   -1.7190280E+00
   3.9291368E-04   8.6851876E+04   -1.7184609E+00
   3.9472820E-04   8.6167031E+04   -1.7178942E+00
   3.9655109E-04   8.5487809E+04   -1.7173278E+00
   3.9838241E-04   8.4814163E+04   -1.7167617E+00
   4.0022218E-04   8.4146044E+04   -1.7161960E+00
   4.0207045E-04   8.3483406E+04   -1.7156307E+00
   4.0392725E-04   8.2826202E+04   -1.7150657E+00
   4.0579263E-04   8.2174386E+04   -1.7145011E+00
   4.0766662E-04   8.1527911E+04   -1.7139368E+00
   4.0954927E-04   8.0886732E+04   -1.7133729E+00
   4.1144061E-04   8.0250805E+04   -1.7128094E+00
   4.1334068E-04   7.9620083E+04   -1.7122463E+00
   4.1524953E-04   7.8994523E+04   -1.7116835E+00
   4.1716720E-04   7.8374082E+04   -1.7111212E+00
   4.1909372E-04   7.7758715E+04   -1.7105593E+00
   4.2102914E-04   7.7148379E+04   -1.7099977E+00
   4.2297350E-04   7.6543032E+04   -1.7094366E+00
   4.2492683E-04   7.5942631E+04   -1.7088759E+00
   4.2688919E-04   7.5347134E+04   -1.7083157E+00
   4.2886061E-04   7.4756499E+04   -1.7077558E+00
   4.3084113E-04   7.4170686E+04   -1.7071964E+00
   4.3283080E-04   7.3589653E+04   -1.7066374E+00
   4.3482966E-04   7.3013360E+04   -1.7060789E+00
   4.3683775E-04   7.2441766E+04   -1.7055209E+00
   4.3885511E-04   7.1874831E+04   -1.7049632E+00
   4.4088179E-04   7.1312516E+04   -1.7044061E+00
   4.4291783E-04   7.0754783E+04   -1.7038494E+00
   4.4496327E-04   7.0201591E+04   -1.7032932E+00
   4.4701816E-04   6.9652903E+04   -1.7027374E+00
   4.4908253E-04   6.9108680E+04   -1.7021822E+00
   4.5115644E-04   6.8568884E+04   -1.7016274E+00
   4.5323993E-04   6.8033479E+04   -1.7010732E+00
   4.5533304E-04   6.7502427E+04   -1.7005194E+00
   4.5743582E-04   6.6975691E+04   -1.6999661E+00
   4.5954830E-04   6.6453234E+04   -1.6994134E+00
   4.6167054E-04   6.5935021E+04   -1.6988611E+00
   4.6380259E-04   6.5421015E+04   -1.6983094E+00
   4.6594448E-04   6.4911181E+04   -1.6977582E+00
   4.6809626E-04   6.4405484E+04   -1.6972075E+00
   4.7025797E-04   6.3903888E+04   -1.6966574E+00
   4.7242967E-04   6.3406360E+04   -1.6961078E+00
   4.7461140E-04   6.2912864E+04   -1.6955587E+00
   4.7680321E-04   6.2423368E+04   -1.6950102E+00
   4.7900514E-04   6.1937836E+04   -1.6944623E+00
   4.8121723E-04   6.1456235E+04   -1.6939149E+00
   4.8343954E-04   6.0978534E+04   -1.6933681E+00
   4.8567212E-04   6.0504697E+04   -1.6928218E+00
   4.8791500E-04   6.0034694E+04   -1.6922761E+00
   4.9016825E-04   5.9568492E+04   -1.6917310E+00
   4.9243189E-04   5.9106058E+04   -1.6911865E+00
   4.9470600E-04   5.8647361E+04   -1.6906426E+00
   4.9699060E-04   5.8192369E+04   -1.6900992E+00
   4.9928575E-04   5.7741052E+04   -1.6895565E+00
   5.0159151E-04   5.7293378E+04   -1.6890144E+00
   5.0390791E-04   5.6849318E+04   -1.6884728E+00
   5.0623501E-04   5.6408839E+04   -1.6879319E+00
   5.0857286E-04   5.5971913E+04   -1.6873916E+00
   5.1092150E-04   5.5538509E+04   -1.6868519E+00
   5.1328099E-04   5.5108598E+04   -1.6863129E+00
   5.1565137E-04   5.4682151E+04   -1.6857745E+00
   5.1803270E-04   5.4259139E+04   -1.6852367E+00
   5.2042503E-04   5.3839532E+04   -1.6846996E+00
   5.2282841E-04   5.3423302E+04   -1.6841631E+00
   5.2524289E-04   5.3010421E+04   -1.6836272E+00
   5.2766851E-04   5.2600860E+04   -1.6830920E+00
   5.3010534E-04   5.2194593E+04   -1.6825575E+00
   5.3255342E-04   5.1791591E+04   -1.6820236E+00
   5.3501281E-04   5.1391827E+04   -1.6814904E+00
   5.3748356E-04   5.0995273E+04   -1.6809579E+00
   5.3996571E-04   5.0601904E+04   -1.6804260E+00
   5.4245933E-04   5.0211692E+04   -1.6798949E+00
   5.4496446E-04   4.9824611E+04   -1.6793644E+00
   5.4748117E-04   4.9440635E+04   -1.6788346E+00
   5.5000949E-04   4.9059737E+04   -1.6783055E+00
   5.5254949E-04   4.8681893E+04   -1.6777770E+00
   5.5510123E-04   4.8307076E+04   -1.6772493E+00
   5.5766474E-04   4.7935262E+04   -1.6767223E+00
   5.6024010E-04   4.7566425E+04   -1.6761960E+00
   5.6282734E-04   4.7200540E+04   -1.6756705E+00
   5.6542654E-04   4.6837583E+04   -1.6751456E+00
   5.6803774E-04   4.6477529E+04   -1.6746215E+00
   5.7066099E-04   4.6120354E+04   -1.6740980E+00
   5.7329637E-04   4.5766035E+04   -1.6735754E+00
   5.7594391E-04   4.5414547E+04   -1.6730534E+00
   5.7860368E-04   4.5065867E+04   -1.6725322E+00
   5.8127573E-04   4.4719971E+04   -1.6720117E+00
   5.8396012E-04   4.4376836E+04   -1.6714920E+00
   5.8665691E-04   4.4036439E+04   -1.6709731E+00
   5.8936616E-04   4.3698758E+04   -1.6704548E+00
   5.9208791E-04   4.3363770E+04   -1.6699374E+00
   5.9482223E-04   4.3031453E+04   -1.6694207E+00
   5.9756919E-04   4.2701783E+04   -1.6689047E+00
   6.0032882E-04   4.2374740E+04   -1.6683896E+00
   6.0310120E-04   4.2050301E+04   -1.6678752E+00
   6.0588639E-04   4.1728446E+04   -1.6673616E+00
   6.0868443E-04   4.1409151E+04   -1.6668488E+00
   6.1149540E-04   4.1092397E+04   -1.6663367E+00
   6.1431935E-04   4.0778162E+04   -1.6658254E+00
   6.1715634E-04   4.0466425E+04   -1.6653150E+00
   6.2000644E-04   4.0157166E+04   -1.6648053E+00
   6.2286969E-04   3.9850364E+04   -1.6642964E+00
