#        a       HoverH0(a)       dlogHdloga_of_a(a)
   1.0000000E-04   1.0817908E+06   -1.8926253E+00
   1.0046181E-04   1.0723994E+06   -1.8922362E+00
   1.0092575E-04   1.0630913E+06   -1.8918462E+00
   1.0139184E-04   1.0538660E+06   -1.8914552E+00
   1.0186008E-04   1.0447226E+06   -1.8910631E+00
   1.0233048E-04   1.0356603E+06   -1.8906700E+00
   1.0280305E-04   1.0266786E+06   -1.8902759E+00
   1.0327781E-04   1.0177766E+06   -1.8898808E+00
   1.0375475E-04   1.0089536E+06   -1.8894846E+00
   1.0423390E-04   1.0002090E+06   -1.8890874E+00
   1.0471527E-04   9.9154191E+05   -1.8886892E+00
   1.0519885E-04   9.8295176E+05   -1.8882900E+00
   1.0568467E-04   9.7443783E+05   -1.8878898E+00
   1.0617274E-04   9.6599942E+05   -1.8874885E+00
   1.0666305E-04   9.5763587E+05   -1.8870863E+00
   1.0715563E-04   9.4934649E+05   -1.8866830E+00
   1.0765049E-04   9.4113061E+05   -1.8862787E+00
   1.0814763E-04   9.3298758E+05   -1.8858734E+00
   1.0864707E-04   9.2491673E+05   -1.8854670E+00
   1.0914881E-04   9.1691741E+05   -1.8850597E+00
   1.0965287E-04   9.0898899E+05   -1.8846513E+00
   1.1015926E-04   9.0113082E+05   -1.8842419E+00
   1.1066799E-04   8.9334228E+05   -1.8838315E+00
   1.1117906E-04   8.8562272E+05   -1.8834201E+00
   1.1169250E-04   8.7797154E+05   -1.8830077E+00
   1.1220831E-04   8.7038811E+05   -1.8825943E+00
   1.1272650E-04   8.6287183E+05   -1.8821798E+00
   1.1324708E-04   8.5542210E+05   -1.8817644E+00
   1.1377007E-04   8.4803831E+05   -1.8813479E+00
   1.1429547E-04   8.4071987E+05   -1.8809304E+00
   1.1482330E-04   8.3346619E+05   -1.8805119E+00
   1.1535356E-04   8.2627669E+05   -1.8800924E+00
   1.1588628E-04   8.1915080E+05   -1.8796719E+00
   1.1642145E-04   8.1208793E+05   -1.8792504E+00
   1.1695910E-04   8.0508752E+05   -1.8788279E+00
   1.1749923E-04   7.9814902E+05   -1.8784044E+00
   1.1804185E-04   7.9127186E+05   -1.8779799E+00
   1.1858698E-04   7.8445549E+05   -1.8775543E+00
   1.1913463E-04   7.7769937E+05   -1.8771278E+00
   1.1968481E-04   7.7100295E+05   -1.8767003E+00
   1.2023752E-04   7.6436570E+05   -1.8762718E+00
   1.2079279E-04   7.5778708E+05   -1.8758422E+00
   1.2135063E-04   7.5126658E+05   -1.8754117E+00
   1.2191104E-04   7.4480366E+05   -1.8749802E+00
   1.2247403E-04   7.3839781E+05   -1.8745477E+00
   1.2303963E-04   7.3204851E+05   -1.8741142E+00
   1.2360784E-04   7.2575526E+05   -1.8736797E+00
   1.2417868E-04   7.1951755E+05   -1.8732442E+00
   1.2475215E-04   7.1333489E+05   -1.8728077E+00
   1.2532826E-04   7.0720678E+05   -1.8723702E+00
   1.2590704E-04   7.0113273E+05   -1.8719318E+00
   1.2648850E-04   6.9511225E+05   -1.8714923E+00
   1.2707263E-04   6.8914487E+05   -1.8710519E+00
   1.2765947E-04   6.8323010E+05   -1.8706105E+00
   1.2824901E-04   6.7736748E+05   -1.8701681E+00
   1.2884128E-04   6.7155653E+05   -1.8697247E+00
   1.2943628E-04   6.6579680E+05   -1.8692803E+00
   1.3003403E-04   6.6008782E+05   -1.8688350E+00
   1.3063454E-04   6.5442914E+05   -1.8683887E+00
   1.3123783E-04   6.4882030E+05   -1.8679414E+00
   1.3184390E-04   6.4326085E+05   -1.8674931E+00
   1.3245277E-04   6.3775037E+05   -1.8670439E+00
   1.3306445E-04   6.3228840E+05   -1.8665937E+00
   1.3367895E-04   6.2687451E+05   -1.8661425E+00
   1.3429630E-04   6.2150826E+05   -1.8656904E+00
   1.3491649E-04   6.1618924E+05   -1.8652373E+00
   1.3553955E-04   6.1091702E+05   -1.8647832E+00
   1.3616548E-04   6.0569118E+05   -1.8643282E+00
   1.3679431E-04   6.0051130E+05   -1.8638722E+00
   1.3742604E-04   5.9537697E+05   -1.8634152E+00
   1.3806069E-04   5.9028779E+05   -1.8629573E+00
   1.3869827E-04   5.8524334E+05   -1.8624985E+00
   1.3933879E-04   5.8024322E+05   -1.8620387E+00
   1.3998227E-04   5.7528705E+05   -1.8615779E+00
   1.4062872E-04   5.7037442E+05   -1.8611162E+00
   1.4127816E-04   5.6550495E+05   -1.8606535E+00
   1.4193060E-04   5.6067824E+05   -1.8601899E+00
   1.4258605E-04   5.5589392E+05   -1.8597254E+00
   1.4324453E-04   5.5115161E+05   -1.8592599E+00
   1.4390605E-04   5.4645093E+05   -1.8587935E+00
   1.4457062E-04   5.4179150E+05   -1.8583261E+00
   1.4523826E-04   5.3717296E+05   -1.8578578E+00
   1.4590899E-04   5.3259495E+05   -1.8573886E+00
   1.4658281E-04   5.2805709E+05   -1.8569184E+00
   1.4725974E-04   5.2355903E+05   -1.8564473E+00
   1.4793981E-04   5.1910041E+05   -1.8559753E+00
   1.4862301E-04   5.1468089E+05   -1.8555024E+00
   1.4930936E-04   5.1030010E+05   -1.8550286E+00
   1.4999889E-04   5.0595770E+05   -1.8545538E+00
   1.5069160E-04   5.0165336E+05   -1.8540781E+00
   1.5138751E-04   4.9738673E+05   -1.8536015E+00
   1.5208663E-04   4.9315746E+05   -1.8531240E+00
   1.5278899E-04   4.8896524E+05   -1.8526456E+00
   1.5349458E-04   4.8480972E+05   -1.8521662E+00
   1.5420343E-04   4.8069059E+05   -1.8516860E+00
   1.5491556E-04   4.7660750E+05   -1.8512049E+00
   1.5563098E-04   4.7256015E+05   -1.8507228E+00
   1.5634970E-04   4.6854821E+05   -1.8502399E+00
   1.5707174E-04   4.6457136E+05   -1.8497561E+00
   1.5779711E-04   4.6062930E+05   -1.8492714E+00
   1.5852584E-04   4.5672170E+05   -1.8487858E+00
   1.5925792E-04   4.5284827E+05   -1.8482993E+00
   1.5999339E-04   4.4900870E+05   -1.8478119E+00
   1.6073226E-04   4.4520268E+05   -1.8473237E+00
   1.6147454E-04   4.4142991E+05   -1.8468346E+00
   1.6222024E-04   4.3769011E+05   -1.8463446E+00
   1.6296939E-04   4.3398297E+05   -1.8458537E+00
   1.6372200E-04   4.3030821E+05   -1.8453620E+00
   1.6447809E-04   4.2666552E+05   -1.8448694E+00
   1.6523767E-04   4.2305464E+05   -1.8443759E+00
   1.6600075E-04   4.1947527E+05   -1.8438816E+00
   1.6676736E-04   4.1592713E+05   -1.8433864E+00
   1.6753751E-04   4.1240994E+05   -1.8428904E+00
   1.6831122E-04   4.0892343E+05   -1.8423935E+00
   1.6908849E-04   4.0546733E+05   -1.8418958E+00
   1.6986936E-04   4.0204135E+05   -1.8413972E+00
   1.7065384E-04   3.9864525E+05   -1.8408978E+00
   1.7144193E-04   3.9527874E+05   -1.8403975E+00
   1.7223367E-04   3.9194156E+05   -1.8398965E+00
   1.7302906E-04   3.8863346E+05   -1.8393945E+00
   1.7382813E-04   3.8535417E+05   -1.8388918E+00
   1.7463089E-04   3.8210343E+05   -1.8383882E+00
   1.7543735E-04   3.7888100E+05   -1.8378838E+00
   1.7624754E-04   3.7568662E+05   -1.8373786E+00
   1.7706147E-04   3.7252004E+05   -1.8368726E+00
   1.7787916E-04   3.6938101E+05   -1.8363658E+00
   1.7870062E-04   3.6626929E+05   -1.8358581E+00
   1.7952588E-04   3.6318463E+05   -1.8353497E+00
   1.8035495E-04   3.6012679E+05   -1.8348404E+00
   1.8118785E-04   3.5709554E+05   -1.8343304E+00
   1.8202459E-04   3.5409063E+05   -1.8338196E+00
   1.8286520E-04   3.5111184E+05   -1.8333079E+00
   1.8370969E-04   3.4815893E+05   -1.8327955E+00
   1.8455808E-04   3.4523167E+05   -1.8322823E+00
   1.8541039E-04   3.4232983E+05   -1.8317684E+00
   1.8626663E-04   3.3945319E+05   -1.8312536E+00
   1.8712683E-04   3.3660152E+05   -1.8307381E+00
   1.8799100E-04   3.3377459E+05   -1.8302218E+00
   1.8885917E-04   3.3097220E+05   -1.8297047E+00
   1.8973134E-04   3.2819412E+05   -1.8291869E+00
   1.9060754E-04   3.2544014E+05   -1.8286683E+00
   1.9148778E-04   3.2271003E+05   -1.8281490E+00
   1.9237209E-04   3.2000360E+05   -1.8276289E+00
   1.9326049E-04   3.1732062E+05   -1.8271081E+00
   1.9415299E-04   3.1466089E+05   -1.8265866E+00
   1.9504960E-04   3.1202421E+05   -1.8260643E+00
   1.9595036E-04   3.0941037E+05   -1.8255412E+00
   1.9685528E-04   3.0681916E+05   -1.8250175E+00
   1.9776438E-04   3.0425039E+05   -1.8244930E+00
   1.9867768E-04   3.0170385E+05   -1.8239678E+00
   1.9959519E-04   2.9917935E+05   -1.8234419E+00
   2.0051694E-04   2.9667670E+05   -1.8229152E+00
   2.0144295E-04   2.9419569E+05   -1.8223879E+00
   2.0237324E-04   2.9173614E+05   -1.8218599E+00
   2.0330782E-04   2.8929786E+05   -1.8213311E+00
   2.0424671E-04   2.8688066E+05   -1.8208017E+00
   2.0518995E-04   2.8448435E+05   -1.8202715E+00
   2.0613754E-04   2.8210874E+05   -1.8197407E+00
   2.0708950E-04   2.7975366E+05   -1.8192092E+00
   2.0804586E-04   2.7741891E+05   -1.8186770E+00
   2.0900664E-04   2.7510433E+05   -1.8181442E+00
   2.0997185E-04   2.7280973E+05   -1.8176106E+00
   2.1094152E-04   2.7053493E+05   -1.8170764E+00
   2.1191567E-04   2.6827976E+05   -1.8165416E+00
   2.1289432E-04   2.6604405E+05   -1.8160061E+00
   2.1387749E-04   2.6382762E+05   -1.8154699E+00
   2.1486520E-04   2.6163030E+05   -1.8149331E+00
   2.1585747E-04   2.5945192E+05   -1.8143957E+00
   2.1685432E-04   2.5729232E+05   -1.8138576E+00
   2.1785578E-04   2.5515133E+05   -1.8133188E+00
   2.1886186E-04   2.5302878E+05   -1.8127795E+00
   2.1987259E-04   2.5092451E+05   -1.8122395E+00
   2.2088798E-04   2.4883836E+05   -1.8116989E+00
   2.2190807E-04   2.4677017E+05   -1.8111577E+00
   2.2293286E-04   2.4471978E+05   -1.8106158E+00
   2.2396239E-04   2.4268704E+05   -1.8100734E+00
   2.2499667E-04   2.4067178E+05   -1.8095304E+00
   2.2603573E-04   2.3867385E+05   -1.8089867E+00
   2.2707958E-04   2.3669310E+05   -1.8084425E+00
   2.2812826E-04   2.3472938E+05   -1.8078977E+00
   2.2918178E-04   2.3278253E+05   -1.8073523E+00
   2.3024017E-04   2.3085242E+05   -1.8068064E+00
   2.3130344E-04   2.2893888E+05   -1.8062598E+00
   2.3237162E-04   2.2704177E+05   -1.8057127E+00
   2.3344474E-04   2.2516096E+05   -1.8051650E+00
   2.3452281E-04   2.2329629E+05   -1.8046168E+00
   2.3560586E-04   2.2144762E+05   -1.8040680E+00
   2.3669392E-04   2.1961481E+05   -1.8035187E+00
   2.3778699E-04   2.1779772E+05   -1.8029688E+00
   2.3888512E-04   2.1599621E+05   -1.8024184E+00
   2.3998831E-04   2.1421015E+05   -1.8018675E+00
   2.4109661E-04   2.1243940E+05   -1.8013160E+00
   2.4221001E-04   2.1068382E+05   -1.8007640E+00
   2.4332857E-04   2.0894328E+05   -1.8002115E+00
   2.4445228E-04   2.0721764E+05   -1.7996585E+00
   2.4558119E-04   2.0550679E+05   -1.7991050E+00
   2.4671531E-04   2.0381057E+05   -1.7985509E+00
   2.4785467E-04   2.0212888E+05   -1.7979964E+00
   2.4899928E-04   2.0046157E+05   -1.7974414E+00
   2.5014919E-04   1.9880853E+05   -1.7968859E+00
   2.5130440E-04   1.9716962E+05   -1.7963299E+00
   2.5246495E-04   1.9554472E+05   -1.7957734E+00
   2.5363086E-04   1.9393371E+05   -1.7952165E+00
   2.5480216E-04   1.9233647E+05   -1.7946591E+00
   2.5597886E-04   1.9075287E+05   -1.7941013E+00
   2.5716100E-04   1.8918280E+05   -1.7935430E+00
   2.5834859E-04   1.8762613E+05   -1.7929842E+00
   2.5954168E-04   1.8608275E+05   -1.7924250E+00
   2.6074027E-04   1.8455254E+05   -1.7918654E+00
   2.6194439E-04   1.8303539E+05   -1.7913053E+00
   2.6315408E-04   1.8153118E+05   -1.7907448E+00
   2.6436935E-04   1.8003979E+05   -1.7901839E+00
   2.6559024E-04   1.7856112E+05   -1.7896225E+00
   2.6681676E-04   1.7709505E+05   -1.7890608E+00
   2.6804895E-04   1.7564148E+05   -1.7884986E+00
   2.6928683E-04   1.7420029E+05   -1.7879361E+00
   2.7053042E-04   1.7277136E+05   -1.7873732E+00
   2.7177976E-04   1.7135461E+05   -1.7868098E+00
   2.7303487E-04   1.6994991E+05   -1.7862461E+00
   2.7429577E-04   1.6855717E+05   -1.7856820E+00
   2.7556250E-04   1.6717628E+05   -1.7851175E+00
   2.7683507E-04   1.6580713E+05   -1.7845527E+00
   2.7811353E-04   1.6444962E+05   -1.7839875E+00
   2.7939788E-04   1.6310365E+05   -1.7834220E+00
   2.8068817E-04   1.6176912E+05   -1.7828561E+00
   2.8198442E-04   1.6044592E+05   -1.7822899E+00
   2.8328665E-04   1.5913397E+05   -1.7817233E+00
   2.8459490E-04   1.5783315E+05   -1.7811564E+00
   2.8590919E-04   1.5654338E+05   -1.7805891E+00
   2.8722955E-04   1.5526455E+05   -1.7800216E+00
   2.8855600E-04   1.5399657E+05   -1.7794537E+00
   2.8988859E-04   1.5273935E+05   -1.7788855E+00
   2.9122732E-04   1.5149278E+05   -1.7783171E+00
   2.9257224E-04   1.5025679E+05   -1.7777483E+00
   2.9392337E-04   1.4903127E+05   -1.7771792E+00
   2.9528074E-04   1.4781613E+05   -1.7766099E+00
   2.9664438E-04   1.4661129E+05   -1.7760402E+00
   2.9801431E-04   1.4541664E+05   -1.7754703E+00
   2.9939057E-04   1.4423211E+05   -1.7749001E+00
   3.0077319E-04   1.4305761E+05   -1.7743297E+00
   3.0216219E-04   1.4189304E+05   -1.7737590E+00
   3.0355761E-04   1.4073833E+05   -1.7731881E+00
   3.0495947E-04   1.3959337E+05   -1.7726169E+00
   3.0636780E-04   1.3845810E+05   -1.7720454E+00
   3.0778264E-04   1.3733242E+05   -1.7714738E+00
   3.0920401E-04   1.3621625E+05   -1.7709019E+00
   3.1063195E-04   1.3510951E+05   -1.7703298E+00
   3.1206648E-04   1.3401212E+05   -1.7697574E+00
   3.1350764E-04   1.3292398E+05   -1.7691849E+00
   3.1495545E-04   1.3184504E+05   -1.7686122E+00
   3.1640994E-04   1.3077519E+05   -1.7680392E+00
   3.1787116E-04   1.2971437E+05   -1.7674661E+00
   3.1933912E-04   1.2866249E+05   -1.7668928E+00
   3.2081386E-04   1.2761948E+05   -1.7663193E+00
   3.2229541E-04   1.2658526E+05   -1.7657456E+00
   3.2378381E-04   1.2555976E+05   -1.7651718E+00
   3.2527908E-04   1.2454289E+05   -1.7645978E+00
   3.2678125E-04   1.2353458E+05   -1.7640237E+00
   3.2829036E-04   1.2253476E+05   -1.7634494E+00
   3.2980644E-04   1.2154335E+05   -1.7628749E+00
   3.3132952E-04   1.2056029E+05   -1.7623004E+00
   3.3285963E-04   1.1958549E+05   -1.7617257E+00
   3.3439681E-04   1.1861889E+05   -1.7611508E+00
   3.3594109E-04   1.1766041E+05   -1.7605759E+00
   3.3749250E-04   1.1670999E+05   -1.7600008E+00
   3.3905108E-04   1.1576755E+05   -1.7594256E+00
   3.4061685E-04   1.1483302E+05   -1.7588504E+00
   3.4218986E-04   1.1390635E+05   -1.7582750E+00
   3.4377013E-04   1.1298744E+05   -1.7576995E+00
   3.4535769E-04   1.1207625E+05   -1.7571240E+00
   3.4695259E-04   1.1117271E+05   -1.7565484E+00
   3.4855485E-04   1.1027673E+05   -1.7559727E+00
   3.5016452E-04   1.0938827E+05   -1.7553970E+00
   3.5178161E-04   1.0850726E+05   -1.7548212E+00
   3.5340618E-04   1.0763363E+05   -1.7542453E+00
   3.5503824E-04   1.0676731E+05   -1.7536694E+00
   3.5667785E-04   1.0590825E+05   -1.7530934E+00
   3.5832502E-04   1.0505638E+05   -1.7525175E+00
   3.5997981E-04   1.0421164E+05   -1.7519415E+00
   3.6164223E-04   1.0337396E+05   -1.7513654E+00
   3.6331233E-04   1.0254329E+05   -1.7507894E+00
   3.6499015E-04   1.0171956E+05   -1.7502133E+00
   3.6667571E-04   1.0090272E+05   -1.7496373E+00
   3.6836906E-04   1.0009271E+05   -1.7490612E+00
   3.7007022E-04   9.9289459E+04   -1.7484852E+00
   3.7177925E-04   9.8492917E+04   -1.7479092E+00
   3.7349616E-04   9.7703025E+04   -1.7473332E+00
   3.7522101E-04   9.6919724E+04   -1.7467572E+00
   3.7695382E-04   9.6142959E+04   -1.7461812E+00
   3.7869463E-04   9.5372672E+04   -1.7456053E+00
   3.8044348E-04   9.4608808E+04   -1.7450295E+00
   3.8220041E-04   9.3851311E+04   -1.7444537E+00
   3.8396545E-04   9.3100126E+04   -1.7438779E+00
   3.8573864E-04   9.2355198E+04   -1.7433022E+00
   3.8752002E-04   9.1616473E+04   -1.7427266E+00
   3.8930963E-04   9.0883899E+04   -1.7421511E+00
   3.9110750E-04   9.0157421E+04   -1.7415756E+00
   3.9291368E-04   8.9436987E+04   -1.7410003E+00
   3.9472820E-04   8.8722546E+04   -1.7404250E+00
   3.9655109E-04   8.8014044E+04   -1.7398498E+00
   3.9838241E-04   8.7311432E+04   -1.7392748E+00
   4.0022218E-04   8.6614659E+04   -1.7386998E+00
   4.0207045E-04   8.5923673E+04   -1.7381250E+00
   4.0392725E-04   8.5238426E+04   -1.7375503E+00
   4.0579263E-04   8.4558868E+04   -1.7369757E+00
   4.0766662E-04   8.3884949E+04   -1.7364012E+00
   4.0954927E-04   8.3216621E+04   -1.7358269E+00
   4.1144061E-04   8.2553837E+04   -1.7352528E+00
   4.1334068E-04   8.1896548E+04   -1.7346788E+00
   4.1524953E-04   8.1244707E+04   -1.7341050E+00
   4.1716720E-04   8.0598267E+04   -1.7335313E+00
   4.1909372E-04   7.9957182E+04   -1.7329578E+00
   4.2102914E-04   7.9321406E+04   -1.7323845E+00
   4.2297350E-04   7.8690893E+04   -1.7318114E+00
   4.2492683E-04   7.8065599E+04   -1.7312384E+00
   4.2688919E-04   7.7445477E+04   -1.7306657E+00
   4.2886061E-04   7.6830484E+04   -1.7300932E+00
   4.3084113E-04   7.6220576E+04   -1.7295208E+00
   4.3283080E-04   7.5615709E+04   -1.7289487E+00
   4.3482966E-04   7.5015839E+04   -1.7283768E+00
   4.3683775E-04   7.4420924E+04   -1.7278052E+00
   4.3885511E-04   7.3830922E+04   -1.7272337E+00
   4.4088179E-04   7.3245790E+04   -1.7266625E+00
   4.4291783E-04   7.2665487E+04   -1.7260916E+00
   4.4496327E-04   7.2089971E+04   -1.7255209E+00
   4.4701816E-04   7.1519200E+04   -1.7249504E+00
   4.4908253E-04   7.0953136E+04   -1.7243803E+00
   4.5115644E-04   7.0391736E+04   -1.7238103E+00
   4.5323993E-04   6.9834962E+04   -1.7232407E+00
   4.5533304E-04   6.9282774E+04   -1.7226713E+00
   4.5743582E-04   6.8735132E+04   -1.7221023E+00
   4.5954830E-04   6.8191998E+04   -1.7215335E+00
   4.6167054E-04   6.7653332E+04   -1.7209650E+00
   4.6380259E-04   6.7119098E+04   -1.7203968E+00
   4.6594448E-04   6.6589256E+04   -1.7198290E+00
   4.6809626E-04   6.6063770E+04   -1.7192614E+00
   4.7025797E-04   6.5542602E+04   -1.7186942E+00
   4.7242967E-04   6.5025715E+04   -1.7181272E+00
   4.7461140E-04   6.4513073E+04   -1.7175607E+00
   4.7680321E-04   6.4004639E+04   -1.7169944E+00
   4.7900514E-04   6.3500379E+04   -1.7164285E+00
   4.8121723E-04   6.3000255E+04   -1.7158630E+00
   4.8343954E-04   6.2504233E+04   -1.7152978E+00
   4.8567212E-04   6.2012278E+04   -1.7147329E+00
   4.8791500E-04   6.1524355E+04   -1.7141685E+00
   4.9016825E-04   6.1040430E+04   -1.7136044E+00
   4.9243189E-04   6.0560468E+04   -1.7130406E+00
   4.9470600E-04   6.0084436E+04   -1.7124773E+00
   4.9699060E-04   5.9612301E+04   -1.7119144E+00
   4.9928575E-04   5.9144029E+04   -1.7113518E+00
   5.0159151E-04   5.8679588E+04   -1.7107896E+00
   5.0390791E-04   5.8218944E+04   -1.7102279E+00
   5.0623501E-04   5.7762066E+04   -1.7096666E+00
   5.0857286E-04   5.7308922E+04   -1.7091056E+00
   5.1092150E-04   5.6859479E+04   -1.7085451E+00
   5.1328099E-04   5.6413707E+04   -1.7079850E+00
   5.1565137E-04   5.5971574E+04   -1.7074254E+00
   5.1803270E-04   5.5533049E+04   -1.7068662E+00
   5.2042503E-04   5.5098102E+04   -1.7063074E+00
   5.2282841E-04   5.4666702E+04   -1.7057491E+00
   5.2524289E-04   5.4238820E+04   -1.7051912E+00
   5.2766851E-04   5.3814424E+04   -1.7046338E+00
   5.3010534E-04   5.3393487E+04   -1.7040769E+00
   5.3255342E-04   5.2975978E+04   -1.7035204E+00
   5.3501281E-04   5.2561868E+04   -1.7029644E+00
   5.3748356E-04   5.2151129E+04   -1.7024089E+00
   5.3996571E-04   5.1743732E+04   -1.7018539E+00
   5.4245933E-04   5.1339649E+04   -1.7012994E+00
   5.4496446E-04   5.0938851E+04   -1.7007453E+00
   5.4748117E-04   5.0541312E+04   -1.7001918E+00
   5.5000949E-04   5.0147002E+04   -1.6996387E+00
   5.5254949E-04   4.9755896E+04   -1.6990862E+00
   5.5510123E-04   4.9367966E+04   -1.6985342E+00
   5.5766474E-04   4.8983185E+04   -1.6979827E+00
   5.6024010E-04   4.8601526E+04   -1.6974318E+00
   5.6282734E-04   4.8222963E+04   -1.6968814E+00
   5.6542654E-04   4.7847470E+04   -1.6963315E+00
   5.6803774E-04   4.7475022E+04   -1.6957821E+00
   5.7066099E-04   4.7105591E+04   -1.6952333E+00
   5.7329637E-04   4.6739154E+04   -1.6946851E+00
   5.7594391E-04   4.6375684E+04   -1.6941374E+00
   5.7860368E-04   4.6015157E+04   -1.6935903E+00
   5.8127573E-04   4.5657547E+04   -1.6930437E+00
   5.8396012E-04   4.5302831E+04   -1.6924977E+00
   5.8665691E-04   4.4950984E+04   -1.6919523E+00
   5.8936616E-04   4.4601981E+04   -1.6914075E+00
   5.9208791E-04   4.4255799E+04   -1.6908633E+00
   5.9482223E-04   4.3912414E+04   -1.6903196E+00
   5.9756919E-04   4.3571802E+04   -1.6897766E+00
   6.0032882E-04   4.3233941E+04   -1.6892341E+00
   6.0310120E-04   4.2898806E+04   -1.6886923E+00
   6.0588639E-04   4.2566376E+04   -1.6881510E+00
   6.0868443E-04   4.2236627E+04   -1.6876104E+00
   6.1149540E-04   4.1909536E+04   -1.6870704E+00
   6.1431935E-04   4.1585083E+04   -1.6865310E+00
   6.1715634E-04   4.1263243E+04   -1.6859923E+00
   6.2000644E-04   4.0943996E+04   -1.6854542E+00
   6.2286969E-04   4.0627319E+04   -1.6849167E+00
