#        a       HoverH0(a)       dlogHdloga_of_a(a)
   1.0000000E-04   1.0529426E+06   -1.8591745E+00
   1.0046181E-04   1.0439627E+06   -1.8587079E+00
   1.0092575E-04   1.0350615E+06   -1.8582404E+00
   1.0139184E-04   1.0262385E+06   -1.8577719E+00
   1.0186008E-04   1.0174928E+06   -1.8573026E+00
   1.0233048E-04   1.0088239E+06   -1.8568323E+00
   1.0280305E-04   1.0002310E+06   -1.8563610E+00
   1.0327781E-04   9.9171347E+05   -1.8558888E+00
   1.0375475E-04   9.8327059E+05   -1.8554158E+00
   1.0423390E-04   9.7490172E+05   -1.8549418E+00
   1.0471527E-04   9.6660619E+05   -1.8544668E+00
   1.0519885E-04   9.5838335E+05   -1.8539910E+00
   1.0568467E-04   9.5023254E+05   -1.8535142E+00
   1.0617274E-04   9.4215312E+05   -1.8530366E+00
   1.0666305E-04   9.3414446E+05   -1.8525580E+00
   1.0715563E-04   9.2620592E+05   -1.8520785E+00
   1.0765049E-04   9.1833688E+05   -1.8515981E+00
   1.0814763E-04   9.1053671E+05   -1.8511169E+00
   1.0864707E-04   9.0280479E+05   -1.8506347E+00
   1.0914881E-04   8.9514052E+05   -1.8501516E+00
   1.0965287E-04   8.8754330E+05   -1.8496676E+00
   1.1015926E-04   8.8001251E+05   -1.8491828E+00
   1.1066799E-04   8.7254758E+05   -1.8486970E+00
   1.1117906E-04   8.6514790E+05   -1.8482104E+00
   1.1169250E-04   8.5781291E+05   -1.8477229E+00
   1.1220831E-04   8.5054201E+05   -1.8472345E+00
   1.1272650E-04   8.4333464E+05   -1.8467453E+00
   1.1324708E-04   8.3619024E+05   -1.8462551E+00
   1.1377007E-04   8.2910823E+05   -1.8457641E+00
   1.1429547E-04   8.2208807E+05   -1.8452722E+00
   1.1482330E-04   8.1512920E+05   -1.8447795E+00
   1.1535356E-04   8.0823106E+05   -1.8442859E+00
   1.1588628E-04   8.0139313E+05   -1.8437914E+00
   1.1642145E-04   7.9461486E+05   -1.8432961E+00
   1.1695910E-04   7.8789572E+05   -1.8428000E+00
   1.1749923E-04   7.8123519E+05   -1.8423029E+00
   1.1804185E-04   7.7463273E+05   -1.8418051E+00
   1.1858698E-04   7.6808784E+05   -1.8413064E+00
   1.1913463E-04   7.6160000E+05   -1.8408068E+00
   1.1968481E-04   7.5516870E+05   -1.8403064E+00
   1.2023752E-04   7.4879343E+05   -1.8398052E+00
   1.2079279E-04   7.4247371E+05   -1.8393032E+00
   1.2135063E-04   7.3620902E+05   -1.8388003E+00
   1.2191104E-04   7.2999889E+05   -1.8382966E+00
   1.2247403E-04   7.2384282E+05   -1.8377921E+00
   1.2303963E-04   7.1774034E+05   -1.8372867E+00
   1.2360784E-04   7.1169096E+05   -1.8367806E+00
   1.2417868E-04   7.0569422E+05   -1.8362736E+00
   1.2475215E-04   6.9974964E+05   -1.8357659E+00
   1.2532826E-04   6.9385676E+05   -1.8352573E+00
   1.2590704E-04   6.8801512E+05   -1.8347479E+00
   1.2648850E-04   6.8222426E+05   -1.8342377E+00
   1.2707263E-04   6.7648373E+05   -1.8337268E+00
   1.2765947E-04   6.7079309E+05   -1.8332150E+00
   1.2824901E-04   6.6515189E+05   -1.8327025E+00
   1.2884128E-04   6.5955969E+05   -1.8321892E+00
   1.2943628E-04   6.5401606E+05   -1.8316751E+00
   1.3003403E-04   6.4852055E+05   -1.8311602E+00
   1.3063454E-04   6.4307275E+05   -1.8306446E+00
   1.3123783E-04   6.3767223E+05   -1.8301282E+00
   1.3184390E-04   6.3231856E+05   -1.8296110E+00
   1.3245277E-04   6.2701134E+05   -1.8290931E+00
   1.3306445E-04   6.2175015E+05   -1.8285744E+00
   1.3367895E-04   6.1653458E+05   -1.8280549E+00
   1.3429630E-04   6.1136423E+05   -1.8275348E+00
   1.3491649E-04   6.0623868E+05   -1.8270138E+00
   1.3553955E-04   6.0115756E+05   -1.8264922E+00
   1.3616548E-04   5.9612045E+05   -1.8259698E+00
   1.3679431E-04   5.9112698E+05   -1.8254466E+00
   1.3742604E-04   5.8617674E+05   -1.8249227E+00
   1.3806069E-04   5.8126937E+05   -1.8243982E+00
   1.3869827E-04   5.7640447E+05   -1.8238728E+00
   1.3933879E-04   5.7158168E+05   -1.8233468E+00
   1.3998227E-04   5.6680061E+05   -1.8228201E+00
   1.4062872E-04   5.6206090E+05   -1.8222926E+00
   1.4127816E-04   5.5736217E+05   -1.8217645E+00
   1.4193060E-04   5.5270408E+05   -1.8212356E+00
   1.4258605E-04   5.4808625E+05   -1.8207061E+00
   1.4324453E-04   5.4350832E+05   -1.8201759E+00
   1.4390605E-04   5.3896996E+05   -1.8196449E+00
   1.4457062E-04   5.3447079E+05   -1.8191133E+00
   1.4523826E-04   5.3001049E+05   -1.8185811E+00
   1.4590899E-04   5.2558870E+05   -1.8180481E+00
   1.4658281E-04   5.2120508E+05   -1.8175145E+00
   1.4725974E-04   5.1685929E+05   -1.8169802E+00
   1.4793981E-04   5.1255100E+05   -1.8164453E+00
   1.4862301E-04   5.0827987E+05   -1.8159097E+00
   1.4930936E-04   5.0404558E+05   -1.8153734E+00
   1.4999889E-04   4.9984780E+05   -1.8148365E+00
   1.5069160E-04   4.9568620E+05   -1.8142990E+00
   1.5138751E-04   4.9156048E+05   -1.8137608E+00
   1.5208663E-04   4.8747030E+05   -1.8132220E+00
   1.5278899E-04   4.8341535E+05   -1.8126825E+00
   1.5349458E-04   4.7939533E+05   -1.8121425E+00
   1.5420343E-04   4.7540993E+05   -1.8116018E+00
   1.5491556E-04   4.7145883E+05   -1.8110605E+00
   1.5563098E-04   4.6754173E+05   -1.8105186E+00
   1.5634970E-04   4.6365834E+05   -1.8099761E+00
   1.5707174E-04   4.5980835E+05   -1.8094329E+00
   1.5779711E-04   4.5599148E+05   -1.8088892E+00
   1.5852584E-04   4.5220742E+05   -1.8083449E+00
   1.5925792E-04   4.4845588E+05   -1.8078000E+00
   1.5999339E-04   4.4473659E+05   -1.8072546E+00
   1.6073226E-04   4.4104925E+05   -1.8067085E+00
   1.6147454E-04   4.3739359E+05   -1.8061619E+00
   1.6222024E-04   4.3376932E+05   -1.8056147E+00
   1.6296939E-04   4.3017616E+05   -1.8050670E+00
   1.6372200E-04   4.2661385E+05   -1.8045187E+00
   1.6447809E-04   4.2308211E+05   -1.8039699E+00
   1.6523767E-04   4.1958066E+05   -1.8034205E+00
   1.6600075E-04   4.1610925E+05   -1.8028705E+00
   1.6676736E-04   4.1266760E+05   -1.8023200E+00
   1.6753751E-04   4.0925546E+05   -1.8017690E+00
   1.6831122E-04   4.0587256E+05   -1.8012175E+00
   1.6908849E-04   4.0251865E+05   -1.8006655E+00
   1.6986936E-04   3.9919347E+05   -1.8001129E+00
   1.7065384E-04   3.9589677E+05   -1.7995598E+00
   1.7144193E-04   3.9262829E+05   -1.7990062E+00
   1.7223367E-04   3.8938779E+05   -1.7984521E+00
   1.7302906E-04   3.8617502E+05   -1.7978976E+00
   1.7382813E-04   3.8298974E+05   -1.7973425E+00
   1.7463089E-04   3.7983171E+05   -1.7967869E+00
   1.7543735E-04   3.7670068E+05   -1.7962309E+00
   1.7624754E-04   3.7359641E+05   -1.7956744E+00
   1.7706147E-04   3.7051868E+05   -1.7951174E+00
   1.7787916E-04   3.6746725E+05   -1.7945600E+00
   1.7870062E-04   3.6444188E+05   -1.7940021E+00
   1.7952588E-04   3.6144235E+05   -1.7934437E+00
   1.8035495E-04   3.5846843E+05   -1.7928849E+00
   1.8118785E-04   3.5551990E+05   -1.7923257E+00
   1.8202459E-04   3.5259652E+05   -1.7917660E+00
   1.8286520E-04   3.4969809E+05   -1.7912059E+00
   1.8370969E-04   3.4682438E+05   -1.7906454E+00
   1.8455808E-04   3.4397517E+05   -1.7900844E+00
   1.8541039E-04   3.4115025E+05   -1.7895230E+00
   1.8626663E-04   3.3834941E+05   -1.7889613E+00
   1.8712683E-04   3.3557243E+05   -1.7883991E+00
   1.8799100E-04   3.3281911E+05   -1.7878365E+00
   1.8885917E-04   3.3008923E+05   -1.7872735E+00
   1.8973134E-04   3.2738259E+05   -1.7867102E+00
   1.9060754E-04   3.2469899E+05   -1.7861464E+00
   1.9148778E-04   3.2203822E+05   -1.7855823E+00
   1.9237209E-04   3.1940009E+05   -1.7850178E+00
   1.9326049E-04   3.1678439E+05   -1.7844530E+00
   1.9415299E-04   3.1419094E+05   -1.7838877E+00
   1.9504960E-04   3.1161952E+05   -1.7833222E+00
   1.9595036E-04   3.0906996E+05   -1.7827563E+00
   1.9685528E-04   3.0654206E+05   -1.7821900E+00
   1.9776438E-04   3.0403562E+05   -1.7816234E+00
   1.9867768E-04   3.0155047E+05   -1.7810565E+00
   1.9959519E-04   2.9908641E+05   -1.7804892E+00
   2.0051694E-04   2.9664326E+05   -1.7799217E+00
   2.0144295E-04   2.9422084E+05   -1.7793538E+00
   2.0237324E-04   2.9181897E+05   -1.7787856E+00
   2.0330782E-04   2.8943746E+05   -1.7782171E+00
   2.0424671E-04   2.8707613E+05   -1.7776483E+00
   2.0518995E-04   2.8473482E+05   -1.7770793E+00
   2.0613754E-04   2.8241334E+05   -1.7765099E+00
   2.0708950E-04   2.8011153E+05   -1.7759403E+00
   2.0804586E-04   2.7782921E+05   -1.7753704E+00
   2.0900664E-04   2.7556620E+05   -1.7748002E+00
   2.0997185E-04   2.7332235E+05   -1.7742297E+00
   2.1094152E-04   2.7109748E+05   -1.7736590E+00
   2.1191567E-04   2.6889143E+05   -1.7730881E+00
   2.1289432E-04   2.6670403E+05   -1.7725169E+00
   2.1387749E-04   2.6453513E+05   -1.7719455E+00
   2.1486520E-04   2.6238455E+05   -1.7713738E+00
   2.1585747E-04   2.6025214E+05   -1.7708019E+00
   2.1685432E-04   2.5813774E+05   -1.7702298E+00
   2.1785578E-04   2.5604120E+05   -1.7696575E+00
   2.1886186E-04   2.5396235E+05   -1.7690850E+00
   2.1987259E-04   2.5190104E+05   -1.7685123E+00
   2.2088798E-04   2.4985713E+05   -1.7679394E+00
   2.2190807E-04   2.4783045E+05   -1.7673663E+00
   2.2293286E-04   2.4582087E+05   -1.7667930E+00
   2.2396239E-04   2.4382822E+05   -1.7662195E+00
   2.2499667E-04   2.4185236E+05   -1.7656458E+00
   2.2603573E-04   2.3989315E+05   -1.7650720E+00
   2.2707958E-04   2.3795044E+05   -1.7644981E+00
   2.2812826E-04   2.3602409E+05   -1.7639239E+00
   2.2918178E-04   2.3411395E+05   -1.7633497E+00
   2.3024017E-04   2.3221988E+05   -1.7627753E+00
   2.3130344E-04   2.3034175E+05   -1.7622007E+00
   2.3237162E-04   2.2847941E+05   -1.7616260E+00
   2.3344474E-04   2.2663273E+05   -1.7610512E+00
   2.3452281E-04   2.2480157E+05   -1.7604763E+00
   2.3560586E-04   2.2298580E+05   -1.7599013E+00
   2.3669392E-04   2.2118528E+05   -1.7593262E+00
   2.3778699E-04   2.1939988E+05   -1.7587509E+00
   2.3888512E-04   2.1762947E+05   -1.7581756E+00
   2.3998831E-04   2.1587391E+05   -1.7576002E+00
   2.4109661E-04   2.1413309E+05   -1.7570247E+00
   2.4221001E-04   2.1240686E+05   -1.7564491E+00
   2.4332857E-04   2.1069511E+05   -1.7558735E+00
   2.4445228E-04   2.0899771E+05   -1.7552978E+00
   2.4558119E-04   2.0731454E+05   -1.7547220E+00
   2.4671531E-04   2.0564547E+05   -1.7541462E+00
   2.4785467E-04   2.0399037E+05   -1.7535704E+00
   2.4899928E-04   2.0234913E+05   -1.7529945E+00
   2.5014919E-04   2.0072163E+05   -1.7524186E+00
   2.5130440E-04   1.9910775E+05   -1.7518426E+00
   2.5246495E-04   1.9750737E+05   -1.7512666E+00
   2.5363086E-04   1.9592037E+05   -1.7506907E+00
   2.5480216E-04   1.9434664E+05   -1.7501147E+00
   2.5597886E-04   1.9278606E+05   -1.7495387E+00
   2.5716100E-04   1.9123853E+05   -1.7489627E+00
   2.5834859E-04   1.8970391E+05   -1.7483867E+00
   2.5954168E-04   1.8818211E+05   -1.7478107E+00
   2.6074027E-04   1.8667302E+05   -1.7472348E+00
   2.6194439E-04   1.8517651E+05   -1.7466589E+00
   2.6315408E-04   1.8369250E+05   -1.7460830E+00
   2.6436935E-04   1.8222085E+05   -1.7455072E+00
   2.6559024E-04   1.8076148E+05   -1.7449314E+00
   2.6681676E-04   1.7931427E+05   -1.7443557E+00
   2.6804895E-04   1.7787912E+05   -1.7437800E+00
   2.6928683E-04   1.7645593E+05   -1.7432044E+00
   2.7053042E-04   1.7504458E+05   -1.7426289E+00
   2.7177976E-04   1.7364499E+05   -1.7420534E+00
   2.7303487E-04   1.7225704E+05   -1.7414780E+00
   2.7429577E-04   1.7088064E+05   -1.7409027E+00
   2.7556250E-04   1.6951568E+05   -1.7403276E+00
   2.7683507E-04   1.6816208E+05   -1.7397525E+00
   2.7811353E-04   1.6681972E+05   -1.7391775E+00
   2.7939788E-04   1.6548852E+05   -1.7386026E+00
   2.8068817E-04   1.6416838E+05   -1.7380279E+00
   2.8198442E-04   1.6285919E+05   -1.7374533E+00
   2.8328665E-04   1.6156088E+05   -1.7368788E+00
   2.8459490E-04   1.6027334E+05   -1.7363044E+00
   2.8590919E-04   1.5899648E+05   -1.7357302E+00
   2.8722955E-04   1.5773022E+05   -1.7351562E+00
   2.8855600E-04   1.5647445E+05   -1.7345823E+00
   2.8988859E-04   1.5522908E+05   -1.7340086E+00
   2.9122732E-04   1.5399404E+05   -1.7334350E+00
   2.9257224E-04   1.5276923E+05   -1.7328616E+00
   2.9392337E-04   1.5155456E+05   -1.7322884E+00
   2.9528074E-04   1.5034994E+05   -1.7317154E+00
   2.9664438E-04   1.4915530E+05   -1.7311426E+00
   2.9801431E-04   1.4797053E+05   -1.7305699E+00
   2.9939057E-04   1.4679557E+05   -1.7299975E+00
   3.0077319E-04   1.4563031E+05   -1.7294253E+00
   3.0216219E-04   1.4447469E+05   -1.7288533E+00
   3.0355761E-04   1.4332862E+05   -1.7282815E+00
   3.0495947E-04   1.4219201E+05   -1.7277100E+00
   3.0636780E-04   1.4106479E+05   -1.7271386E+00
   3.0778264E-04   1.3994687E+05   -1.7265676E+00
   3.0920401E-04   1.3883817E+05   -1.7259967E+00
   3.1063195E-04   1.3773862E+05   -1.7254262E+00
   3.1206648E-04   1.3664814E+05   -1.7248559E+00
   3.1350764E-04   1.3556665E+05   -1.7242858E+00
   3.1495545E-04   1.3449407E+05   -1.7237160E+00
   3.1640994E-04   1.3343033E+05   -1.7231465E+00
   3.1787116E-04   1.3237534E+05   -1.7225773E+00
   3.1933912E-04   1.3132905E+05   -1.7220083E+00
   3.2081386E-04   1.3029136E+05   -1.7214397E+00
   3.2229541E-04   1.2926221E+05   -1.7208713E+00
   3.2378381E-04   1.2824153E+05   -1.7203033E+00
   3.2527908E-04   1.2722924E+05   -1.7197356E+00
   3.2678125E-04   1.2622527E+05   -1.7191681E+00
   3.2829036E-04   1.2522955E+05   -1.7186010E+00
   3.2980644E-04   1.2424201E+05   -1.7180343E+00
   3.3132952E-04   1.2326258E+05   -1.7174678E+00
   3.3285963E-04   1.2229119E+05   -1.7169017E+00
   3.3439681E-04   1.2132777E+05   -1.7163360E+00
   3.3594109E-04   1.2037225E+05   -1.7157706E+00
   3.3749250E-04   1.1942457E+05   -1.7152055E+00
   3.3905108E-04   1.1848466E+05   -1.7146409E+00
   3.4061685E-04   1.1755245E+05   -1.7140765E+00
   3.4218986E-04   1.1662788E+05   -1.7135126E+00
   3.4377013E-04   1.1571089E+05   -1.7129490E+00
   3.4535769E-04   1.1480140E+05   -1.7123859E+00
   3.4695259E-04   1.1389935E+05   -1.7118231E+00
   3.4855485E-04   1.1300468E+05   -1.7112607E+00
   3.5016452E-04   1.1211734E+05   -1.7106987E+00
   3.5178161E-04   1.1123725E+05   -1.7101371E+00
   3.5340618E-04   1.1036435E+05   -1.7095759E+00
   3.5503824E-04   1.0949858E+05   -1.7090151E+00
   3.5667785E-04   1.0863989E+05   -1.7084548E+00
   3.5832502E-04   1.0778821E+05   -1.7078949E+00
   3.5997981E-04   1.0694348E+05   -1.7073354E+00
   3.6164223E-04   1.0610565E+05   -1.7067764E+00
   3.6331233E-04   1.0527465E+05   -1.7062178E+00
   3.6499015E-04   1.0445043E+05   -1.7056597E+00
   3.6667571E-04   1.0363293E+05   -1.7051020E+00
   3.6836906E-04   1.0282208E+05   -1.7045447E+00
   3.7007022E-04   1.0201785E+05   -1.7039880E+00
   3.7177925E-04   1.0122017E+05   -1.7034317E+00
   3.7349616E-04   1.0042898E+05   -1.7028759E+00
   3.7522101E-04   9.9644224E+04   -1.7023205E+00
   3.7695382E-04   9.8865858E+04   -1.7017657E+00
   3.7869463E-04   9.8093823E+04   -1.7012114E+00
   3.8044348E-04   9.7328066E+04   -1.7006575E+00
   3.8220041E-04   9.6568532E+04   -1.7001042E+00
   3.8396545E-04   9.5815170E+04   -1.6995513E+00
   3.8573864E-04   9.5067927E+04   -1.6989990E+00
   3.8752002E-04   9.4326752E+04   -1.6984472E+00
   3.8930963E-04   9.3591592E+04   -1.6978959E+00
   3.9110750E-04   9.2862399E+04   -1.6973451E+00
   3.9291368E-04   9.2139120E+04   -1.6967949E+00
   3.9472820E-04   9.1421706E+04   -1.6962452E+00
   3.9655109E-04   9.0710108E+04   -1.6956961E+00
   3.9838241E-04   9.0004276E+04   -1.6951475E+00
   4.0022218E-04   8.9304162E+04   -1.6945994E+00
   4.0207045E-04   8.8609718E+04   -1.6940519E+00
   4.0392725E-04   8.7920896E+04   -1.6935050E+00
   4.0579263E-04   8.7237648E+04   -1.6929587E+00
   4.0766662E-04   8.6559927E+04   -1.6924129E+00
   4.0954927E-04   8.5887687E+04   -1.6918677E+00
   4.1144061E-04   8.5220882E+04   -1.6913231E+00
   4.1334068E-04   8.4559466E+04   -1.6907791E+00
   4.1524953E-04   8.3903393E+04   -1.6902356E+00
   4.1716720E-04   8.3252619E+04   -1.6896928E+00
   4.1909372E-04   8.2607099E+04   -1.6891505E+00
   4.2102914E-04   8.1966789E+04   -1.6886089E+00
   4.2297350E-04   8.1331645E+04   -1.6880679E+00
   4.2492683E-04   8.0701624E+04   -1.6875275E+00
   4.2688919E-04   8.0076682E+04   -1.6869877E+00
   4.2886061E-04   7.9456777E+04   -1.6864486E+00
   4.3084113E-04   7.8841867E+04   -1.6859100E+00
   4.3283080E-04   7.8231910E+04   -1.6853721E+00
   4.3482966E-04   7.7626864E+04   -1.6848349E+00
   4.3683775E-04   7.7026688E+04   -1.6842983E+00
   4.3885511E-04   7.6431341E+04   -1.6837623E+00
   4.4088179E-04   7.5840782E+04   -1.6832270E+00
   4.4291783E-04   7.5254972E+04   -1.6826924E+00
   4.4496327E-04   7.4673871E+04   -1.6821584E+00
   4.4701816E-04   7.4097439E+04   -1.6816251E+00
   4.4908253E-04   7.3525638E+04   -1.6810924E+00
   4.5115644E-04   7.2958427E+04   -1.6805605E+00
   4.5323993E-04   7.2395770E+04   -1.6800292E+00
   4.5533304E-04   7.1837628E+04   -1.6794986E+00
   4.5743582E-04   7.1283964E+04   -1.6789686E+00
   4.5954830E-04   7.0734739E+04   -1.6784394E+00
   4.6167054E-04   7.0189916E+04   -1.6779109E+00
   4.6380259E-04   6.9649460E+04   -1.6773831E+00
   4.6594448E-04   6.9113333E+04   -1.6768559E+00
   4.6809626E-04   6.8581499E+04   -1.6763295E+00
   4.7025797E-04   6.8053922E+04   -1.6758038E+00
   4.7242967E-04   6.7530568E+04   -1.6752788E+00
   4.7461140E-04   6.7011400E+04   -1.6747546E+00
   4.7680321E-04   6.6496384E+04   -1.6742310E+00
   4.7900514E-04   6.5985486E+04   -1.6737082E+00
   4.8121723E-04   6.5478670E+04   -1.6731862E+00
   4.8343954E-04   6.4975903E+04   -1.6726648E+00
   4.8567212E-04   6.4477152E+04   -1.6721442E+00
   4.8791500E-04   6.3982382E+04   -1.6716244E+00
   4.9016825E-04   6.3491561E+04   -1.6711053E+00
   4.9243189E-04   6.3004655E+04   -1.6705869E+00
   4.9470600E-04   6.2521633E+04   -1.6700693E+00
   4.9699060E-04   6.2042461E+04   -1.6695525E+00
   4.9928575E-04   6.1567109E+04   -1.6690364E+00
   5.0159151E-04   6.1095543E+04   -1.6685212E+00
   5.0390791E-04   6.0627734E+04   -1.6680066E+00
   5.0623501E-04   6.0163649E+04   -1.6674929E+00
   5.0857286E-04   5.9703257E+04   -1.6669799E+00
   5.1092150E-04   5.9246529E+04   -1.6664677E+00
   5.1328099E-04   5.8793433E+04   -1.6659563E+00
   5.1565137E-04   5.8343940E+04   -1.6654457E+00
   5.1803270E-04   5.7898019E+04   -1.6649359E+00
   5.2042503E-04   5.7455641E+04   -1.6644269E+00
   5.2282841E-04   5.7016777E+04   -1.6639187E+00
   5.2524289E-04   5.6581398E+04   -1.6634113E+00
   5.2766851E-04   5.6149474E+04   -1.6629047E+00
   5.3010534E-04   5.5720977E+04   -1.6623989E+00
   5.3255342E-04   5.5295879E+04   -1.6618939E+00
   5.3501281E-04   5.4874152E+04   -1.6613898E+00
   5.3748356E-04   5.4455768E+04   -1.6608864E+00
   5.3996571E-04   5.4040698E+04   -1.6603839E+00
   5.4245933E-04   5.3628917E+04   -1.6598822E+00
   5.4496446E-04   5.3220396E+04   -1.6593814E+00
   5.4748117E-04   5.2815109E+04   -1.6588814E+00
   5.5000949E-04   5.2413029E+04   -1.6583822E+00
   5.5254949E-04   5.2014129E+04   -1.6578839E+00
   5.5510123E-04   5.1618384E+04   -1.6573864E+00
   5.5766474E-04   5.1225767E+04   -1.6568897E+00
   5.6024010E-04   5.0836253E+04   -1.6563939E+00
   5.6282734E-04   5.0449815E+04   -1.6558990E+00
   5.6542654E-04   5.0066429E+04   -1.6554049E+00
   5.6803774E-04   4.9686070E+04   -1.6549117E+00
   5.7066099E-04   4.9308712E+04   -1.6544193E+00
   5.7329637E-04   4.8934331E+04   -1.6539278E+00
   5.7594391E-04   4.8562903E+04   -1.6534372E+00
   5.7860368E-04   4.8194402E+04   -1.6529475E+00
   5.8127573E-04   4.7828806E+04   -1.6524586E+00
   5.8396012E-04   4.7466090E+04   -1.6519706E+00
   5.8665691E-04   4.7106231E+04   -1.6514834E+00
   5.8936616E-04   4.6749204E+04   -1.6509972E+00
   5.9208791E-04   4.6394987E+04   -1.6505118E+00
   5.9482223E-04   4.6043557E+04   -1.6500274E+00
   5.9756919E-04   4.5694891E+04   -1.6495438E+00
   6.0032882E-04   4.5348967E+04   -1.6490611E+00
   6.0310120E-04   4.5005760E+04   -1.6485793E+00
   6.0588639E-04   4.4665251E+04   -1.6480984E+00
   6.0868443E-04   4.4327416E+04   -1.6476184E+00
   6.1149540E-04   4.3992233E+04   -1.6471394E+00
   6.1431935E-04   4.3659681E+04   -1.6466612E+00
   6.1715634E-04   4.3329738E+04   -1.6461839E+00
   6.2000644E-04   4.3002384E+04   -1.6457075E+00
   6.2286969E-04   4.2677596E+04   -1.6452321E+00
