#        a       HoverH0(a)       dlogHdloga_of_a(a)
   1.0000000E-04   1.2014544E+06   -1.8860290E+00
   1.0046181E-04   1.1910603E+06   -1.8856230E+00
   1.0092575E-04   1.1807584E+06   -1.8852161E+00
   1.0139184E-04   1.1705477E+06   -1.8848081E+00
   1.0186008E-04   1.1604276E+06   -1.8843991E+00
   1.0233048E-04   1.1503970E+06   -1.8839891E+00
   1.0280305E-04   1.1404554E+06   -1.8835781E+00
   1.0327781E-04   1.1306018E+06   -1.8831661E+00
   1.0375475E-04   1.1208355E+06   -1.8827530E+00
   1.0423390E-04   1.1111557E+06   -1.8823390E+00
   1.0471527E-04   1.1015615E+06   -1.8819239E+00
   1.0519885E-04   1.0920523E+06   -1.8815078E+00
   1.0568467E-04   1.0826273E+06   -1.8810907E+00
   1.0617274E-04   1.0732856E+06   -1.8806726E+00
   1.0666305E-04   1.0640266E+06   -1.8802535E+00
   1.0715563E-04   1.0548496E+06   -1.8798334E+00
   1.0765049E-04   1.0457537E+06   -1.8794123E+00
   1.0814763E-04   1.0367383E+06   -1.8789902E+00
   1.0864707E-04   1.0278026E+06   -1.8785670E+00
   1.0914881E-04   1.0189458E+06   -1.8781429E+00
   1.0965287E-04   1.0101674E+06   -1.8777178E+00
   1.1015926E-04   1.0014666E+06   -1.8772916E+00
   1.1066799E-04   9.9284268E+05   -1.8768645E+00
   1.1117906E-04   9.8429496E+05   -1.8764363E+00
   1.1169250E-04   9.7582275E+05   -1.8760072E+00
   1.1220831E-04   9.6742538E+05   -1.8755771E+00
   1.1272650E-04   9.5910218E+05   -1.8751459E+00
   1.1324708E-04   9.5085248E+05   -1.8747138E+00
   1.1377007E-04   9.4267561E+05   -1.8742807E+00
   1.1429547E-04   9.3457094E+05   -1.8738466E+00
   1.1482330E-04   9.2653779E+05   -1.8734115E+00
   1.1535356E-04   9.1857554E+05   -1.8729754E+00
   1.1588628E-04   9.1068355E+05   -1.8725383E+00
   1.1642145E-04   9.0286118E+05   -1.8721002E+00
   1.1695910E-04   8.9510781E+05   -1.8716611E+00
   1.1749923E-04   8.8742282E+05   -1.8712211E+00
   1.1804185E-04   8.7980559E+05   -1.8707800E+00
   1.1858698E-04   8.7225552E+05   -1.8703380E+00
   1.1913463E-04   8.6477200E+05   -1.8698950E+00
   1.1968481E-04   8.5735445E+05   -1.8694510E+00
   1.2023752E-04   8.5000225E+05   -1.8690061E+00
   1.2079279E-04   8.4271484E+05   -1.8685601E+00
   1.2135063E-04   8.3549162E+05   -1.8681132E+00
   1.2191104E-04   8.2833202E+05   -1.8676653E+00
   1.2247403E-04   8.2123548E+05   -1.8672165E+00
   1.2303963E-04   8.1420141E+05   -1.8667667E+00
   1.2360784E-04   8.0722927E+05   -1.8663159E+00
   1.2417868E-04   8.0031850E+05   -1.8658641E+00
   1.2475215E-04   7.9346854E+05   -1.8654114E+00
   1.2532826E-04   7.8667885E+05   -1.8649577E+00
   1.2590704E-04   7.7994890E+05   -1.8645030E+00
   1.2648850E-04   7.7327814E+05   -1.8640474E+00
   1.2707263E-04   7.6666605E+05   -1.8635908E+00
   1.2765947E-04   7.6011209E+05   -1.8631333E+00
   1.2824901E-04   7.5361576E+05   -1.8626748E+00
   1.2884128E-04   7.4717652E+05   -1.8622154E+00
   1.2943628E-04   7.4079388E+05   -1.8617550E+00
   1.3003403E-04   7.3446731E+05   -1.8612936E+00
   1.3063454E-04   7.2819633E+05   -1.8608313E+00
   1.3123783E-04   7.2198043E+05   -1.8603681E+00
   1.3184390E-04   7.1581912E+05   -1.8599039E+00
   1.3245277E-04   7.0971190E+05   -1.8594388E+00
   1.3306445E-04   7.0365830E+05   -1.8589727E+00
   1.3367895E-04   6.9765784E+05   -1.8585057E+00
   1.3429630E-04   6.9171003E+05   -1.8580378E+00
   1.3491649E-04   6.8581441E+05   -1.8575689E+00
   1.3553955E-04   6.7997052E+05   -1.8570991E+00
   1.3616548E-04   6.7417788E+05   -1.8566284E+00
   1.3679431E-04   6.6843604E+05   -1.8561568E+00
   1.3742604E-04   6.6274454E+05   -1.8556842E+00
   1.3806069E-04   6.5710293E+05   -1.8552107E+00
   1.3869827E-04   6.5151078E+05   -1.8547363E+00
   1.3933879E-04   6.4596762E+05   -1.8542609E+00
   1.3998227E-04   6.4047304E+05   -1.8537847E+00
   1.4062872E-04   6.3502658E+05   -1.8533075E+00
   1.4127816E-04   6.2962782E+05   -1.8528295E+00
   1.4193060E-04   6.2427634E+05   -1.8523505E+00
   1.4258605E-04   6.1897171E+05   -1.8518706E+00
   1.4324453E-04   6.1371352E+05   -1.8513898E+00
   1.4390605E-04   6.0850134E+05   -1.8509082E+00
   1.4457062E-04   6.0333477E+05   -1.8504256E+00
   1.4523826E-04   5.9821340E+05   -1.8499421E+00
   1.4590899E-04   5.9313682E+05   -1.8494577E+00
   1.4658281E-04   5.8810464E+05   -1.8489725E+00
   1.4725974E-04   5.8311646E+05   -1.8484864E+00
   1.4793981E-04   5.7817188E+05   -1.8479993E+00
   1.4862301E-04   5.7327051E+05   -1.8475114E+00
   1.4930936E-04   5.6841198E+05   -1.8470226E+00
   1.4999889E-04   5.6359589E+05   -1.8465330E+00
   1.5069160E-04   5.5882187E+05   -1.8460425E+00
   1.5138751E-04   5.5408954E+05   -1.8455511E+00
   1.5208663E-04   5.4939853E+05   -1.8450588E+00
   1.5278899E-04   5.4474848E+05   -1.8445657E+00
   1.5349458E-04   5.4013901E+05   -1.8440717E+00
   1.5420343E-04   5.3556976E+05   -1.8435768E+00
   1.5491556E-04   5.3104038E+05   -1.8430811E+00
   1.5563098E-04   5.2655051E+05   -1.8425846E+00
   1.5634970E-04   5.2209980E+05   -1.8420872E+00
   1.5707174E-04   5.1768789E+05   -1.8415890E+00
   1.5779711E-04   5.1331444E+05   -1.8410899E+00
   1.5852584E-04   5.0897912E+05   -1.8405899E+00
   1.5925792E-04   5.0468157E+05   -1.8400892E+00
   1.5999339E-04   5.0042146E+05   -1.8395876E+00
   1.6073226E-04   4.9619846E+05   -1.8390852E+00
   1.6147454E-04   4.9201224E+05   -1.8385819E+00
   1.6222024E-04   4.8786246E+05   -1.8380779E+00
   1.6296939E-04   4.8374881E+05   -1.8375730E+00
   1.6372200E-04   4.7967097E+05   -1.8370673E+00
   1.6447809E-04   4.7562861E+05   -1.8365608E+00
   1.6523767E-04   4.7162142E+05   -1.8360534E+00
   1.6600075E-04   4.6764908E+05   -1.8355453E+00
   1.6676736E-04   4.6371129E+05   -1.8350364E+00
   1.6753751E-04   4.5980773E+05   -1.8345266E+00
   1.6831122E-04   4.5593811E+05   -1.8340161E+00
   1.6908849E-04   4.5210211E+05   -1.8335048E+00
   1.6986936E-04   4.4829945E+05   -1.8329927E+00
   1.7065384E-04   4.4452982E+05   -1.8324798E+00
   1.7144193E-04   4.4079293E+05   -1.8319661E+00
   1.7223367E-04   4.3708848E+05   -1.8314517E+00
   1.7302906E-04   4.3341620E+05   -1.8309365E+00
   1.7382813E-04   4.2977580E+05   -1.8304205E+00
   1.7463089E-04   4.2616698E+05   -1.8299037E+00
   1.7543735E-04   4.2258948E+05   -1.8293862E+00
   1.7624754E-04   4.1904301E+05   -1.8288679E+00
   1.7706147E-04   4.1552729E+05   -1.8283489E+00
   1.7787916E-04   4.1204206E+05   -1.8278291E+00
   1.7870062E-04   4.0858703E+05   -1.8273086E+00
   1.7952588E-04   4.0516195E+05   -1.8267873E+00
   1.8035495E-04   4.0176655E+05   -1.8262653E+00
   1.8118785E-04   3.9840056E+05   -1.8257426E+00
   1.8202459E-04   3.9506372E+05   -1.8252191E+00
   1.8286520E-04   3.9175578E+05   -1.8246949E+00
   1.8370969E-04   3.8847647E+05   -1.8241700E+00
   1.8455808E-04   3.8522555E+05   -1.8236443E+00
   1.8541039E-04   3.8200275E+05   -1.8231180E+00
   1.8626663E-04   3.7880784E+05   -1.8225909E+00
   1.8712683E-04   3.7564057E+05   -1.8220632E+00
   1.8799100E-04   3.7250068E+05   -1.8215347E+00
   1.8885917E-04   3.6938793E+05   -1.8210055E+00
   1.8973134E-04   3.6630209E+05   -1.8204757E+00
   1.9060754E-04   3.6324292E+05   -1.8199451E+00
   1.9148778E-04   3.6021018E+05   -1.8194139E+00
   1.9237209E-04   3.5720363E+05   -1.8188819E+00
   1.9326049E-04   3.5422304E+05   -1.8183494E+00
   1.9415299E-04   3.5126819E+05   -1.8178161E+00
   1.9504960E-04   3.4833885E+05   -1.8172822E+00
   1.9595036E-04   3.4543478E+05   -1.8167476E+00
   1.9685528E-04   3.4255577E+05   -1.8162123E+00
   1.9776438E-04   3.3970159E+05   -1.8156764E+00
   1.9867768E-04   3.3687202E+05   -1.8151399E+00
   1.9959519E-04   3.3406685E+05   -1.8146027E+00
   2.0051694E-04   3.3128586E+05   -1.8140648E+00
   2.0144295E-04   3.2852884E+05   -1.8135263E+00
   2.0237324E-04   3.2579557E+05   -1.8129872E+00
   2.0330782E-04   3.2308584E+05   -1.8124475E+00
   2.0424671E-04   3.2039944E+05   -1.8119071E+00
   2.0518995E-04   3.1773618E+05   -1.8113662E+00
   2.0613754E-04   3.1509584E+05   -1.8108246E+00
   2.0708950E-04   3.1247822E+05   -1.8102824E+00
   2.0804586E-04   3.0988312E+05   -1.8097396E+00
   2.0900664E-04   3.0731034E+05   -1.8091962E+00
   2.0997185E-04   3.0475968E+05   -1.8086522E+00
   2.1094152E-04   3.0223095E+05   -1.8081076E+00
   2.1191567E-04   2.9972396E+05   -1.8075625E+00
   2.1289432E-04   2.9723851E+05   -1.8070167E+00
   2.1387749E-04   2.9477441E+05   -1.8064704E+00
   2.1486520E-04   2.9233148E+05   -1.8059235E+00
   2.1585747E-04   2.8990952E+05   -1.8053761E+00
   2.1685432E-04   2.8750835E+05   -1.8048281E+00
   2.1785578E-04   2.8512779E+05   -1.8042795E+00
   2.1886186E-04   2.8276766E+05   -1.8037304E+00
   2.1987259E-04   2.8042777E+05   -1.8031808E+00
   2.2088798E-04   2.7810795E+05   -1.8026306E+00
   2.2190807E-04   2.7580802E+05   -1.8020798E+00
   2.2293286E-04   2.7352780E+05   -1.8015286E+00
   2.2396239E-04   2.7126713E+05   -1.8009768E+00
   2.2499667E-04   2.6902582E+05   -1.8004245E+00
   2.2603573E-04   2.6680371E+05   -1.7998717E+00
   2.2707958E-04   2.6460063E+05   -1.7993184E+00
   2.2812826E-04   2.6241641E+05   -1.7987645E+00
   2.2918178E-04   2.6025089E+05   -1.7982102E+00
   2.3024017E-04   2.5810389E+05   -1.7976554E+00
   2.3130344E-04   2.5597527E+05   -1.7971001E+00
   2.3237162E-04   2.5386484E+05   -1.7965443E+00
   2.3344474E-04   2.5177247E+05   -1.7959880E+00
   2.3452281E-04   2.4969797E+05   -1.7954313E+00
   2.3560586E-04   2.4764121E+05   -1.7948741E+00
   2.3669392E-04   2.4560202E+05   -1.7943164E+00
   2.3778699E-04   2.4358024E+05   -1.7937583E+00
   2.3888512E-04   2.4157573E+05   -1.7931997E+00
   2.3998831E-04   2.3958834E+05   -1.7926407E+00
   2.4109661E-04   2.3761790E+05   -1.7920812E+00
   2.4221001E-04   2.3566428E+05   -1.7915214E+00
   2.4332857E-04   2.3372733E+05   -1.7909610E+00
   2.4445228E-04   2.3180689E+05   -1.7904003E+00
   2.4558119E-04   2.2990282E+05   -1.7898391E+00
   2.4671531E-04   2.2801499E+05   -1.7892775E+00
   2.4785467E-04   2.2614324E+05   -1.7887156E+00
   2.4899928E-04   2.2428744E+05   -1.7881532E+00
   2.5014919E-04   2.2244745E+05   -1.7875904E+00
   2.5130440E-04   2.2062312E+05   -1.7870272E+00
   2.5246495E-04   2.1881432E+05   -1.7864637E+00
   2.5363086E-04   2.1702092E+05   -1.7858997E+00
   2.5480216E-04   2.1524277E+05   -1.7853354E+00
   2.5597886E-04   2.1347975E+05   -1.7847707E+00
   2.5716100E-04   2.1173171E+05   -1.7842057E+00
   2.5834859E-04   2.0999854E+05   -1.7836403E+00
   2.5954168E-04   2.0828010E+05   -1.7830746E+00
   2.6074027E-04   2.0657626E+05   -1.7825085E+00
   2.6194439E-04   2.0488690E+05   -1.7819420E+00
   2.6315408E-04   2.0321188E+05   -1.7813753E+00
   2.6436935E-04   2.0155107E+05   -1.7808082E+00
   2.6559024E-04   1.9990437E+05   -1.7802407E+00
   2.6681676E-04   1.9827164E+05   -1.7796730E+00
   2.6804895E-04   1.9665276E+05   -1.7791050E+00
   2.6928683E-04   1.9504760E+05   -1.7785366E+00
   2.7053042E-04   1.9345606E+05   -1.7779680E+00
   2.7177976E-04   1.9187800E+05   -1.7773990E+00
   2.7303487E-04   1.9031332E+05   -1.7768298E+00
   2.7429577E-04   1.8876189E+05   -1.7762603E+00
   2.7556250E-04   1.8722360E+05   -1.7756905E+00
   2.7683507E-04   1.8569833E+05   -1.7751204E+00
   2.7811353E-04   1.8418597E+05   -1.7745501E+00
   2.7939788E-04   1.8268641E+05   -1.7739795E+00
   2.8068817E-04   1.8119954E+05   -1.7734087E+00
   2.8198442E-04   1.7972524E+05   -1.7728376E+00
   2.8328665E-04   1.7826340E+05   -1.7722662E+00
   2.8459490E-04   1.7681392E+05   -1.7716947E+00
   2.8590919E-04   1.7537669E+05   -1.7711229E+00
   2.8722955E-04   1.7395160E+05   -1.7705509E+00
   2.8855600E-04   1.7253854E+05   -1.7699787E+00
   2.8988859E-04   1.7113741E+05   -1.7694062E+00
   2.9122732E-04   1.6974811E+05   -1.7688336E+00
   2.9257224E-04   1.6837053E+05   -1.7682607E+00
   2.9392337E-04   1.6700458E+05   -1.7676877E+00
   2.9528074E-04   1.6565014E+05   -1.7671145E+00
   2.9664438E-04   1.6430712E+05   -1.7665410E+00
   2.9801431E-04   1.6297542E+05   -1.7659675E+00
   2.9939057E-04   1.6165494E+05   -1.7653937E+00
   3.0077319E-04   1.6034558E+05   -1.7648198E+00
   3.0216219E-04   1.5904725E+05   -1.7642457E+00
   3.0355761E-04   1.5775985E+05   -1.7636715E+00
   3.0495947E-04   1.5648328E+05   -1.7630971E+00
   3.0636780E-04   1.5521746E+05   -1.7625226E+00
   3.0778264E-04   1.5396228E+05   -1.7619480E+00
   3.0920401E-04   1.5271766E+05   -1.7613732E+00
   3.1063195E-04   1.5148349E+05   -1.7607983E+00
   3.1206648E-04   1.5025970E+05   -1.7602233E+00
   3.1350764E-04   1.4904620E+05   -1.7596482E+00
   3.1495545E-04   1.4784288E+05   -1.7590730E+00
   3.1640994E-04   1.4664967E+05   -1.7584977E+00
   3.1787116E-04   1.4546647E+05   -1.7579222E+00
   3.1933912E-04   1.4429321E+05   -1.7573468E+00
   3.2081386E-04   1.4312978E+05   -1.7567712E+00
   3.2229541E-04   1.4197611E+05   -1.7561955E+00
   3.2378381E-04   1.4083212E+05   -1.7556198E+00
   3.2527908E-04   1.3969771E+05   -1.7550441E+00
   3.2678125E-04   1.3857281E+05   -1.7544682E+00
   3.2829036E-04   1.3745733E+05   -1.7538924E+00
   3.2980644E-04   1.3635119E+05   -1.7533165E+00
   3.3132952E-04   1.3525432E+05   -1.7527405E+00
   3.3285963E-04   1.3416662E+05   -1.7521645E+00
   3.3439681E-04   1.3308802E+05   -1.7515885E+00
   3.3594109E-04   1.3201844E+05   -1.7510125E+00
   3.3749250E-04   1.3095781E+05   -1.7504365E+00
   3.3905108E-04   1.2990605E+05   -1.7498604E+00
   3.4061685E-04   1.2886307E+05   -1.7492844E+00
   3.4218986E-04   1.2782880E+05   -1.7487084E+00
   3.4377013E-04   1.2680318E+05   -1.7481324E+00
   3.4535769E-04   1.2578611E+05   -1.7475564E+00
   3.4695259E-04   1.2477754E+05   -1.7469804E+00
   3.4855485E-04   1.2377738E+05   -1.7464045E+00
   3.5016452E-04   1.2278556E+05   -1.7458286E+00
   3.5178161E-04   1.2180202E+05   -1.7452527E+00
   3.5340618E-04   1.2082667E+05   -1.7446769E+00
   3.5503824E-04   1.1985945E+05   -1.7441011E+00
   3.5667785E-04   1.1890029E+05   -1.7435254E+00
   3.5832502E-04   1.1794911E+05   -1.7429498E+00
   3.5997981E-04   1.1700586E+05   -1.7423743E+00
   3.6164223E-04   1.1607046E+05   -1.7417988E+00
   3.6331233E-04   1.1514284E+05   -1.7412234E+00
   3.6499015E-04   1.1422294E+05   -1.7406481E+00
   3.6667571E-04   1.1331068E+05   -1.7400729E+00
   3.6836906E-04   1.1240602E+05   -1.7394978E+00
   3.7007022E-04   1.1150886E+05   -1.7389229E+00
   3.7177925E-04   1.1061917E+05   -1.7383480E+00
   3.7349616E-04   1.0973686E+05   -1.7377733E+00
   3.7522101E-04   1.0886187E+05   -1.7371987E+00
   3.7695382E-04   1.0799415E+05   -1.7366242E+00
   3.7869463E-04   1.0713363E+05   -1.7360498E+00
   3.8044348E-04   1.0628025E+05   -1.7354757E+00
   3.8220041E-04   1.0543395E+05   -1.7349016E+00
   3.8396545E-04   1.0459466E+05   -1.7343277E+00
   3.8573864E-04   1.0376232E+05   -1.7337540E+00
   3.8752002E-04   1.0293688E+05   -1.7331805E+00
   3.8930963E-04   1.0211828E+05   -1.7326071E+00
   3.9110750E-04   1.0130645E+05   -1.7320339E+00
   3.9291368E-04   1.0050135E+05   -1.7314610E+00
   3.9472820E-04   9.9702904E+04   -1.7308882E+00
   3.9655109E-04   9.8911064E+04   -1.7303156E+00
   3.9838241E-04   9.8125771E+04   -1.7297432E+00
   4.0022218E-04   9.7346970E+04   -1.7291710E+00
   4.0207045E-04   9.6574605E+04   -1.7285990E+00
   4.0392725E-04   9.5808620E+04   -1.7280273E+00
   4.0579263E-04   9.5048961E+04   -1.7274558E+00
   4.0766662E-04   9.4295573E+04   -1.7268845E+00
   4.0954927E-04   9.3548403E+04   -1.7263135E+00
   4.1144061E-04   9.2807398E+04   -1.7257427E+00
   4.1334068E-04   9.2072504E+04   -1.7251722E+00
   4.1524953E-04   9.1343670E+04   -1.7246020E+00
   4.1716720E-04   9.0620843E+04   -1.7240320E+00
   4.1909372E-04   8.9903972E+04   -1.7234622E+00
   4.2102914E-04   8.9193005E+04   -1.7228928E+00
   4.2297350E-04   8.8487894E+04   -1.7223236E+00
   4.2492683E-04   8.7788586E+04   -1.7217548E+00
   4.2688919E-04   8.7095034E+04   -1.7211862E+00
   4.2886061E-04   8.6407187E+04   -1.7206179E+00
   4.3084113E-04   8.5724997E+04   -1.7200499E+00
   4.3283080E-04   8.5048416E+04   -1.7194823E+00
   4.3482966E-04   8.4377394E+04   -1.7189149E+00
   4.3683775E-04   8.3711886E+04   -1.7183479E+00
   4.3885511E-04   8.3051844E+04   -1.7177812E+00
   4.4088179E-04   8.2397221E+04   -1.7172149E+00
   4.4291783E-04   8.1747971E+04   -1.7166489E+00
   4.4496327E-04   8.1104049E+04   -1.7160832E+00
   4.4701816E-04   8.0465408E+04   -1.7155179E+00
   4.4908253E-04   7.9832004E+04   -1.7149530E+00
   4.5115644E-04   7.9203791E+04   -1.7143884E+00
   4.5323993E-04   7.8580727E+04   -1.7138242E+00
   4.5533304E-04   7.7962767E+04   -1.7132603E+00
   4.5743582E-04   7.7349868E+04   -1.7126969E+00
   4.5954830E-04   7.6741986E+04   -1.7121338E+00
   4.6167054E-04   7.6139078E+04   -1.7115711E+00
   4.6380259E-04   7.5541103E+04   -1.7110088E+00
   4.6594448E-04   7.4948019E+04   -1.7104469E+00
   4.6809626E-04   7.4359783E+04   -1.7098854E+00
   4.7025797E-04   7.3776355E+04   -1.7093244E+00
   4.7242967E-04   7.3197693E+04   -1.7087637E+00
   4.7461140E-04   7.2623758E+04   -1.7082035E+00
   4.7680321E-04   7.2054509E+04   -1.7076437E+00
   4.7900514E-04   7.1489906E+04   -1.7070844E+00
   4.8121723E-04   7.0929910E+04   -1.7065255E+00
   4.8343954E-04   7.0374482E+04   -1.7059670E+00
   4.8567212E-04   6.9823582E+04   -1.7054090E+00
   4.8791500E-04   6.9277174E+04   -1.7048514E+00
   4.9016825E-04   6.8735217E+04   -1.7042943E+00
   4.9243189E-04   6.8197676E+04   -1.7037377E+00
   4.9470600E-04   6.7664511E+04   -1.7031816E+00
   4.9699060E-04   6.7135687E+04   -1.7026259E+00
   4.9928575E-04   6.6611166E+04   -1.7020707E+00
   5.0159151E-04   6.6090913E+04   -1.7015160E+00
   5.0390791E-04   6.5574890E+04   -1.7009618E+00
   5.0623501E-04   6.5063062E+04   -1.7004081E+00
   5.0857286E-04   6.4555393E+04   -1.6998549E+00
   5.1092150E-04   6.4051850E+04   -1.6993022E+00
   5.1328099E-04   6.3552395E+04   -1.6987500E+00
   5.1565137E-04   6.3056996E+04   -1.6981984E+00
   5.1803270E-04   6.2565617E+04   -1.6976472E+00
   5.2042503E-04   6.2078225E+04   -1.6970966E+00
   5.2282841E-04   6.1594786E+04   -1.6965466E+00
   5.2524289E-04   6.1115267E+04   -1.6959971E+00
   5.2766851E-04   6.0639634E+04   -1.6954481E+00
   5.3010534E-04   6.0167854E+04   -1.6948996E+00
   5.3255342E-04   5.9699896E+04   -1.6943518E+00
   5.3501281E-04   5.9235728E+04   -1.6938045E+00
   5.3748356E-04   5.8775316E+04   -1.6932577E+00
   5.3996571E-04   5.8318629E+04   -1.6927115E+00
   5.4245933E-04   5.7865637E+04   -1.6921659E+00
   5.4496446E-04   5.7416307E+04   -1.6916209E+00
   5.4748117E-04   5.6970610E+04   -1.6910765E+00
   5.5000949E-04   5.6528514E+04   -1.6905326E+00
   5.5254949E-04   5.6089989E+04   -1.6899894E+00
   5.5510123E-04   5.5655005E+04   -1.6894467E+00
   5.5766474E-04   5.5223533E+04   -1.6889047E+00
   5.6024010E-04   5.4795542E+04   -1.6883632E+00
   5.6282734E-04   5.4371004E+04   -1.6878224E+00
   5.6542654E-04   5.3949890E+04   -1.6872822E+00
   5.6803774E-04   5.3532170E+04   -1.6867426E+00
   5.7066099E-04   5.3117817E+04   -1.6862036E+00
   5.7329637E-04   5.2706801E+04   -1.6856653E+00
   5.7594391E-04   5.2299096E+04   -1.6851276E+00
   5.7860368E-04   5.1894673E+04   -1.6845906E+00
   5.8127573E-04   5.1493504E+04   -1.6840541E+00
   5.8396012E-04   5.1095563E+04   -1.6835184E+00
   5.8665691E-04   5.0700823E+04   -1.6829833E+00
   5.8936616E-04   5.0309256E+04   -1.6824489E+00
   5.9208791E-04   4.9920835E+04   -1.6819151E+00
   5.9482223E-04   4.9535536E+04   -1.6813820E+00
   5.9756919E-04   4.9153331E+04   -1.6808495E+00
   6.0032882E-04   4.8774194E+04   -1.6803178E+00
   6.0310120E-04   4.8398101E+04   -1.6797867E+00
   6.0588639E-04   4.8025024E+04   -1.6792563E+00
   6.0868443E-04   4.7654940E+04   -1.6787266E+00
   6.1149540E-04   4.7287824E+04   -1.6781976E+00
   6.1431935E-04   4.6923650E+04   -1.6776693E+00
   6.1715634E-04   4.6562393E+04   -1.6771417E+00
   6.2000644E-04   4.6204030E+04   -1.6766147E+00
   6.2286969E-04   4.5848537E+04   -1.6760886E+00
