#        a       HoverH0(a)       dlogHdloga_of_a(a)
   1.0000000E-04   1.0467838E+06   -1.8793881E+00
   1.0046181E-04   1.0377596E+06   -1.8789660E+00
   1.0092575E-04   1.0288152E+06   -1.8785428E+00
   1.0139184E-04   1.0199498E+06   -1.8781186E+00
   1.0186008E-04   1.0111629E+06   -1.8776934E+00
   1.0233048E-04   1.0024536E+06   -1.8772672E+00
   1.0280305E-04   9.9382130E+05   -1.8768400E+00
   1.0327781E-04   9.8526526E+05   -1.8764118E+00
   1.0375475E-04   9.7678482E+05   -1.8759826E+00
   1.0423390E-04   9.6837928E+05   -1.8755524E+00
   1.0471527E-04   9.6004798E+05   -1.8751212E+00
   1.0519885E-04   9.5179025E+05   -1.8746890E+00
   1.0568467E-04   9.4360543E+05   -1.8742559E+00
   1.0617274E-04   9.3549286E+05   -1.8738217E+00
   1.0666305E-04   9.2745190E+05   -1.8733865E+00
   1.0715563E-04   9.1948190E+05   -1.8729504E+00
   1.0765049E-04   9.1158222E+05   -1.8725132E+00
   1.0814763E-04   9.0375224E+05   -1.8720751E+00
   1.0864707E-04   8.9599132E+05   -1.8716360E+00
   1.0914881E-04   8.8829885E+05   -1.8711959E+00
   1.0965287E-04   8.8067420E+05   -1.8707548E+00
   1.1015926E-04   8.7311678E+05   -1.8703127E+00
   1.1066799E-04   8.6562598E+05   -1.8698697E+00
   1.1117906E-04   8.5820120E+05   -1.8694256E+00
   1.1169250E-04   8.5084184E+05   -1.8689806E+00
   1.1220831E-04   8.4354733E+05   -1.8685346E+00
   1.1272650E-04   8.3631707E+05   -1.8680877E+00
   1.1324708E-04   8.2915050E+05   -1.8676397E+00
   1.1377007E-04   8.2204703E+05   -1.8671908E+00
   1.1429547E-04   8.1500612E+05   -1.8667409E+00
   1.1482330E-04   8.0802718E+05   -1.8662901E+00
   1.1535356E-04   8.0110967E+05   -1.8658383E+00
   1.1588628E-04   7.9425304E+05   -1.8653855E+00
   1.1642145E-04   7.8745673E+05   -1.8649317E+00
   1.1695910E-04   7.8072022E+05   -1.8644770E+00
   1.1749923E-04   7.7404296E+05   -1.8640214E+00
   1.1804185E-04   7.6742441E+05   -1.8635647E+00
   1.1858698E-04   7.6086407E+05   -1.8631071E+00
   1.1913463E-04   7.5436139E+05   -1.8626486E+00
   1.1968481E-04   7.4791588E+05   -1.8621891E+00
   1.2023752E-04   7.4152700E+05   -1.8617287E+00
   1.2079279E-04   7.3519427E+05   -1.8612673E+00
   1.2135063E-04   7.2891717E+05   -1.8608049E+00
   1.2191104E-04   7.2269520E+05   -1.8603416E+00
   1.2247403E-04   7.1652788E+05   -1.8598774E+00
   1.2303963E-04   7.1041471E+05   -1.8594122E+00
   1.2360784E-04   7.0435520E+05   -1.8589461E+00
   1.2417868E-04   6.9834888E+05   -1.8584791E+00
   1.2475215E-04   6.9239527E+05   -1.8580111E+00
   1.2532826E-04   6.8649389E+05   -1.8575422E+00
   1.2590704E-04   6.8064429E+05   -1.8570723E+00
   1.2648850E-04   6.7484599E+05   -1.8566016E+00
   1.2707263E-04   6.6909854E+05   -1.8561299E+00
   1.2765947E-04   6.6340148E+05   -1.8556572E+00
   1.2824901E-04   6.5775437E+05   -1.8551837E+00
   1.2884128E-04   6.5215675E+05   -1.8547092E+00
   1.2943628E-04   6.4660818E+05   -1.8542338E+00
   1.3003403E-04   6.4110823E+05   -1.8537576E+00
   1.3063454E-04   6.3565645E+05   -1.8532803E+00
   1.3123783E-04   6.3025242E+05   -1.8528022E+00
   1.3184390E-04   6.2489571E+05   -1.8523232E+00
   1.3245277E-04   6.1958589E+05   -1.8518433E+00
   1.3306445E-04   6.1432256E+05   -1.8513625E+00
   1.3367895E-04   6.0910528E+05   -1.8508807E+00
   1.3429630E-04   6.0393366E+05   -1.8503981E+00
   1.3491649E-04   5.9880728E+05   -1.8499146E+00
   1.3553955E-04   5.9372574E+05   -1.8494302E+00
   1.3616548E-04   5.8868863E+05   -1.8489449E+00
   1.3679431E-04   5.8369557E+05   -1.8484587E+00
   1.3742604E-04   5.7874616E+05   -1.8479716E+00
   1.3806069E-04   5.7384000E+05   -1.8474837E+00
   1.3869827E-04   5.6897671E+05   -1.8469948E+00
   1.3933879E-04   5.6415591E+05   -1.8465051E+00
   1.3998227E-04   5.5937722E+05   -1.8460146E+00
   1.4062872E-04   5.5464026E+05   -1.8455231E+00
   1.4127816E-04   5.4994466E+05   -1.8450308E+00
   1.4193060E-04   5.4529005E+05   -1.8445376E+00
   1.4258605E-04   5.4067607E+05   -1.8440436E+00
   1.4324453E-04   5.3610235E+05   -1.8435487E+00
   1.4390605E-04   5.3156853E+05   -1.8430530E+00
   1.4457062E-04   5.2707426E+05   -1.8425564E+00
   1.4523826E-04   5.2261919E+05   -1.8420589E+00
   1.4590899E-04   5.1820296E+05   -1.8415607E+00
   1.4658281E-04   5.1382523E+05   -1.8410615E+00
   1.4725974E-04   5.0948566E+05   -1.8405616E+00
   1.4793981E-04   5.0518390E+05   -1.8400608E+00
   1.4862301E-04   5.0091961E+05   -1.8395591E+00
   1.4930936E-04   4.9669248E+05   -1.8390567E+00
   1.4999889E-04   4.9250215E+05   -1.8385534E+00
   1.5069160E-04   4.8834831E+05   -1.8380493E+00
   1.5138751E-04   4.8423063E+05   -1.8375443E+00
   1.5208663E-04   4.8014879E+05   -1.8370386E+00
   1.5278899E-04   4.7610246E+05   -1.8365320E+00
   1.5349458E-04   4.7209134E+05   -1.8360247E+00
   1.5420343E-04   4.6811511E+05   -1.8355165E+00
   1.5491556E-04   4.6417345E+05   -1.8350075E+00
   1.5563098E-04   4.6026606E+05   -1.8344977E+00
   1.5634970E-04   4.5639264E+05   -1.8339872E+00
   1.5707174E-04   4.5255288E+05   -1.8334758E+00
   1.5779711E-04   4.4874649E+05   -1.8329637E+00
   1.5852584E-04   4.4497316E+05   -1.8324507E+00
   1.5925792E-04   4.4123260E+05   -1.8319370E+00
   1.5999339E-04   4.3752452E+05   -1.8314226E+00
   1.6073226E-04   4.3384864E+05   -1.8309073E+00
   1.6147454E-04   4.3020466E+05   -1.8303913E+00
   1.6222024E-04   4.2659230E+05   -1.8298745E+00
   1.6296939E-04   4.2301128E+05   -1.8293569E+00
   1.6372200E-04   4.1946133E+05   -1.8288386E+00
   1.6447809E-04   4.1594215E+05   -1.8283195E+00
   1.6523767E-04   4.1245350E+05   -1.8277997E+00
   1.6600075E-04   4.0899508E+05   -1.8272792E+00
   1.6676736E-04   4.0556663E+05   -1.8267579E+00
   1.6753751E-04   4.0216789E+05   -1.8262358E+00
   1.6831122E-04   3.9879860E+05   -1.8257130E+00
   1.6908849E-04   3.9545848E+05   -1.8251895E+00
   1.6986936E-04   3.9214728E+05   -1.8246653E+00
   1.7065384E-04   3.8886475E+05   -1.8241403E+00
   1.7144193E-04   3.8561063E+05   -1.8236147E+00
   1.7223367E-04   3.8238467E+05   -1.8230883E+00
   1.7302906E-04   3.7918661E+05   -1.8225612E+00
   1.7382813E-04   3.7601622E+05   -1.8220334E+00
   1.7463089E-04   3.7287324E+05   -1.8215049E+00
   1.7543735E-04   3.6975744E+05   -1.8209757E+00
   1.7624754E-04   3.6666856E+05   -1.8204458E+00
   1.7706147E-04   3.6360638E+05   -1.8199152E+00
   1.7787916E-04   3.6057065E+05   -1.8193839E+00
   1.7870062E-04   3.5756114E+05   -1.8188520E+00
   1.7952588E-04   3.5457762E+05   -1.8183193E+00
   1.8035495E-04   3.5161986E+05   -1.8177861E+00
   1.8118785E-04   3.4868763E+05   -1.8172521E+00
   1.8202459E-04   3.4578071E+05   -1.8167175E+00
   1.8286520E-04   3.4289886E+05   -1.8161822E+00
   1.8370969E-04   3.4004187E+05   -1.8156462E+00
   1.8455808E-04   3.3720952E+05   -1.8151097E+00
   1.8541039E-04   3.3440158E+05   -1.8145724E+00
   1.8626663E-04   3.3161785E+05   -1.8140346E+00
   1.8712683E-04   3.2885811E+05   -1.8134961E+00
   1.8799100E-04   3.2612215E+05   -1.8129569E+00
   1.8885917E-04   3.2340975E+05   -1.8124172E+00
   1.8973134E-04   3.2072070E+05   -1.8118768E+00
   1.9060754E-04   3.1805481E+05   -1.8113358E+00
   1.9148778E-04   3.1541187E+05   -1.8107942E+00
   1.9237209E-04   3.1279166E+05   -1.8102519E+00
   1.9326049E-04   3.1019400E+05   -1.8097091E+00
   1.9415299E-04   3.0761869E+05   -1.8091657E+00
   1.9504960E-04   3.0506551E+05   -1.8086217E+00
   1.9595036E-04   3.0253429E+05   -1.8080771E+00
   1.9685528E-04   3.0002482E+05   -1.8075319E+00
   1.9776438E-04   2.9753692E+05   -1.8069861E+00
   1.9867768E-04   2.9507039E+05   -1.8064398E+00
   1.9959519E-04   2.9262504E+05   -1.8058929E+00
   2.0051694E-04   2.9020069E+05   -1.8053454E+00
   2.0144295E-04   2.8779716E+05   -1.8047974E+00
   2.0237324E-04   2.8541425E+05   -1.8042488E+00
   2.0330782E-04   2.8305178E+05   -1.8036997E+00
   2.0424671E-04   2.8070958E+05   -1.8031500E+00
   2.0518995E-04   2.7838747E+05   -1.8025998E+00
   2.0613754E-04   2.7608527E+05   -1.8020490E+00
   2.0708950E-04   2.7380280E+05   -1.8014977E+00
   2.0804586E-04   2.7153989E+05   -1.8009459E+00
   2.0900664E-04   2.6929637E+05   -1.8003936E+00
   2.0997185E-04   2.6707206E+05   -1.7998408E+00
   2.1094152E-04   2.6486680E+05   -1.7992874E+00
   2.1191567E-04   2.6268043E+05   -1.7987336E+00
   2.1289432E-04   2.6051276E+05   -1.7981792E+00
   2.1387749E-04   2.5836364E+05   -1.7976244E+00
   2.1486520E-04   2.5623291E+05   -1.7970691E+00
   2.1585747E-04   2.5412040E+05   -1.7965133E+00
   2.1685432E-04   2.5202595E+05   -1.7959570E+00
   2.1785578E-04   2.4994940E+05   -1.7954002E+00
   2.1886186E-04   2.4789060E+05   -1.7948430E+00
   2.1987259E-04   2.4584939E+05   -1.7942853E+00
   2.2088798E-04   2.4382562E+05   -1.7937272E+00
   2.2190807E-04   2.4181912E+05   -1.7931686E+00
   2.2293286E-04   2.3982976E+05   -1.7926095E+00
   2.2396239E-04   2.3785737E+05   -1.7920501E+00
   2.2499667E-04   2.3590182E+05   -1.7914902E+00
   2.2603573E-04   2.3396294E+05   -1.7909298E+00
   2.2707958E-04   2.3204060E+05   -1.7903691E+00
   2.2812826E-04   2.3013465E+05   -1.7898079E+00
   2.2918178E-04   2.2824495E+05   -1.7892463E+00
   2.3024017E-04   2.2637134E+05   -1.7886843E+00
   2.3130344E-04   2.2451370E+05   -1.7881219E+00
   2.3237162E-04   2.2267188E+05   -1.7875591E+00
   2.3344474E-04   2.2084575E+05   -1.7869959E+00
   2.3452281E-04   2.1903516E+05   -1.7864324E+00
   2.3560586E-04   2.1723997E+05   -1.7858684E+00
   2.3669392E-04   2.1546006E+05   -1.7853041E+00
   2.3778699E-04   2.1369529E+05   -1.7847394E+00
   2.3888512E-04   2.1194552E+05   -1.7841743E+00
   2.3998831E-04   2.1021063E+05   -1.7836089E+00
   2.4109661E-04   2.0849049E+05   -1.7830432E+00
   2.4221001E-04   2.0678496E+05   -1.7824771E+00
   2.4332857E-04   2.0509391E+05   -1.7819106E+00
   2.4445228E-04   2.0341723E+05   -1.7813439E+00
   2.4558119E-04   2.0175478E+05   -1.7807767E+00
   2.4671531E-04   2.0010644E+05   -1.7802093E+00
   2.4785467E-04   1.9847208E+05   -1.7796416E+00
   2.4899928E-04   1.9685159E+05   -1.7790735E+00
   2.5014919E-04   1.9524485E+05   -1.7785052E+00
   2.5130440E-04   1.9365172E+05   -1.7779365E+00
   2.5246495E-04   1.9207210E+05   -1.7773676E+00
   2.5363086E-04   1.9050586E+05   -1.7767983E+00
   2.5480216E-04   1.8895289E+05   -1.7762288E+00
   2.5597886E-04   1.8741307E+05   -1.7756590E+00
   2.5716100E-04   1.8588628E+05   -1.7750889E+00
   2.5834859E-04   1.8437242E+05   -1.7745186E+00
   2.5954168E-04   1.8287137E+05   -1.7739480E+00
   2.6074027E-04   1.8138301E+05   -1.7733772E+00
   2.6194439E-04   1.7990725E+05   -1.7728061E+00
   2.6315408E-04   1.7844396E+05   -1.7722348E+00
   2.6436935E-04   1.7699303E+05   -1.7716632E+00
   2.6559024E-04   1.7555437E+05   -1.7710914E+00
   2.6681676E-04   1.7412786E+05   -1.7705194E+00
   2.6804895E-04   1.7271340E+05   -1.7699472E+00
   2.6928683E-04   1.7131087E+05   -1.7693747E+00
   2.7053042E-04   1.6992019E+05   -1.7688021E+00
   2.7177976E-04   1.6854124E+05   -1.7682292E+00
   2.7303487E-04   1.6717392E+05   -1.7676562E+00
   2.7429577E-04   1.6581813E+05   -1.7670830E+00
   2.7556250E-04   1.6447378E+05   -1.7665096E+00
   2.7683507E-04   1.6314075E+05   -1.7659360E+00
   2.7811353E-04   1.6181895E+05   -1.7653622E+00
   2.7939788E-04   1.6050829E+05   -1.7647883E+00
   2.8068817E-04   1.5920867E+05   -1.7642142E+00
   2.8198442E-04   1.5791998E+05   -1.7636400E+00
   2.8328665E-04   1.5664214E+05   -1.7630656E+00
   2.8459490E-04   1.5537505E+05   -1.7624911E+00
   2.8590919E-04   1.5411862E+05   -1.7619165E+00
   2.8722955E-04   1.5287276E+05   -1.7613417E+00
   2.8855600E-04   1.5163737E+05   -1.7607669E+00
   2.8988859E-04   1.5041235E+05   -1.7601919E+00
   2.9122732E-04   1.4919764E+05   -1.7596167E+00
   2.9257224E-04   1.4799312E+05   -1.7590415E+00
   2.9392337E-04   1.4679872E+05   -1.7584662E+00
   2.9528074E-04   1.4561434E+05   -1.7578908E+00
   2.9664438E-04   1.4443990E+05   -1.7573153E+00
   2.9801431E-04   1.4327531E+05   -1.7567398E+00
   2.9939057E-04   1.4212049E+05   -1.7561642E+00
   3.0077319E-04   1.4097535E+05   -1.7555885E+00
   3.0216219E-04   1.3983981E+05   -1.7550127E+00
   3.0355761E-04   1.3871379E+05   -1.7544369E+00
   3.0495947E-04   1.3759719E+05   -1.7538610E+00
   3.0636780E-04   1.3648995E+05   -1.7532851E+00
   3.0778264E-04   1.3539198E+05   -1.7527092E+00
   3.0920401E-04   1.3430319E+05   -1.7521332E+00
   3.1063195E-04   1.3322352E+05   -1.7515572E+00
   3.1206648E-04   1.3215287E+05   -1.7509812E+00
   3.1350764E-04   1.3109118E+05   -1.7504052E+00
   3.1495545E-04   1.3003836E+05   -1.7498292E+00
   3.1640994E-04   1.2899434E+05   -1.7492532E+00
   3.1787116E-04   1.2795904E+05   -1.7486772E+00
   3.1933912E-04   1.2693238E+05   -1.7481011E+00
   3.2081386E-04   1.2591430E+05   -1.7475252E+00
   3.2229541E-04   1.2490472E+05   -1.7469492E+00
   3.2378381E-04   1.2390356E+05   -1.7463733E+00
   3.2527908E-04   1.2291074E+05   -1.7457974E+00
   3.2678125E-04   1.2192621E+05   -1.7452216E+00
   3.2829036E-04   1.2094989E+05   -1.7446458E+00
   3.2980644E-04   1.1998170E+05   -1.7440700E+00
   3.3132952E-04   1.1902158E+05   -1.7434944E+00
   3.3285963E-04   1.1806945E+05   -1.7429188E+00
   3.3439681E-04   1.1712525E+05   -1.7423432E+00
   3.3594109E-04   1.1618891E+05   -1.7417678E+00
   3.3749250E-04   1.1526036E+05   -1.7411924E+00
   3.3905108E-04   1.1433954E+05   -1.7406171E+00
   3.4061685E-04   1.1342637E+05   -1.7400420E+00
   3.4218986E-04   1.1252079E+05   -1.7394669E+00
   3.4377013E-04   1.1162274E+05   -1.7388919E+00
   3.4535769E-04   1.1073215E+05   -1.7383171E+00
   3.4695259E-04   1.0984896E+05   -1.7377424E+00
   3.4855485E-04   1.0897310E+05   -1.7371678E+00
   3.5016452E-04   1.0810450E+05   -1.7365934E+00
   3.5178161E-04   1.0724312E+05   -1.7360190E+00
   3.5340618E-04   1.0638888E+05   -1.7354449E+00
   3.5503824E-04   1.0554172E+05   -1.7348709E+00
   3.5667785E-04   1.0470159E+05   -1.7342970E+00
   3.5832502E-04   1.0386842E+05   -1.7337233E+00
   3.5997981E-04   1.0304215E+05   -1.7331498E+00
   3.6164223E-04   1.0222273E+05   -1.7325765E+00
   3.6331233E-04   1.0141009E+05   -1.7320033E+00
   3.6499015E-04   1.0060417E+05   -1.7314304E+00
   3.6667571E-04   9.9804923E+04   -1.7308576E+00
   3.6836906E-04   9.9012286E+04   -1.7302850E+00
   3.7007022E-04   9.8226204E+04   -1.7297127E+00
   3.7177925E-04   9.7446619E+04   -1.7291405E+00
   3.7349616E-04   9.6673477E+04   -1.7285686E+00
   3.7522101E-04   9.5906721E+04   -1.7279969E+00
   3.7695382E-04   9.5146297E+04   -1.7274254E+00
   3.7869463E-04   9.4392151E+04   -1.7268542E+00
   3.8044348E-04   9.3644229E+04   -1.7262832E+00
   3.8220041E-04   9.2902478E+04   -1.7257125E+00
   3.8396545E-04   9.2166844E+04   -1.7251420E+00
   3.8573864E-04   9.1437276E+04   -1.7245717E+00
   3.8752002E-04   9.0713721E+04   -1.7240018E+00
   3.8930963E-04   8.9996127E+04   -1.7234321E+00
   3.9110750E-04   8.9284445E+04   -1.7228627E+00
   3.9291368E-04   8.8578623E+04   -1.7222936E+00
   3.9472820E-04   8.7878610E+04   -1.7217247E+00
   3.9655109E-04   8.7184359E+04   -1.7211562E+00
   3.9838241E-04   8.6495818E+04   -1.7205879E+00
   4.0022218E-04   8.5812940E+04   -1.7200200E+00
   4.0207045E-04   8.5135676E+04   -1.7194524E+00
   4.0392725E-04   8.4463978E+04   -1.7188851E+00
   4.0579263E-04   8.3797799E+04   -1.7183181E+00
   4.0766662E-04   8.3137091E+04   -1.7177515E+00
   4.0954927E-04   8.2481807E+04   -1.7171851E+00
   4.1144061E-04   8.1831902E+04   -1.7166192E+00
   4.1334068E-04   8.1187330E+04   -1.7160535E+00
   4.1524953E-04   8.0548044E+04   -1.7154883E+00
   4.1716720E-04   7.9914000E+04   -1.7149234E+00
   4.1909372E-04   7.9285154E+04   -1.7143588E+00
   4.2102914E-04   7.8661460E+04   -1.7137946E+00
   4.2297350E-04   7.8042876E+04   -1.7132308E+00
   4.2492683E-04   7.7429357E+04   -1.7126674E+00
   4.2688919E-04   7.6820860E+04   -1.7121044E+00
   4.2886061E-04   7.6217344E+04   -1.7115417E+00
   4.3084113E-04   7.5618764E+04   -1.7109795E+00
   4.3283080E-04   7.5025080E+04   -1.7104177E+00
   4.3482966E-04   7.4436249E+04   -1.7098562E+00
   4.3683775E-04   7.3852231E+04   -1.7092952E+00
   4.3885511E-04   7.3272985E+04   -1.7087346E+00
   4.4088179E-04   7.2698469E+04   -1.7081744E+00
   4.4291783E-04   7.2128644E+04   -1.7076147E+00
   4.4496327E-04   7.1563469E+04   -1.7070554E+00
   4.4701816E-04   7.1002906E+04   -1.7064965E+00
   4.4908253E-04   7.0446916E+04   -1.7059381E+00
   4.5115644E-04   6.9895459E+04   -1.7053801E+00
   4.5323993E-04   6.9348497E+04   -1.7048226E+00
   4.5533304E-04   6.8805992E+04   -1.7042656E+00
   4.5743582E-04   6.8267906E+04   -1.7037090E+00
   4.5954830E-04   6.7734201E+04   -1.7031529E+00
   4.6167054E-04   6.7204841E+04   -1.7025973E+00
   4.6380259E-04   6.6679789E+04   -1.7020421E+00
   4.6594448E-04   6.6159008E+04   -1.7014875E+00
   4.6809626E-04   6.5642462E+04   -1.7009333E+00
   4.7025797E-04   6.5130116E+04   -1.7003797E+00
   4.7242967E-04   6.4621932E+04   -1.6998265E+00
   4.7461140E-04   6.4117878E+04   -1.6992739E+00
   4.7680321E-04   6.3617917E+04   -1.6987218E+00
   4.7900514E-04   6.3122015E+04   -1.6981702E+00
   4.8121723E-04   6.2630137E+04   -1.6976191E+00
   4.8343954E-04   6.2142251E+04   -1.6970685E+00
   4.8567212E-04   6.1658321E+04   -1.6965185E+00
   4.8791500E-04   6.1178315E+04   -1.6959691E+00
   4.9016825E-04   6.0702199E+04   -1.6954201E+00
   4.9243189E-04   6.0229941E+04   -1.6948718E+00
   4.9470600E-04   5.9761508E+04   -1.6943239E+00
   4.9699060E-04   5.9296868E+04   -1.6937767E+00
   4.9928575E-04   5.8835988E+04   -1.6932300E+00
   5.0159151E-04   5.8378838E+04   -1.6926839E+00
   5.0390791E-04   5.7925385E+04   -1.6921383E+00
   5.0623501E-04   5.7475599E+04   -1.6915934E+00
   5.0857286E-04   5.7029448E+04   -1.6910490E+00
   5.1092150E-04   5.6586903E+04   -1.6905052E+00
   5.1328099E-04   5.6147932E+04   -1.6899620E+00
   5.1565137E-04   5.5712506E+04   -1.6894194E+00
   5.1803270E-04   5.5280595E+04   -1.6888774E+00
   5.2042503E-04   5.4852169E+04   -1.6883360E+00
   5.2282841E-04   5.4427199E+04   -1.6877953E+00
   5.2524289E-04   5.4005656E+04   -1.6872551E+00
   5.2766851E-04   5.3587511E+04   -1.6867156E+00
   5.3010534E-04   5.3172736E+04   -1.6861767E+00
   5.3255342E-04   5.2761302E+04   -1.6856384E+00
   5.3501281E-04   5.2353182E+04   -1.6851008E+00
   5.3748356E-04   5.1948347E+04   -1.6845638E+00
   5.3996571E-04   5.1546770E+04   -1.6840274E+00
   5.4245933E-04   5.1148423E+04   -1.6834918E+00
   5.4496446E-04   5.0753280E+04   -1.6829567E+00
   5.4748117E-04   5.0361314E+04   -1.6824223E+00
   5.5000949E-04   4.9972498E+04   -1.6818886E+00
   5.5254949E-04   4.9586806E+04   -1.6813556E+00
   5.5510123E-04   4.9204211E+04   -1.6808232E+00
   5.5766474E-04   4.8824688E+04   -1.6802915E+00
   5.6024010E-04   4.8448211E+04   -1.6797605E+00
   5.6282734E-04   4.8074755E+04   -1.6792302E+00
   5.6542654E-04   4.7704293E+04   -1.6787005E+00
   5.6803774E-04   4.7336802E+04   -1.6781716E+00
   5.7066099E-04   4.6972256E+04   -1.6776433E+00
   5.7329637E-04   4.6610631E+04   -1.6771158E+00
   5.7594391E-04   4.6251902E+04   -1.6765890E+00
   5.7860368E-04   4.5896046E+04   -1.6760628E+00
   5.8127573E-04   4.5543038E+04   -1.6755374E+00
   5.8396012E-04   4.5192854E+04   -1.6750127E+00
   5.8665691E-04   4.4845471E+04   -1.6744888E+00
   5.8936616E-04   4.4500866E+04   -1.6739655E+00
   5.9208791E-04   4.4159015E+04   -1.6734430E+00
   5.9482223E-04   4.3819896E+04   -1.6729212E+00
   5.9756919E-04   4.3483486E+04   -1.6724002E+00
   6.0032882E-04   4.3149761E+04   -1.6718799E+00
   6.0310120E-04   4.2818701E+04   -1.6713604E+00
   6.0588639E-04   4.2490282E+04   -1.6708416E+00
   6.0868443E-04   4.2164482E+04   -1.6703235E+00
   6.1149540E-04   4.1841281E+04   -1.6698063E+00
   6.1431935E-04   4.1520656E+04   -1.6692897E+00
   6.1715634E-04   4.1202586E+04   -1.6687740E+00
   6.2000644E-04   4.0887049E+04   -1.6682590E+00
   6.2286969E-04   4.0574026E+04   -1.6677448E+00
