#        a       HoverH0(a)       dlogHdloga_of_a(a)
   1.0000000E-04   1.2079905E+06   -1.8790044E+00
   1.0046181E-04   1.1975786E+06   -1.8785813E+00
   1.0092575E-04   1.1872589E+06   -1.8781572E+00
   1.0139184E-04   1.1770303E+06   -1.8777321E+00
   1.0186008E-04   1.1668922E+06   -1.8773060E+00
   1.0233048E-04   1.1568437E+06   -1.8768789E+00
   1.0280305E-04   1.1468839E+06   -1.8764508E+00
   1.0327781E-04   1.1370122E+06   -1.8760217E+00
   1.0375475E-04   1.1272276E+06   -1.8755916E+00
   1.0423390E-04   1.1175295E+06   -1.8751605E+00
   1.0471527E-04   1.1079170E+06   -1.8747284E+00
   1.0519885E-04   1.0983894E+06   -1.8742953E+00
   1.0568467E-04   1.0889459E+06   -1.8738613E+00
   1.0617274E-04   1.0795857E+06   -1.8734262E+00
   1.0666305E-04   1.0703082E+06   -1.8729901E+00
   1.0715563E-04   1.0611125E+06   -1.8725531E+00
   1.0765049E-04   1.0519979E+06   -1.8721150E+00
   1.0814763E-04   1.0429638E+06   -1.8716760E+00
   1.0864707E-04   1.0340093E+06   -1.8712360E+00
   1.0914881E-04   1.0251338E+06   -1.8707950E+00
   1.0965287E-04   1.0163365E+06   -1.8703530E+00
   1.1015926E-04   1.0076168E+06   -1.8699100E+00
   1.1066799E-04   9.9897390E+05   -1.8694661E+00
   1.1117906E-04   9.9040719E+05   -1.8690212E+00
   1.1169250E-04   9.8191595E+05   -1.8685753E+00
   1.1220831E-04   9.7349952E+05   -1.8681284E+00
   1.1272650E-04   9.6515722E+05   -1.8676805E+00
   1.1324708E-04   9.5688838E+05   -1.8672317E+00
   1.1377007E-04   9.4869236E+05   -1.8667819E+00
   1.1429547E-04   9.4056848E+05   -1.8663312E+00
   1.1482330E-04   9.3251611E+05   -1.8658794E+00
   1.1535356E-04   9.2453461E+05   -1.8654267E+00
   1.1588628E-04   9.1662333E+05   -1.8649731E+00
   1.1642145E-04   9.0878165E+05   -1.8645185E+00
   1.1695910E-04   9.0100895E+05   -1.8640629E+00
   1.1749923E-04   8.9330460E+05   -1.8636063E+00
   1.1804185E-04   8.8566799E+05   -1.8631488E+00
   1.1858698E-04   8.7809852E+05   -1.8626904E+00
   1.1913463E-04   8.7059558E+05   -1.8622310E+00
   1.1968481E-04   8.6315858E+05   -1.8617706E+00
   1.2023752E-04   8.5578693E+05   -1.8613093E+00
   1.2079279E-04   8.4848005E+05   -1.8608471E+00
   1.2135063E-04   8.4123734E+05   -1.8603839E+00
   1.2191104E-04   8.3405824E+05   -1.8599197E+00
   1.2247403E-04   8.2694218E+05   -1.8594546E+00
   1.2303963E-04   8.1988858E+05   -1.8589886E+00
   1.2360784E-04   8.1289690E+05   -1.8585216E+00
   1.2417868E-04   8.0596658E+05   -1.8580537E+00
   1.2475215E-04   7.9909707E+05   -1.8575849E+00
   1.2532826E-04   7.9228782E+05   -1.8571151E+00
   1.2590704E-04   7.8553829E+05   -1.8566445E+00
   1.2648850E-04   7.7884796E+05   -1.8561728E+00
   1.2707263E-04   7.7221628E+05   -1.8557003E+00
   1.2765947E-04   7.6564274E+05   -1.8552268E+00
   1.2824901E-04   7.5912682E+05   -1.8547525E+00
   1.2884128E-04   7.5266800E+05   -1.8542772E+00
   1.2943628E-04   7.4626577E+05   -1.8538010E+00
   1.3003403E-04   7.3991961E+05   -1.8533238E+00
   1.3063454E-04   7.3362904E+05   -1.8528458E+00
   1.3123783E-04   7.2739356E+05   -1.8523669E+00
   1.3184390E-04   7.2121266E+05   -1.8518870E+00
   1.3245277E-04   7.1508587E+05   -1.8514063E+00
   1.3306445E-04   7.0901270E+05   -1.8509246E+00
   1.3367895E-04   7.0299267E+05   -1.8504421E+00
   1.3429630E-04   6.9702530E+05   -1.8499586E+00
   1.3491649E-04   6.9111013E+05   -1.8494743E+00
   1.3553955E-04   6.8524669E+05   -1.8489891E+00
   1.3616548E-04   6.7943451E+05   -1.8485030E+00
   1.3679431E-04   6.7367315E+05   -1.8480160E+00
   1.3742604E-04   6.6796213E+05   -1.8475281E+00
   1.3806069E-04   6.6230103E+05   -1.8470394E+00
   1.3869827E-04   6.5668938E+05   -1.8465498E+00
   1.3933879E-04   6.5112675E+05   -1.8460593E+00
   1.3998227E-04   6.4561269E+05   -1.8455679E+00
   1.4062872E-04   6.4014679E+05   -1.8450757E+00
   1.4127816E-04   6.3472860E+05   -1.8445826E+00
   1.4193060E-04   6.2935770E+05   -1.8440886E+00
   1.4258605E-04   6.2403367E+05   -1.8435938E+00
   1.4324453E-04   6.1875609E+05   -1.8430982E+00
   1.4390605E-04   6.1352454E+05   -1.8426016E+00
   1.4457062E-04   6.0833862E+05   -1.8421043E+00
   1.4523826E-04   6.0319793E+05   -1.8416061E+00
   1.4590899E-04   5.9810204E+05   -1.8411070E+00
   1.4658281E-04   5.9305057E+05   -1.8406071E+00
   1.4725974E-04   5.8804312E+05   -1.8401064E+00
   1.4793981E-04   5.8307930E+05   -1.8396048E+00
   1.4862301E-04   5.7815871E+05   -1.8391024E+00
   1.4930936E-04   5.7328098E+05   -1.8385992E+00
   1.4999889E-04   5.6844572E+05   -1.8380952E+00
   1.5069160E-04   5.6365255E+05   -1.8375903E+00
   1.5138751E-04   5.5890109E+05   -1.8370847E+00
   1.5208663E-04   5.5419099E+05   -1.8365782E+00
   1.5278899E-04   5.4952186E+05   -1.8360709E+00
   1.5349458E-04   5.4489334E+05   -1.8355628E+00
   1.5420343E-04   5.4030508E+05   -1.8350539E+00
   1.5491556E-04   5.3575671E+05   -1.8345442E+00
   1.5563098E-04   5.3124787E+05   -1.8340337E+00
   1.5634970E-04   5.2677822E+05   -1.8335224E+00
   1.5707174E-04   5.2234741E+05   -1.8330103E+00
   1.5779711E-04   5.1795509E+05   -1.8324975E+00
   1.5852584E-04   5.1360092E+05   -1.8319838E+00
   1.5925792E-04   5.0928455E+05   -1.8314694E+00
   1.5999339E-04   5.0500566E+05   -1.8309542E+00
   1.6073226E-04   5.0076391E+05   -1.8304383E+00
   1.6147454E-04   4.9655897E+05   -1.8299216E+00
   1.6222024E-04   4.9239051E+05   -1.8294041E+00
   1.6296939E-04   4.8825821E+05   -1.8288858E+00
   1.6372200E-04   4.8416175E+05   -1.8283668E+00
   1.6447809E-04   4.8010080E+05   -1.8278471E+00
   1.6523767E-04   4.7607506E+05   -1.8273266E+00
   1.6600075E-04   4.7208420E+05   -1.8268054E+00
   1.6676736E-04   4.6812793E+05   -1.8262834E+00
   1.6753751E-04   4.6420593E+05   -1.8257607E+00
   1.6831122E-04   4.6031789E+05   -1.8252372E+00
   1.6908849E-04   4.5646353E+05   -1.8247131E+00
   1.6986936E-04   4.5264253E+05   -1.8241882E+00
   1.7065384E-04   4.4885460E+05   -1.8236626E+00
   1.7144193E-04   4.4509945E+05   -1.8231362E+00
   1.7223367E-04   4.4137678E+05   -1.8226092E+00
   1.7302906E-04   4.3768632E+05   -1.8220815E+00
   1.7382813E-04   4.3402777E+05   -1.8215530E+00
   1.7463089E-04   4.3040085E+05   -1.8210239E+00
   1.7543735E-04   4.2680527E+05   -1.8204941E+00
   1.7624754E-04   4.2324077E+05   -1.8199635E+00
   1.7706147E-04   4.1970707E+05   -1.8194323E+00
   1.7787916E-04   4.1620388E+05   -1.8189004E+00
   1.7870062E-04   4.1273095E+05   -1.8183679E+00
   1.7952588E-04   4.0928801E+05   -1.8178346E+00
   1.8035495E-04   4.0587478E+05   -1.8173007E+00
   1.8118785E-04   4.0249100E+05   -1.8167662E+00
   1.8202459E-04   3.9913643E+05   -1.8162310E+00
   1.8286520E-04   3.9581078E+05   -1.8156951E+00
   1.8370969E-04   3.9251382E+05   -1.8151586E+00
   1.8455808E-04   3.8924528E+05   -1.8146214E+00
   1.8541039E-04   3.8600492E+05   -1.8140836E+00
   1.8626663E-04   3.8279248E+05   -1.8135451E+00
   1.8712683E-04   3.7960771E+05   -1.8130060E+00
   1.8799100E-04   3.7645038E+05   -1.8124663E+00
   1.8885917E-04   3.7332024E+05   -1.8119260E+00
   1.8973134E-04   3.7021705E+05   -1.8113851E+00
   1.9060754E-04   3.6714056E+05   -1.8108435E+00
   1.9148778E-04   3.6409056E+05   -1.8103013E+00
   1.9237209E-04   3.6106679E+05   -1.8097586E+00
   1.9326049E-04   3.5806903E+05   -1.8092152E+00
   1.9415299E-04   3.5509705E+05   -1.8086713E+00
   1.9504960E-04   3.5215062E+05   -1.8081267E+00
   1.9595036E-04   3.4922951E+05   -1.8075816E+00
   1.9685528E-04   3.4633351E+05   -1.8070359E+00
   1.9776438E-04   3.4346238E+05   -1.8064896E+00
   1.9867768E-04   3.4061592E+05   -1.8059427E+00
   1.9959519E-04   3.3779390E+05   -1.8053953E+00
   2.0051694E-04   3.3499610E+05   -1.8048473E+00
   2.0144295E-04   3.3222231E+05   -1.8042988E+00
   2.0237324E-04   3.2947233E+05   -1.8037497E+00
   2.0330782E-04   3.2674593E+05   -1.8032001E+00
   2.0424671E-04   3.2404292E+05   -1.8026499E+00
   2.0518995E-04   3.2136308E+05   -1.8020992E+00
   2.0613754E-04   3.1870621E+05   -1.8015480E+00
   2.0708950E-04   3.1607212E+05   -1.8009962E+00
   2.0804586E-04   3.1346059E+05   -1.8004439E+00
   2.0900664E-04   3.1087143E+05   -1.7998912E+00
   2.0997185E-04   3.0830444E+05   -1.7993379E+00
   2.1094152E-04   3.0575943E+05   -1.7987841E+00
   2.1191567E-04   3.0323620E+05   -1.7982298E+00
   2.1289432E-04   3.0073456E+05   -1.7976750E+00
   2.1387749E-04   2.9825432E+05   -1.7971197E+00
   2.1486520E-04   2.9579530E+05   -1.7965639E+00
   2.1585747E-04   2.9335730E+05   -1.7960077E+00
   2.1685432E-04   2.9094014E+05   -1.7954510E+00
   2.1785578E-04   2.8854364E+05   -1.7948938E+00
   2.1886186E-04   2.8616761E+05   -1.7943361E+00
   2.1987259E-04   2.8381188E+05   -1.7937780E+00
   2.2088798E-04   2.8147626E+05   -1.7932195E+00
   2.2190807E-04   2.7916058E+05   -1.7926605E+00
   2.2293286E-04   2.7686467E+05   -1.7921011E+00
   2.2396239E-04   2.7458835E+05   -1.7915412E+00
   2.2499667E-04   2.7233145E+05   -1.7909809E+00
   2.2603573E-04   2.7009379E+05   -1.7904202E+00
   2.2707958E-04   2.6787522E+05   -1.7898590E+00
   2.2812826E-04   2.6567555E+05   -1.7892975E+00
   2.2918178E-04   2.6349463E+05   -1.7887355E+00
   2.3024017E-04   2.6133228E+05   -1.7881732E+00
   2.3130344E-04   2.5918836E+05   -1.7876104E+00
   2.3237162E-04   2.5706269E+05   -1.7870472E+00
   2.3344474E-04   2.5495511E+05   -1.7864837E+00
   2.3452281E-04   2.5286547E+05   -1.7859198E+00
   2.3560586E-04   2.5079362E+05   -1.7853555E+00
   2.3669392E-04   2.4873938E+05   -1.7847909E+00
   2.3778699E-04   2.4670261E+05   -1.7842258E+00
   2.3888512E-04   2.4468315E+05   -1.7836605E+00
   2.3998831E-04   2.4268086E+05   -1.7830947E+00
   2.4109661E-04   2.4069559E+05   -1.7825287E+00
   2.4221001E-04   2.3872717E+05   -1.7819623E+00
   2.4332857E-04   2.3677547E+05   -1.7813955E+00
   2.4445228E-04   2.3484034E+05   -1.7808284E+00
   2.4558119E-04   2.3292164E+05   -1.7802610E+00
   2.4671531E-04   2.3101921E+05   -1.7796933E+00
   2.4785467E-04   2.2913292E+05   -1.7791253E+00
   2.4899928E-04   2.2726263E+05   -1.7785570E+00
   2.5014919E-04   2.2540820E+05   -1.7779883E+00
   2.5130440E-04   2.2356948E+05   -1.7774194E+00
   2.5246495E-04   2.2174635E+05   -1.7768502E+00
   2.5363086E-04   2.1993866E+05   -1.7762807E+00
   2.5480216E-04   2.1814628E+05   -1.7757109E+00
   2.5597886E-04   2.1636907E+05   -1.7751409E+00
   2.5716100E-04   2.1460690E+05   -1.7745706E+00
   2.5834859E-04   2.1285965E+05   -1.7740000E+00
   2.5954168E-04   2.1112717E+05   -1.7734292E+00
   2.6074027E-04   2.0940935E+05   -1.7728581E+00
   2.6194439E-04   2.0770605E+05   -1.7722868E+00
   2.6315408E-04   2.0601715E+05   -1.7717153E+00
   2.6436935E-04   2.0434252E+05   -1.7711435E+00
   2.6559024E-04   2.0268204E+05   -1.7705715E+00
   2.6681676E-04   2.0103558E+05   -1.7699993E+00
   2.6804895E-04   1.9940302E+05   -1.7694269E+00
   2.6928683E-04   1.9778424E+05   -1.7688543E+00
   2.7053042E-04   1.9617911E+05   -1.7682814E+00
   2.7177976E-04   1.9458753E+05   -1.7677084E+00
   2.7303487E-04   1.9300937E+05   -1.7671352E+00
   2.7429577E-04   1.9144452E+05   -1.7665618E+00
   2.7556250E-04   1.8989285E+05   -1.7659883E+00
   2.7683507E-04   1.8835426E+05   -1.7654145E+00
   2.7811353E-04   1.8682863E+05   -1.7648406E+00
   2.7939788E-04   1.8531584E+05   -1.7642666E+00
   2.8068817E-04   1.8381580E+05   -1.7636924E+00
   2.8198442E-04   1.8232837E+05   -1.7631180E+00
   2.8328665E-04   1.8085346E+05   -1.7625435E+00
   2.8459490E-04   1.7939096E+05   -1.7619689E+00
   2.8590919E-04   1.7794076E+05   -1.7613941E+00
   2.8722955E-04   1.7650274E+05   -1.7608193E+00
   2.8855600E-04   1.7507681E+05   -1.7602443E+00
   2.8988859E-04   1.7366286E+05   -1.7596692E+00
   2.9122732E-04   1.7226079E+05   -1.7590940E+00
   2.9257224E-04   1.7087049E+05   -1.7585187E+00
   2.9392337E-04   1.6949186E+05   -1.7579433E+00
   2.9528074E-04   1.6812479E+05   -1.7573678E+00
   2.9664438E-04   1.6676920E+05   -1.7567923E+00
   2.9801431E-04   1.6542498E+05   -1.7562166E+00
   2.9939057E-04   1.6409202E+05   -1.7556409E+00
   3.0077319E-04   1.6277024E+05   -1.7550652E+00
   3.0216219E-04   1.6145953E+05   -1.7544894E+00
   3.0355761E-04   1.6015981E+05   -1.7539135E+00
   3.0495947E-04   1.5887097E+05   -1.7533376E+00
   3.0636780E-04   1.5759291E+05   -1.7527617E+00
   3.0778264E-04   1.5632556E+05   -1.7521857E+00
   3.0920401E-04   1.5506880E+05   -1.7516097E+00
   3.1063195E-04   1.5382256E+05   -1.7510337E+00
   3.1206648E-04   1.5258674E+05   -1.7504577E+00
   3.1350764E-04   1.5136125E+05   -1.7498817E+00
   3.1495545E-04   1.5014600E+05   -1.7493057E+00
   3.1640994E-04   1.4894090E+05   -1.7487297E+00
   3.1787116E-04   1.4774587E+05   -1.7481537E+00
   3.1933912E-04   1.4656081E+05   -1.7475777E+00
   3.2081386E-04   1.4538565E+05   -1.7470017E+00
   3.2229541E-04   1.4422029E+05   -1.7464258E+00
   3.2378381E-04   1.4306465E+05   -1.7458499E+00
   3.2527908E-04   1.4191865E+05   -1.7452741E+00
   3.2678125E-04   1.4078220E+05   -1.7446983E+00
   3.2829036E-04   1.3965522E+05   -1.7441225E+00
   3.2980644E-04   1.3853764E+05   -1.7435469E+00
   3.3132952E-04   1.3742936E+05   -1.7429712E+00
   3.3285963E-04   1.3633030E+05   -1.7423957E+00
   3.3439681E-04   1.3524040E+05   -1.7418203E+00
   3.3594109E-04   1.3415956E+05   -1.7412449E+00
   3.3749250E-04   1.3308772E+05   -1.7406696E+00
   3.3905108E-04   1.3202479E+05   -1.7400944E+00
   3.4061685E-04   1.3097069E+05   -1.7395193E+00
   3.4218986E-04   1.2992536E+05   -1.7389444E+00
   3.4377013E-04   1.2888871E+05   -1.7383695E+00
   3.4535769E-04   1.2786066E+05   -1.7377948E+00
   3.4695259E-04   1.2684116E+05   -1.7372202E+00
   3.4855485E-04   1.2583012E+05   -1.7366457E+00
   3.5016452E-04   1.2482746E+05   -1.7360714E+00
   3.5178161E-04   1.2383313E+05   -1.7354972E+00
   3.5340618E-04   1.2284704E+05   -1.7349232E+00
   3.5503824E-04   1.2186912E+05   -1.7343494E+00
   3.5667785E-04   1.2089931E+05   -1.7337757E+00
   3.5832502E-04   1.1993753E+05   -1.7332021E+00
   3.5997981E-04   1.1898372E+05   -1.7326288E+00
   3.6164223E-04   1.1803780E+05   -1.7320556E+00
   3.6331233E-04   1.1709972E+05   -1.7314826E+00
   3.6499015E-04   1.1616940E+05   -1.7309098E+00
   3.6667571E-04   1.1524677E+05   -1.7303373E+00
   3.6836906E-04   1.1433177E+05   -1.7297649E+00
   3.7007022E-04   1.1342433E+05   -1.7291927E+00
   3.7177925E-04   1.1252439E+05   -1.7286208E+00
   3.7349616E-04   1.1163189E+05   -1.7280490E+00
   3.7522101E-04   1.1074676E+05   -1.7274776E+00
   3.7695382E-04   1.0986894E+05   -1.7269063E+00
   3.7869463E-04   1.0899836E+05   -1.7263353E+00
   3.8044348E-04   1.0813496E+05   -1.7257645E+00
   3.8220041E-04   1.0727868E+05   -1.7251940E+00
   3.8396545E-04   1.0642947E+05   -1.7246238E+00
   3.8573864E-04   1.0558725E+05   -1.7240538E+00
   3.8752002E-04   1.0475198E+05   -1.7234841E+00
   3.8930963E-04   1.0392358E+05   -1.7229146E+00
   3.9110750E-04   1.0310201E+05   -1.7223455E+00
   3.9291368E-04   1.0228720E+05   -1.7217766E+00
   3.9472820E-04   1.0147909E+05   -1.7212080E+00
   3.9655109E-04   1.0067763E+05   -1.7206398E+00
   3.9838241E-04   9.9882768E+04   -1.7200718E+00
   4.0022218E-04   9.9094436E+04   -1.7195042E+00
   4.0207045E-04   9.8312584E+04   -1.7189368E+00
   4.0392725E-04   9.7537156E+04   -1.7183698E+00
   4.0579263E-04   9.6768096E+04   -1.7178032E+00
   4.0766662E-04   9.6005350E+04   -1.7172368E+00
   4.0954927E-04   9.5248866E+04   -1.7166708E+00
   4.1144061E-04   9.4498588E+04   -1.7161052E+00
   4.1334068E-04   9.3754464E+04   -1.7155399E+00
   4.1524953E-04   9.3016443E+04   -1.7149749E+00
   4.1716720E-04   9.2284471E+04   -1.7144103E+00
   4.1909372E-04   9.1558497E+04   -1.7138461E+00
   4.2102914E-04   9.0838470E+04   -1.7132823E+00
   4.2297350E-04   9.0124340E+04   -1.7127188E+00
   4.2492683E-04   8.9416055E+04   -1.7121558E+00
   4.2688919E-04   8.8713568E+04   -1.7115931E+00
   4.2886061E-04   8.8016827E+04   -1.7110308E+00
   4.3084113E-04   8.7325785E+04   -1.7104689E+00
   4.3283080E-04   8.6640393E+04   -1.7099075E+00
   4.3482966E-04   8.5960602E+04   -1.7093464E+00
   4.3683775E-04   8.5286365E+04   -1.7087858E+00
   4.3885511E-04   8.4617636E+04   -1.7082256E+00
   4.4088179E-04   8.3954366E+04   -1.7076658E+00
   4.4291783E-04   8.3296510E+04   -1.7071064E+00
   4.4496327E-04   8.2644022E+04   -1.7065475E+00
   4.4701816E-04   8.1996856E+04   -1.7059891E+00
   4.4908253E-04   8.1354967E+04   -1.7054311E+00
   4.5115644E-04   8.0718310E+04   -1.7048735E+00
   4.5323993E-04   8.0086842E+04   -1.7043164E+00
   4.5533304E-04   7.9460517E+04   -1.7037598E+00
   4.5743582E-04   7.8839293E+04   -1.7032037E+00
   4.5954830E-04   7.8223125E+04   -1.7026480E+00
   4.6167054E-04   7.7611972E+04   -1.7020928E+00
   4.6380259E-04   7.7005791E+04   -1.7015381E+00
   4.6594448E-04   7.6404540E+04   -1.7009839E+00
   4.6809626E-04   7.5808176E+04   -1.7004302E+00
   4.7025797E-04   7.5216659E+04   -1.6998770E+00
   4.7242967E-04   7.4629948E+04   -1.6993244E+00
   4.7461140E-04   7.4048001E+04   -1.6987722E+00
   4.7680321E-04   7.3470780E+04   -1.6982205E+00
   4.7900514E-04   7.2898243E+04   -1.6976694E+00
   4.8121723E-04   7.2330351E+04   -1.6971188E+00
   4.8343954E-04   7.1767065E+04   -1.6965688E+00
   4.8567212E-04   7.1208347E+04   -1.6960192E+00
   4.8791500E-04   7.0654157E+04   -1.6954703E+00
   4.9016825E-04   7.0104457E+04   -1.6949218E+00
   4.9243189E-04   6.9559210E+04   -1.6943740E+00
   4.9470600E-04   6.9018377E+04   -1.6938267E+00
   4.9699060E-04   6.8481922E+04   -1.6932799E+00
   4.9928575E-04   6.7949808E+04   -1.6927337E+00
   5.0159151E-04   6.7421998E+04   -1.6921881E+00
   5.0390791E-04   6.6898456E+04   -1.6916431E+00
   5.0623501E-04   6.6379146E+04   -1.6910987E+00
   5.0857286E-04   6.5864032E+04   -1.6905549E+00
   5.1092150E-04   6.5353080E+04   -1.6900116E+00
   5.1328099E-04   6.4846253E+04   -1.6894690E+00
   5.1565137E-04   6.4343518E+04   -1.6889269E+00
   5.1803270E-04   6.3844840E+04   -1.6883855E+00
   5.2042503E-04   6.3350184E+04   -1.6878446E+00
   5.2282841E-04   6.2859518E+04   -1.6873044E+00
   5.2524289E-04   6.2372807E+04   -1.6867649E+00
   5.2766851E-04   6.1890018E+04   -1.6862259E+00
   5.3010534E-04   6.1411119E+04   -1.6856876E+00
   5.3255342E-04   6.0936076E+04   -1.6851499E+00
   5.3501281E-04   6.0464858E+04   -1.6846128E+00
   5.3748356E-04   5.9997432E+04   -1.6840764E+00
   5.3996571E-04   5.9533767E+04   -1.6835407E+00
   5.4245933E-04   5.9073830E+04   -1.6830056E+00
   5.4496446E-04   5.8617592E+04   -1.6824712E+00
   5.4748117E-04   5.8165020E+04   -1.6819374E+00
   5.5000949E-04   5.7716084E+04   -1.6814043E+00
   5.5254949E-04   5.7270754E+04   -1.6808718E+00
   5.5510123E-04   5.6828999E+04   -1.6803401E+00
   5.5766474E-04   5.6390790E+04   -1.6798090E+00
   5.6024010E-04   5.5956096E+04   -1.6792786E+00
   5.6282734E-04   5.5524889E+04   -1.6787489E+00
   5.6542654E-04   5.5097140E+04   -1.6782199E+00
   5.6803774E-04   5.4672818E+04   -1.6776916E+00
   5.7066099E-04   5.4251897E+04   -1.6771640E+00
   5.7329637E-04   5.3834347E+04   -1.6766371E+00
   5.7594391E-04   5.3420140E+04   -1.6761109E+00
   5.7860368E-04   5.3009249E+04   -1.6755854E+00
   5.8127573E-04   5.2601645E+04   -1.6750607E+00
   5.8396012E-04   5.2197302E+04   -1.6745367E+00
   5.8665691E-04   5.1796192E+04   -1.6740133E+00
   5.8936616E-04   5.1398288E+04   -1.6734908E+00
   5.9208791E-04   5.1003564E+04   -1.6729689E+00
   5.9482223E-04   5.0611992E+04   -1.6724478E+00
   5.9756919E-04   5.0223547E+04   -1.6719275E+00
   6.0032882E-04   4.9838203E+04   -1.6714079E+00
   6.0310120E-04   4.9455934E+04   -1.6708890E+00
   6.0588639E-04   4.9076714E+04   -1.6703709E+00
   6.0868443E-04   4.8700518E+04   -1.6698536E+00
   6.1149540E-04   4.8327321E+04   -1.6693370E+00
   6.1431935E-04   4.7957097E+04   -1.6688212E+00
   6.1715634E-04   4.7589823E+04   -1.6683061E+00
   6.2000644E-04   4.7225474E+04   -1.6677918E+00
   6.2286969E-04   4.6864025E+04   -1.6672783E+00
