#        a       HoverH0(a)       dlogHdloga_of_a(a)
   1.0000000E-04   1.0909086E+06   -1.8978424E+00
   1.0046181E-04   1.0814120E+06   -1.8974674E+00
   1.0092575E-04   1.0719998E+06   -1.8970913E+00
   1.0139184E-04   1.0626715E+06   -1.8967142E+00
   1.0186008E-04   1.0534261E+06   -1.8963361E+00
   1.0233048E-04   1.0442630E+06   -1.8959570E+00
   1.0280305E-04   1.0351814E+06   -1.8955769E+00
   1.0327781E-04   1.0261805E+06   -1.8951957E+00
   1.0375475E-04   1.0172598E+06   -1.8948135E+00
   1.0423390E-04   1.0084183E+06   -1.8944303E+00
   1.0471527E-04   9.9965550E+05   -1.8940460E+00
   1.0519885E-04   9.9097057E+05   -1.8936608E+00
   1.0568467E-04   9.8236284E+05   -1.8932745E+00
   1.0617274E-04   9.7383162E+05   -1.8928872E+00
   1.0666305E-04   9.6537621E+05   -1.8924989E+00
   1.0715563E-04   9.5699593E+05   -1.8921095E+00
   1.0765049E-04   9.4869010E+05   -1.8917192E+00
   1.0814763E-04   9.4045805E+05   -1.8913278E+00
   1.0864707E-04   9.3229912E+05   -1.8909354E+00
   1.0914881E-04   9.2421264E+05   -1.8905420E+00
   1.0965287E-04   9.1619797E+05   -1.8901475E+00
   1.1015926E-04   9.0825445E+05   -1.8897521E+00
   1.1066799E-04   9.0038144E+05   -1.8893556E+00
   1.1117906E-04   8.9257832E+05   -1.8889581E+00
   1.1169250E-04   8.8484444E+05   -1.8885595E+00
   1.1220831E-04   8.7717918E+05   -1.8881600E+00
   1.1272650E-04   8.6958193E+05   -1.8877594E+00
   1.1324708E-04   8.6205207E+05   -1.8873578E+00
   1.1377007E-04   8.5458900E+05   -1.8869552E+00
   1.1429547E-04   8.4719211E+05   -1.8865516E+00
   1.1482330E-04   8.3986082E+05   -1.8861470E+00
   1.1535356E-04   8.3259451E+05   -1.8857413E+00
   1.1588628E-04   8.2539262E+05   -1.8853347E+00
   1.1642145E-04   8.1825456E+05   -1.8849270E+00
   1.1695910E-04   8.1117976E+05   -1.8845183E+00
   1.1749923E-04   8.0416764E+05   -1.8841086E+00
   1.1804185E-04   7.9721764E+05   -1.8836978E+00
   1.1858698E-04   7.9032920E+05   -1.8832861E+00
   1.1913463E-04   7.8350178E+05   -1.8828733E+00
   1.1968481E-04   7.7673481E+05   -1.8824596E+00
   1.2023752E-04   7.7002776E+05   -1.8820448E+00
   1.2079279E-04   7.6338008E+05   -1.8816290E+00
   1.2135063E-04   7.5679125E+05   -1.8812122E+00
   1.2191104E-04   7.5026073E+05   -1.8807944E+00
   1.2247403E-04   7.4378799E+05   -1.8803756E+00
   1.2303963E-04   7.3737252E+05   -1.8799557E+00
   1.2360784E-04   7.3101381E+05   -1.8795349E+00
   1.2417868E-04   7.2471133E+05   -1.8791131E+00
   1.2475215E-04   7.1846459E+05   -1.8786902E+00
   1.2532826E-04   7.1227308E+05   -1.8782664E+00
   1.2590704E-04   7.0613631E+05   -1.8778415E+00
   1.2648850E-04   7.0005378E+05   -1.8774157E+00
   1.2707263E-04   6.9402501E+05   -1.8769888E+00
   1.2765947E-04   6.8804952E+05   -1.8765610E+00
   1.2824901E-04   6.8212682E+05   -1.8761321E+00
   1.2884128E-04   6.7625644E+05   -1.8757023E+00
   1.2943628E-04   6.7043791E+05   -1.8752714E+00
   1.3003403E-04   6.6467077E+05   -1.8748396E+00
   1.3063454E-04   6.5895454E+05   -1.8744067E+00
   1.3123783E-04   6.5328878E+05   -1.8739729E+00
   1.3184390E-04   6.4767304E+05   -1.8735381E+00
   1.3245277E-04   6.4210685E+05   -1.8731023E+00
   1.3306445E-04   6.3658978E+05   -1.8726655E+00
   1.3367895E-04   6.3112138E+05   -1.8722277E+00
   1.3429630E-04   6.2570122E+05   -1.8717889E+00
   1.3491649E-04   6.2032887E+05   -1.8713491E+00
   1.3553955E-04   6.1500389E+05   -1.8709083E+00
   1.3616548E-04   6.0972586E+05   -1.8704666E+00
   1.3679431E-04   6.0449436E+05   -1.8700239E+00
   1.3742604E-04   5.9930897E+05   -1.8695802E+00
   1.3806069E-04   5.9416928E+05   -1.8691355E+00
   1.3869827E-04   5.8907487E+05   -1.8686898E+00
   1.3933879E-04   5.8402535E+05   -1.8682432E+00
   1.3998227E-04   5.7902030E+05   -1.8677956E+00
   1.4062872E-04   5.7405933E+05   -1.8673470E+00
   1.4127816E-04   5.6914204E+05   -1.8668975E+00
   1.4193060E-04   5.6426804E+05   -1.8664469E+00
   1.4258605E-04   5.5943694E+05   -1.8659955E+00
   1.4324453E-04   5.5464836E+05   -1.8655430E+00
   1.4390605E-04   5.4990192E+05   -1.8650896E+00
   1.4457062E-04   5.4519724E+05   -1.8646352E+00
   1.4523826E-04   5.4053394E+05   -1.8641798E+00
   1.4590899E-04   5.3591165E+05   -1.8637235E+00
   1.4658281E-04   5.3133001E+05   -1.8632663E+00
   1.4725974E-04   5.2678865E+05   -1.8628081E+00
   1.4793981E-04   5.2228720E+05   -1.8623489E+00
   1.4862301E-04   5.1782532E+05   -1.8618888E+00
   1.4930936E-04   5.1340265E+05   -1.8614277E+00
   1.4999889E-04   5.0901883E+05   -1.8609657E+00
   1.5069160E-04   5.0467352E+05   -1.8605027E+00
   1.5138751E-04   5.0036637E+05   -1.8600388E+00
   1.5208663E-04   4.9609705E+05   -1.8595739E+00
   1.5278899E-04   4.9186520E+05   -1.8591081E+00
   1.5349458E-04   4.8767051E+05   -1.8586414E+00
   1.5420343E-04   4.8351262E+05   -1.8581737E+00
   1.5491556E-04   4.7939122E+05   -1.8577051E+00
   1.5563098E-04   4.7530598E+05   -1.8572356E+00
   1.5634970E-04   4.7125657E+05   -1.8567651E+00
   1.5707174E-04   4.6724268E+05   -1.8562937E+00
   1.5779711E-04   4.6326398E+05   -1.8558214E+00
   1.5852584E-04   4.5932016E+05   -1.8553482E+00
   1.5925792E-04   4.5541091E+05   -1.8548740E+00
   1.5999339E-04   4.5153591E+05   -1.8543990E+00
   1.6073226E-04   4.4769487E+05   -1.8539230E+00
   1.6147454E-04   4.4388748E+05   -1.8534461E+00
   1.6222024E-04   4.4011344E+05   -1.8529683E+00
   1.6296939E-04   4.3637244E+05   -1.8524895E+00
   1.6372200E-04   4.3266420E+05   -1.8520099E+00
   1.6447809E-04   4.2898842E+05   -1.8515294E+00
   1.6523767E-04   4.2534482E+05   -1.8510480E+00
   1.6600075E-04   4.2173309E+05   -1.8505656E+00
   1.6676736E-04   4.1815296E+05   -1.8500824E+00
   1.6753751E-04   4.1460415E+05   -1.8495983E+00
   1.6831122E-04   4.1108638E+05   -1.8491133E+00
   1.6908849E-04   4.0759936E+05   -1.8486274E+00
   1.6986936E-04   4.0414283E+05   -1.8481406E+00
   1.7065384E-04   4.0071651E+05   -1.8476530E+00
   1.7144193E-04   3.9732013E+05   -1.8471644E+00
   1.7223367E-04   3.9395342E+05   -1.8466750E+00
   1.7302906E-04   3.9061613E+05   -1.8461847E+00
   1.7382813E-04   3.8730798E+05   -1.8456936E+00
   1.7463089E-04   3.8402872E+05   -1.8452016E+00
   1.7543735E-04   3.8077809E+05   -1.8447087E+00
   1.7624754E-04   3.7755583E+05   -1.8442149E+00
   1.7706147E-04   3.7436169E+05   -1.8437203E+00
   1.7787916E-04   3.7119542E+05   -1.8432249E+00
   1.7870062E-04   3.6805677E+05   -1.8427285E+00
   1.7952588E-04   3.6494550E+05   -1.8422314E+00
   1.8035495E-04   3.6186135E+05   -1.8417334E+00
   1.8118785E-04   3.5880410E+05   -1.8412345E+00
   1.8202459E-04   3.5577349E+05   -1.8407348E+00
   1.8286520E-04   3.5276929E+05   -1.8402343E+00
   1.8370969E-04   3.4979127E+05   -1.8397329E+00
   1.8455808E-04   3.4683919E+05   -1.8392308E+00
   1.8541039E-04   3.4391282E+05   -1.8387277E+00
   1.8626663E-04   3.4101193E+05   -1.8382239E+00
   1.8712683E-04   3.3813629E+05   -1.8377192E+00
   1.8799100E-04   3.3528569E+05   -1.8372138E+00
   1.8885917E-04   3.3245989E+05   -1.8367075E+00
   1.8973134E-04   3.2965868E+05   -1.8362004E+00
   1.9060754E-04   3.2688183E+05   -1.8356925E+00
   1.9148778E-04   3.2412913E+05   -1.8351837E+00
   1.9237209E-04   3.2140037E+05   -1.8346742E+00
   1.9326049E-04   3.1869533E+05   -1.8341639E+00
   1.9415299E-04   3.1601380E+05   -1.8336528E+00
   1.9504960E-04   3.1335557E+05   -1.8331409E+00
   1.9595036E-04   3.1072044E+05   -1.8326283E+00
   1.9685528E-04   3.0810819E+05   -1.8321148E+00
   1.9776438E-04   3.0551863E+05   -1.8316006E+00
   1.9867768E-04   3.0295155E+05   -1.8310856E+00
   1.9959519E-04   3.0040675E+05   -1.8305698E+00
   2.0051694E-04   2.9788404E+05   -1.8300532E+00
   2.0144295E-04   2.9538322E+05   -1.8295359E+00
   2.0237324E-04   2.9290409E+05   -1.8290179E+00
   2.0330782E-04   2.9044646E+05   -1.8284990E+00
   2.0424671E-04   2.8801014E+05   -1.8279795E+00
   2.0518995E-04   2.8559494E+05   -1.8274591E+00
   2.0613754E-04   2.8320067E+05   -1.8269381E+00
   2.0708950E-04   2.8082716E+05   -1.8264163E+00
   2.0804586E-04   2.7847420E+05   -1.8258937E+00
   2.0900664E-04   2.7614162E+05   -1.8253705E+00
   2.0997185E-04   2.7382925E+05   -1.8248465E+00
   2.1094152E-04   2.7153689E+05   -1.8243217E+00
   2.1191567E-04   2.6926437E+05   -1.8237963E+00
   2.1289432E-04   2.6701152E+05   -1.8232701E+00
   2.1387749E-04   2.6477816E+05   -1.8227432E+00
   2.1486520E-04   2.6256412E+05   -1.8222157E+00
   2.1585747E-04   2.6036923E+05   -1.8216874E+00
   2.1685432E-04   2.5819331E+05   -1.8211584E+00
   2.1785578E-04   2.5603620E+05   -1.8206287E+00
   2.1886186E-04   2.5389774E+05   -1.8200984E+00
   2.1987259E-04   2.5177775E+05   -1.8195673E+00
   2.2088798E-04   2.4967607E+05   -1.8190356E+00
   2.2190807E-04   2.4759255E+05   -1.8185032E+00
   2.2293286E-04   2.4552701E+05   -1.8179701E+00
   2.2396239E-04   2.4347930E+05   -1.8174363E+00
   2.2499667E-04   2.4144927E+05   -1.8169019E+00
   2.2603573E-04   2.3943675E+05   -1.8163668E+00
   2.2707958E-04   2.3744159E+05   -1.8158311E+00
   2.2812826E-04   2.3546364E+05   -1.8152947E+00
   2.2918178E-04   2.3350274E+05   -1.8147577E+00
   2.3024017E-04   2.3155874E+05   -1.8142200E+00
   2.3130344E-04   2.2963150E+05   -1.8136817E+00
   2.3237162E-04   2.2772087E+05   -1.8131428E+00
   2.3344474E-04   2.2582669E+05   -1.8126032E+00
   2.3452281E-04   2.2394883E+05   -1.8120630E+00
   2.3560586E-04   2.2208713E+05   -1.8115222E+00
   2.3669392E-04   2.2024146E+05   -1.8109808E+00
   2.3778699E-04   2.1841167E+05   -1.8104388E+00
   2.3888512E-04   2.1659763E+05   -1.8098961E+00
   2.3998831E-04   2.1479919E+05   -1.8093529E+00
   2.4109661E-04   2.1301622E+05   -1.8088090E+00
   2.4221001E-04   2.1124857E+05   -1.8082646E+00
   2.4332857E-04   2.0949612E+05   -1.8077196E+00
   2.4445228E-04   2.0775873E+05   -1.8071740E+00
   2.4558119E-04   2.0603627E+05   -1.8066279E+00
   2.4671531E-04   2.0432860E+05   -1.8060811E+00
   2.4785467E-04   2.0263560E+05   -1.8055338E+00
   2.4899928E-04   2.0095713E+05   -1.8049860E+00
   2.5014919E-04   1.9929307E+05   -1.8044375E+00
   2.5130440E-04   1.9764328E+05   -1.8038886E+00
   2.5246495E-04   1.9600765E+05   -1.8033391E+00
   2.5363086E-04   1.9438605E+05   -1.8027890E+00
   2.5480216E-04   1.9277835E+05   -1.8022384E+00
   2.5597886E-04   1.9118444E+05   -1.8016873E+00
   2.5716100E-04   1.8960418E+05   -1.8011356E+00
   2.5834859E-04   1.8803746E+05   -1.8005835E+00
   2.5954168E-04   1.8648417E+05   -1.8000308E+00
   2.6074027E-04   1.8494418E+05   -1.7994776E+00
   2.6194439E-04   1.8341737E+05   -1.7989239E+00
   2.6315408E-04   1.8190363E+05   -1.7983697E+00
   2.6436935E-04   1.8040285E+05   -1.7978150E+00
   2.6559024E-04   1.7891490E+05   -1.7972598E+00
   2.6681676E-04   1.7743968E+05   -1.7967041E+00
   2.6804895E-04   1.7597708E+05   -1.7961480E+00
   2.6928683E-04   1.7452698E+05   -1.7955914E+00
   2.7053042E-04   1.7308927E+05   -1.7950343E+00
   2.7177976E-04   1.7166384E+05   -1.7944767E+00
   2.7303487E-04   1.7025060E+05   -1.7939187E+00
   2.7429577E-04   1.6884942E+05   -1.7933602E+00
   2.7556250E-04   1.6746020E+05   -1.7928013E+00
   2.7683507E-04   1.6608285E+05   -1.7922420E+00
   2.7811353E-04   1.6471724E+05   -1.7916822E+00
   2.7939788E-04   1.6336329E+05   -1.7911220E+00
   2.8068817E-04   1.6202088E+05   -1.7905613E+00
   2.8198442E-04   1.6068992E+05   -1.7900003E+00
   2.8328665E-04   1.5937031E+05   -1.7894388E+00
   2.8459490E-04   1.5806194E+05   -1.7888769E+00
   2.8590919E-04   1.5676472E+05   -1.7883146E+00
   2.8722955E-04   1.5547854E+05   -1.7877519E+00
   2.8855600E-04   1.5420332E+05   -1.7871888E+00
   2.8988859E-04   1.5293896E+05   -1.7866254E+00
   2.9122732E-04   1.5168536E+05   -1.7860615E+00
   2.9257224E-04   1.5044242E+05   -1.7854973E+00
   2.9392337E-04   1.4921006E+05   -1.7849327E+00
   2.9528074E-04   1.4798817E+05   -1.7843677E+00
   2.9664438E-04   1.4677668E+05   -1.7838024E+00
   2.9801431E-04   1.4557548E+05   -1.7832368E+00
   2.9939057E-04   1.4438449E+05   -1.7826707E+00
   3.0077319E-04   1.4320362E+05   -1.7821044E+00
   3.0216219E-04   1.4203277E+05   -1.7815377E+00
   3.0355761E-04   1.4087187E+05   -1.7809707E+00
   3.0495947E-04   1.3972082E+05   -1.7804033E+00
   3.0636780E-04   1.3857953E+05   -1.7798356E+00
   3.0778264E-04   1.3744793E+05   -1.7792677E+00
   3.0920401E-04   1.3632593E+05   -1.7786994E+00
   3.1063195E-04   1.3521344E+05   -1.7781308E+00
   3.1206648E-04   1.3411038E+05   -1.7775619E+00
   3.1350764E-04   1.3301666E+05   -1.7769927E+00
   3.1495545E-04   1.3193221E+05   -1.7764233E+00
   3.1640994E-04   1.3085695E+05   -1.7758535E+00
   3.1787116E-04   1.2979079E+05   -1.7752835E+00
   3.1933912E-04   1.2873366E+05   -1.7747132E+00
   3.2081386E-04   1.2768547E+05   -1.7741427E+00
   3.2229541E-04   1.2664615E+05   -1.7735719E+00
   3.2378381E-04   1.2561562E+05   -1.7730009E+00
   3.2527908E-04   1.2459380E+05   -1.7724296E+00
   3.2678125E-04   1.2358062E+05   -1.7718581E+00
   3.2829036E-04   1.2257601E+05   -1.7712863E+00
   3.2980644E-04   1.2157988E+05   -1.7707143E+00
   3.3132952E-04   1.2059216E+05   -1.7701422E+00
   3.3285963E-04   1.1961278E+05   -1.7695697E+00
   3.3439681E-04   1.1864167E+05   -1.7689971E+00
   3.3594109E-04   1.1767875E+05   -1.7684243E+00
   3.3749250E-04   1.1672396E+05   -1.7678513E+00
   3.3905108E-04   1.1577722E+05   -1.7672781E+00
   3.4061685E-04   1.1483846E+05   -1.7667047E+00
   3.4218986E-04   1.1390762E+05   -1.7661312E+00
   3.4377013E-04   1.1298461E+05   -1.7655574E+00
   3.4535769E-04   1.1206939E+05   -1.7649835E+00
   3.4695259E-04   1.1116187E+05   -1.7644095E+00
   3.4855485E-04   1.1026199E+05   -1.7638353E+00
   3.5016452E-04   1.0936969E+05   -1.7632609E+00
   3.5178161E-04   1.0848489E+05   -1.7626864E+00
   3.5340618E-04   1.0760754E+05   -1.7621118E+00
   3.5503824E-04   1.0673756E+05   -1.7615370E+00
   3.5667785E-04   1.0587490E+05   -1.7609621E+00
   3.5832502E-04   1.0501949E+05   -1.7603871E+00
   3.5997981E-04   1.0417127E+05   -1.7598120E+00
   3.6164223E-04   1.0333017E+05   -1.7592368E+00
   3.6331233E-04   1.0249613E+05   -1.7586615E+00
   3.6499015E-04   1.0166910E+05   -1.7580861E+00
   3.6667571E-04   1.0084901E+05   -1.7575106E+00
   3.6836906E-04   1.0003579E+05   -1.7569350E+00
   3.7007022E-04   9.9229400E+04   -1.7563593E+00
   3.7177925E-04   9.8429769E+04   -1.7557836E+00
   3.7349616E-04   9.7636841E+04   -1.7552078E+00
   3.7522101E-04   9.6850557E+04   -1.7546320E+00
   3.7695382E-04   9.6070860E+04   -1.7540561E+00
   3.7869463E-04   9.5297693E+04   -1.7534802E+00
   3.8044348E-04   9.4531000E+04   -1.7529042E+00
   3.8220041E-04   9.3770723E+04   -1.7523282E+00
   3.8396545E-04   9.3016808E+04   -1.7517522E+00
   3.8573864E-04   9.2269199E+04   -1.7511761E+00
   3.8752002E-04   9.1527842E+04   -1.7506001E+00
   3.8930963E-04   9.0792683E+04   -1.7500240E+00
   3.9110750E-04   9.0063667E+04   -1.7494479E+00
   3.9291368E-04   8.9340742E+04   -1.7488719E+00
   3.9472820E-04   8.8623855E+04   -1.7482958E+00
   3.9655109E-04   8.7912954E+04   -1.7477198E+00
   3.9838241E-04   8.7207987E+04   -1.7471437E+00
   4.0022218E-04   8.6508903E+04   -1.7465678E+00
   4.0207045E-04   8.5815650E+04   -1.7459918E+00
   4.0392725E-04   8.5128179E+04   -1.7454159E+00
   4.0579263E-04   8.4446439E+04   -1.7448400E+00
   4.0766662E-04   8.3770381E+04   -1.7442642E+00
   4.0954927E-04   8.3099956E+04   -1.7436885E+00
   4.1144061E-04   8.2435115E+04   -1.7431128E+00
   4.1334068E-04   8.1775810E+04   -1.7425372E+00
   4.1524953E-04   8.1121993E+04   -1.7419617E+00
   4.1716720E-04   8.0473617E+04   -1.7413862E+00
   4.1909372E-04   7.9830635E+04   -1.7408109E+00
   4.2102914E-04   7.9193000E+04   -1.7402356E+00
   4.2297350E-04   7.8560666E+04   -1.7396605E+00
   4.2492683E-04   7.7933588E+04   -1.7390854E+00
   4.2688919E-04   7.7311720E+04   -1.7385105E+00
   4.2886061E-04   7.6695018E+04   -1.7379357E+00
   4.3084113E-04   7.6083436E+04   -1.7373610E+00
   4.3283080E-04   7.5476931E+04   -1.7367864E+00
   4.3482966E-04   7.4875459E+04   -1.7362120E+00
   4.3683775E-04   7.4278976E+04   -1.7356378E+00
   4.3885511E-04   7.3687441E+04   -1.7350636E+00
   4.4088179E-04   7.3100809E+04   -1.7344897E+00
   4.4291783E-04   7.2519039E+04   -1.7339159E+00
   4.4496327E-04   7.1942090E+04   -1.7333423E+00
   4.4701816E-04   7.1369919E+04   -1.7327688E+00
   4.4908253E-04   7.0802486E+04   -1.7321955E+00
   4.5115644E-04   7.0239750E+04   -1.7316224E+00
   4.5323993E-04   6.9681670E+04   -1.7310495E+00
   4.5533304E-04   6.9128207E+04   -1.7304769E+00
   4.5743582E-04   6.8579321E+04   -1.7299044E+00
   4.5954830E-04   6.8034973E+04   -1.7293321E+00
   4.6167054E-04   6.7495123E+04   -1.7287600E+00
   4.6380259E-04   6.6959734E+04   -1.7281882E+00
   4.6594448E-04   6.6428766E+04   -1.7276166E+00
   4.6809626E-04   6.5902182E+04   -1.7270452E+00
   4.7025797E-04   6.5379944E+04   -1.7264741E+00
   4.7242967E-04   6.4862016E+04   -1.7259032E+00
   4.7461140E-04   6.4348360E+04   -1.7253325E+00
   4.7680321E-04   6.3838939E+04   -1.7247622E+00
   4.7900514E-04   6.3333717E+04   -1.7241920E+00
   4.8121723E-04   6.2832659E+04   -1.7236222E+00
   4.8343954E-04   6.2335729E+04   -1.7230526E+00
   4.8567212E-04   6.1842891E+04   -1.7224833E+00
   4.8791500E-04   6.1354110E+04   -1.7219143E+00
   4.9016825E-04   6.0869352E+04   -1.7213456E+00
   4.9243189E-04   6.0388583E+04   -1.7207772E+00
   4.9470600E-04   5.9911767E+04   -1.7202091E+00
   4.9699060E-04   5.9438872E+04   -1.7196413E+00
   4.9928575E-04   5.8969863E+04   -1.7190739E+00
   5.0159151E-04   5.8504709E+04   -1.7185067E+00
   5.0390791E-04   5.8043375E+04   -1.7179399E+00
   5.0623501E-04   5.7585829E+04   -1.7173734E+00
   5.0857286E-04   5.7132039E+04   -1.7168072E+00
   5.1092150E-04   5.6681973E+04   -1.7162414E+00
   5.1328099E-04   5.6235599E+04   -1.7156760E+00
   5.1565137E-04   5.5792885E+04   -1.7151109E+00
   5.1803270E-04   5.5353801E+04   -1.7145461E+00
   5.2042503E-04   5.4918315E+04   -1.7139818E+00
   5.2282841E-04   5.4486397E+04   -1.7134178E+00
   5.2524289E-04   5.4058017E+04   -1.7128541E+00
   5.2766851E-04   5.3633143E+04   -1.7122909E+00
   5.3010534E-04   5.3211747E+04   -1.7117281E+00
   5.3255342E-04   5.2793799E+04   -1.7111656E+00
   5.3501281E-04   5.2379269E+04   -1.7106036E+00
   5.3748356E-04   5.1968128E+04   -1.7100419E+00
   5.3996571E-04   5.1560348E+04   -1.7094807E+00
   5.4245933E-04   5.1155900E+04   -1.7089199E+00
   5.4496446E-04   5.0754756E+04   -1.7083595E+00
   5.4748117E-04   5.0356887E+04   -1.7077995E+00
   5.5000949E-04   4.9962266E+04   -1.7072400E+00
   5.5254949E-04   4.9570865E+04   -1.7066809E+00
   5.5510123E-04   4.9182657E+04   -1.7061223E+00
   5.5766474E-04   4.8797615E+04   -1.7055641E+00
   5.6024010E-04   4.8415712E+04   -1.7050063E+00
   5.6282734E-04   4.8036920E+04   -1.7044491E+00
   5.6542654E-04   4.7661215E+04   -1.7038922E+00
   5.6803774E-04   4.7288570E+04   -1.7033359E+00
   5.7066099E-04   4.6918958E+04   -1.7027800E+00
   5.7329637E-04   4.6552354E+04   -1.7022247E+00
   5.7594391E-04   4.6188733E+04   -1.7016698E+00
   5.7860368E-04   4.5828070E+04   -1.7011154E+00
   5.8127573E-04   4.5470339E+04   -1.7005615E+00
   5.8396012E-04   4.5115515E+04   -1.7000081E+00
   5.8665691E-04   4.4763574E+04   -1.6994552E+00
   5.8936616E-04   4.4414492E+04   -1.6989028E+00
   5.9208791E-04   4.4068244E+04   -1.6983509E+00
   5.9482223E-04   4.3724806E+04   -1.6977996E+00
   5.9756919E-04   4.3384155E+04   -1.6972488E+00
   6.0032882E-04   4.3046268E+04   -1.6966985E+00
   6.0310120E-04   4.2711120E+04   -1.6961488E+00
   6.0588639E-04   4.2378688E+04   -1.6955996E+00
   6.0868443E-04   4.2048951E+04   -1.6950509E+00
   6.1149540E-04   4.1721884E+04   -1.6945029E+00
   6.1431935E-04   4.1397466E+04   -1.6939553E+00
   6.1715634E-04   4.1075675E+04   -1.6934084E+00
   6.2000644E-04   4.0756487E+04   -1.6928620E+00
   6.2286969E-04   4.0439881E+04   -1.6923161E+00
