#        a       HoverH0(a)       dlogHdloga_of_a(a)
   1.0000000E-04   1.1126691E+06   -1.9032415E+00
   1.0046181E-04   1.1029556E+06   -1.9028815E+00
   1.0092575E-04   1.0933286E+06   -1.9025204E+00
   1.0139184E-04   1.0837875E+06   -1.9021583E+00
   1.0186008E-04   1.0743314E+06   -1.9017952E+00
   1.0233048E-04   1.0649596E+06   -1.9014310E+00
   1.0280305E-04   1.0556714E+06   -1.9010659E+00
   1.0327781E-04   1.0464659E+06   -1.9006997E+00
   1.0375475E-04   1.0373424E+06   -1.9003325E+00
   1.0423390E-04   1.0283003E+06   -1.8999643E+00
   1.0471527E-04   1.0193386E+06   -1.8995951E+00
   1.0519885E-04   1.0104568E+06   -1.8992249E+00
   1.0568467E-04   1.0016541E+06   -1.8988536E+00
   1.0617274E-04   9.9292980E+05   -1.8984813E+00
   1.0666305E-04   9.8428316E+05   -1.8981080E+00
   1.0715563E-04   9.7571351E+05   -1.8977337E+00
   1.0765049E-04   9.6722013E+05   -1.8973584E+00
   1.0814763E-04   9.5880235E+05   -1.8969820E+00
   1.0864707E-04   9.5045947E+05   -1.8966046E+00
   1.0914881E-04   9.4219084E+05   -1.8962262E+00
   1.0965287E-04   9.3399576E+05   -1.8958468E+00
   1.1015926E-04   9.2587359E+05   -1.8954663E+00
   1.1066799E-04   9.1782366E+05   -1.8950849E+00
   1.1117906E-04   9.0984532E+05   -1.8947024E+00
   1.1169250E-04   9.0193792E+05   -1.8943189E+00
   1.1220831E-04   8.9410083E+05   -1.8939343E+00
   1.1272650E-04   8.8633341E+05   -1.8935488E+00
   1.1324708E-04   8.7863503E+05   -1.8931622E+00
   1.1377007E-04   8.7100507E+05   -1.8927746E+00
   1.1429547E-04   8.6344292E+05   -1.8923860E+00
   1.1482330E-04   8.5594795E+05   -1.8919963E+00
   1.1535356E-04   8.4851957E+05   -1.8916057E+00
   1.1588628E-04   8.4115717E+05   -1.8912140E+00
   1.1642145E-04   8.3386016E+05   -1.8908213E+00
   1.1695910E-04   8.2662794E+05   -1.8904276E+00
   1.1749923E-04   8.1945994E+05   -1.8900328E+00
   1.1804185E-04   8.1235558E+05   -1.8896371E+00
   1.1858698E-04   8.0531428E+05   -1.8892403E+00
   1.1913463E-04   7.9833547E+05   -1.8888425E+00
   1.1968481E-04   7.9141860E+05   -1.8884436E+00
   1.2023752E-04   7.8456309E+05   -1.8880438E+00
   1.2079279E-04   7.7776841E+05   -1.8876429E+00
   1.2135063E-04   7.7103400E+05   -1.8872410E+00
   1.2191104E-04   7.6435931E+05   -1.8868381E+00
   1.2247403E-04   7.5774382E+05   -1.8864342E+00
   1.2303963E-04   7.5118698E+05   -1.8860293E+00
   1.2360784E-04   7.4468827E+05   -1.8856233E+00
   1.2417868E-04   7.3824716E+05   -1.8852164E+00
   1.2475215E-04   7.3186314E+05   -1.8848084E+00
   1.2532826E-04   7.2553569E+05   -1.8843994E+00
   1.2590704E-04   7.1926430E+05   -1.8839894E+00
   1.2648850E-04   7.1304847E+05   -1.8835784E+00
   1.2707263E-04   7.0688769E+05   -1.8831663E+00
   1.2765947E-04   7.0078148E+05   -1.8827533E+00
   1.2824901E-04   6.9472934E+05   -1.8823392E+00
   1.2884128E-04   6.8873079E+05   -1.8819241E+00
   1.2943628E-04   6.8278533E+05   -1.8815080E+00
   1.3003403E-04   6.7689250E+05   -1.8810910E+00
   1.3063454E-04   6.7105182E+05   -1.8806728E+00
   1.3123783E-04   6.6526281E+05   -1.8802537E+00
   1.3184390E-04   6.5952503E+05   -1.8798336E+00
   1.3245277E-04   6.5383799E+05   -1.8794125E+00
   1.3306445E-04   6.4820126E+05   -1.8789904E+00
   1.3367895E-04   6.4261437E+05   -1.8785672E+00
   1.3429630E-04   6.3707687E+05   -1.8781431E+00
   1.3491649E-04   6.3158833E+05   -1.8777179E+00
   1.3553955E-04   6.2614831E+05   -1.8772918E+00
   1.3616548E-04   6.2075636E+05   -1.8768646E+00
   1.3679431E-04   6.1541206E+05   -1.8764365E+00
   1.3742604E-04   6.1011497E+05   -1.8760073E+00
   1.3806069E-04   6.0486467E+05   -1.8755772E+00
   1.3869827E-04   5.9966074E+05   -1.8751461E+00
   1.3933879E-04   5.9450277E+05   -1.8747139E+00
   1.3998227E-04   5.8939034E+05   -1.8742808E+00
   1.4062872E-04   5.8432304E+05   -1.8738467E+00
   1.4127816E-04   5.7930046E+05   -1.8734115E+00
   1.4193060E-04   5.7432221E+05   -1.8729754E+00
   1.4258605E-04   5.6938789E+05   -1.8725383E+00
   1.4324453E-04   5.6449710E+05   -1.8721002E+00
   1.4390605E-04   5.5964945E+05   -1.8716612E+00
   1.4457062E-04   5.5484455E+05   -1.8712211E+00
   1.4523826E-04   5.5008202E+05   -1.8707801E+00
   1.4590899E-04   5.4536149E+05   -1.8703380E+00
   1.4658281E-04   5.4068256E+05   -1.8698950E+00
   1.4725974E-04   5.3604487E+05   -1.8694510E+00
   1.4793981E-04   5.3144805E+05   -1.8690061E+00
   1.4862301E-04   5.2689173E+05   -1.8685601E+00
   1.4930936E-04   5.2237555E+05   -1.8681132E+00
   1.4999889E-04   5.1789914E+05   -1.8676653E+00
   1.5069160E-04   5.1346215E+05   -1.8672164E+00
   1.5138751E-04   5.0906424E+05   -1.8667666E+00
   1.5208663E-04   5.0470503E+05   -1.8663158E+00
   1.5278899E-04   5.0038420E+05   -1.8658640E+00
   1.5349458E-04   4.9610139E+05   -1.8654113E+00
   1.5420343E-04   4.9185627E+05   -1.8649576E+00
   1.5491556E-04   4.8764849E+05   -1.8645029E+00
   1.5563098E-04   4.8347773E+05   -1.8640473E+00
   1.5634970E-04   4.7934364E+05   -1.8635907E+00
   1.5707174E-04   4.7524590E+05   -1.8631331E+00
   1.5779711E-04   4.7118419E+05   -1.8626746E+00
   1.5852584E-04   4.6715818E+05   -1.8622152E+00
   1.5925792E-04   4.6316755E+05   -1.8617548E+00
   1.5999339E-04   4.5921198E+05   -1.8612934E+00
   1.6073226E-04   4.5529117E+05   -1.8608311E+00
   1.6147454E-04   4.5140479E+05   -1.8603679E+00
   1.6222024E-04   4.4755254E+05   -1.8599037E+00
   1.6296939E-04   4.4373412E+05   -1.8594385E+00
   1.6372200E-04   4.3994923E+05   -1.8589725E+00
   1.6447809E-04   4.3619755E+05   -1.8585055E+00
   1.6523767E-04   4.3247880E+05   -1.8580375E+00
   1.6600075E-04   4.2879267E+05   -1.8575686E+00
   1.6676736E-04   4.2513888E+05   -1.8570988E+00
   1.6753751E-04   4.2151714E+05   -1.8566281E+00
   1.6831122E-04   4.1792717E+05   -1.8561564E+00
   1.6908849E-04   4.1436866E+05   -1.8556838E+00
   1.6986936E-04   4.1084136E+05   -1.8552103E+00
   1.7065384E-04   4.0734496E+05   -1.8547359E+00
   1.7144193E-04   4.0387921E+05   -1.8542606E+00
   1.7223367E-04   4.0044382E+05   -1.8537843E+00
   1.7302906E-04   3.9703853E+05   -1.8533071E+00
   1.7382813E-04   3.9366306E+05   -1.8528291E+00
   1.7463089E-04   3.9031715E+05   -1.8523501E+00
   1.7543735E-04   3.8700053E+05   -1.8518702E+00
   1.7624754E-04   3.8371294E+05   -1.8513894E+00
   1.7706147E-04   3.8045412E+05   -1.8509077E+00
   1.7787916E-04   3.7722382E+05   -1.8504251E+00
   1.7870062E-04   3.7402178E+05   -1.8499416E+00
   1.7952588E-04   3.7084775E+05   -1.8494572E+00
   1.8035495E-04   3.6770147E+05   -1.8489720E+00
   1.8118785E-04   3.6458270E+05   -1.8484858E+00
   1.8202459E-04   3.6149119E+05   -1.8479988E+00
   1.8286520E-04   3.5842671E+05   -1.8475108E+00
   1.8370969E-04   3.5538900E+05   -1.8470221E+00
   1.8455808E-04   3.5237783E+05   -1.8465324E+00
   1.8541039E-04   3.4939297E+05   -1.8460418E+00
   1.8626663E-04   3.4643417E+05   -1.8455504E+00
   1.8712683E-04   3.4350121E+05   -1.8450581E+00
   1.8799100E-04   3.4059385E+05   -1.8445650E+00
   1.8885917E-04   3.3771186E+05   -1.8440710E+00
   1.8973134E-04   3.3485503E+05   -1.8435761E+00
   1.9060754E-04   3.3202312E+05   -1.8430804E+00
   1.9148778E-04   3.2921591E+05   -1.8425839E+00
   1.9237209E-04   3.2643318E+05   -1.8420864E+00
   1.9326049E-04   3.2367472E+05   -1.8415882E+00
   1.9415299E-04   3.2094031E+05   -1.8410891E+00
   1.9504960E-04   3.1822972E+05   -1.8405891E+00
   1.9595036E-04   3.1554276E+05   -1.8400884E+00
   1.9685528E-04   3.1287921E+05   -1.8395868E+00
   1.9776438E-04   3.1023886E+05   -1.8390843E+00
   1.9867768E-04   3.0762151E+05   -1.8385811E+00
   1.9959519E-04   3.0502694E+05   -1.8380770E+00
   2.0051694E-04   3.0245496E+05   -1.8375721E+00
   2.0144295E-04   2.9990536E+05   -1.8370663E+00
   2.0237324E-04   2.9737795E+05   -1.8365598E+00
   2.0330782E-04   2.9487253E+05   -1.8360525E+00
   2.0424671E-04   2.9238890E+05   -1.8355443E+00
   2.0518995E-04   2.8992687E+05   -1.8350354E+00
   2.0613754E-04   2.8748624E+05   -1.8345256E+00
   2.0708950E-04   2.8506683E+05   -1.8340151E+00
   2.0804586E-04   2.8266845E+05   -1.8335037E+00
   2.0900664E-04   2.8029091E+05   -1.8329916E+00
   2.0997185E-04   2.7793402E+05   -1.8324787E+00
   2.1094152E-04   2.7559760E+05   -1.8319650E+00
   2.1191567E-04   2.7328147E+05   -1.8314505E+00
   2.1289432E-04   2.7098545E+05   -1.8309353E+00
   2.1387749E-04   2.6870935E+05   -1.8304193E+00
   2.1486520E-04   2.6645301E+05   -1.8299025E+00
   2.1585747E-04   2.6421624E+05   -1.8293850E+00
   2.1685432E-04   2.6199887E+05   -1.8288667E+00
   2.1785578E-04   2.5980074E+05   -1.8283476E+00
   2.1886186E-04   2.5762166E+05   -1.8278278E+00
   2.1987259E-04   2.5546147E+05   -1.8273073E+00
   2.2088798E-04   2.5332001E+05   -1.8267860E+00
   2.2190807E-04   2.5119710E+05   -1.8262640E+00
   2.2293286E-04   2.4909258E+05   -1.8257412E+00
   2.2396239E-04   2.4700628E+05   -1.8252177E+00
   2.2499667E-04   2.4493805E+05   -1.8246935E+00
   2.2603573E-04   2.4288773E+05   -1.8241685E+00
   2.2707958E-04   2.4085515E+05   -1.8236429E+00
   2.2812826E-04   2.3884016E+05   -1.8231165E+00
   2.2918178E-04   2.3684260E+05   -1.8225894E+00
   2.3024017E-04   2.3486232E+05   -1.8220616E+00
   2.3130344E-04   2.3289916E+05   -1.8215331E+00
   2.3237162E-04   2.3095298E+05   -1.8210039E+00
   2.3344474E-04   2.2902362E+05   -1.8204741E+00
   2.3452281E-04   2.2711093E+05   -1.8199435E+00
   2.3560586E-04   2.2521476E+05   -1.8194122E+00
   2.3669392E-04   2.2333498E+05   -1.8188803E+00
   2.3778699E-04   2.2147142E+05   -1.8183477E+00
   2.3888512E-04   2.1962396E+05   -1.8178144E+00
   2.3998831E-04   2.1779244E+05   -1.8172804E+00
   2.4109661E-04   2.1597673E+05   -1.8167458E+00
   2.4221001E-04   2.1417668E+05   -1.8162105E+00
   2.4332857E-04   2.1239216E+05   -1.8156746E+00
   2.4445228E-04   2.1062303E+05   -1.8151380E+00
   2.4558119E-04   2.0886915E+05   -1.8146008E+00
   2.4671531E-04   2.0713039E+05   -1.8140629E+00
   2.4785467E-04   2.0540661E+05   -1.8135244E+00
   2.4899928E-04   2.0369768E+05   -1.8129853E+00
   2.5014919E-04   2.0200348E+05   -1.8124455E+00
   2.5130440E-04   2.0032386E+05   -1.8119052E+00
   2.5246495E-04   1.9865871E+05   -1.8113642E+00
   2.5363086E-04   1.9700788E+05   -1.8108225E+00
   2.5480216E-04   1.9537127E+05   -1.8102803E+00
   2.5597886E-04   1.9374873E+05   -1.8097375E+00
   2.5716100E-04   1.9214015E+05   -1.8091941E+00
   2.5834859E-04   1.9054540E+05   -1.8086501E+00
   2.5954168E-04   1.8896436E+05   -1.8081055E+00
   2.6074027E-04   1.8739691E+05   -1.8075603E+00
   2.6194439E-04   1.8584293E+05   -1.8070145E+00
   2.6315408E-04   1.8430230E+05   -1.8064682E+00
   2.6436935E-04   1.8277490E+05   -1.8059213E+00
   2.6559024E-04   1.8126062E+05   -1.8053738E+00
   2.6681676E-04   1.7975933E+05   -1.8048257E+00
   2.6804895E-04   1.7827093E+05   -1.8042772E+00
   2.6928683E-04   1.7679531E+05   -1.8037280E+00
   2.7053042E-04   1.7533234E+05   -1.8031783E+00
   2.7177976E-04   1.7388191E+05   -1.8026281E+00
   2.7303487E-04   1.7244393E+05   -1.8020774E+00
   2.7429577E-04   1.7101826E+05   -1.8015261E+00
   2.7556250E-04   1.6960482E+05   -1.8009743E+00
   2.7683507E-04   1.6820349E+05   -1.8004219E+00
   2.7811353E-04   1.6681416E+05   -1.7998691E+00
   2.7939788E-04   1.6543672E+05   -1.7993157E+00
   2.8068817E-04   1.6407108E+05   -1.7987619E+00
   2.8198442E-04   1.6271713E+05   -1.7982075E+00
   2.8328665E-04   1.6137476E+05   -1.7976527E+00
   2.8459490E-04   1.6004388E+05   -1.7970973E+00
   2.8590919E-04   1.5872438E+05   -1.7965415E+00
   2.8722955E-04   1.5741616E+05   -1.7959852E+00
   2.8855600E-04   1.5611912E+05   -1.7954284E+00
   2.8988859E-04   1.5483317E+05   -1.7948712E+00
   2.9122732E-04   1.5355820E+05   -1.7943135E+00
   2.9257224E-04   1.5229413E+05   -1.7937553E+00
   2.9392337E-04   1.5104084E+05   -1.7931967E+00
   2.9528074E-04   1.4979826E+05   -1.7926377E+00
   2.9664438E-04   1.4856629E+05   -1.7920782E+00
   2.9801431E-04   1.4734482E+05   -1.7915183E+00
   2.9939057E-04   1.4613378E+05   -1.7909579E+00
   3.0077319E-04   1.4493306E+05   -1.7903971E+00
   3.0216219E-04   1.4374258E+05   -1.7898359E+00
   3.0355761E-04   1.4256225E+05   -1.7892743E+00
   3.0495947E-04   1.4139198E+05   -1.7887123E+00
   3.0636780E-04   1.4023167E+05   -1.7881499E+00
   3.0778264E-04   1.3908125E+05   -1.7875871E+00
   3.0920401E-04   1.3794062E+05   -1.7870238E+00
   3.1063195E-04   1.3680971E+05   -1.7864603E+00
   3.1206648E-04   1.3568842E+05   -1.7858963E+00
   3.1350764E-04   1.3457666E+05   -1.7853319E+00
   3.1495545E-04   1.3347437E+05   -1.7847672E+00
   3.1640994E-04   1.3238144E+05   -1.7842021E+00
   3.1787116E-04   1.3129781E+05   -1.7836367E+00
   3.1933912E-04   1.3022339E+05   -1.7830709E+00
   3.2081386E-04   1.2915810E+05   -1.7825048E+00
   3.2229541E-04   1.2810185E+05   -1.7819383E+00
   3.2378381E-04   1.2705458E+05   -1.7813715E+00
   3.2527908E-04   1.2601620E+05   -1.7808044E+00
   3.2678125E-04   1.2498663E+05   -1.7802369E+00
   3.2829036E-04   1.2396579E+05   -1.7796691E+00
   3.2980644E-04   1.2295362E+05   -1.7791011E+00
   3.3132952E-04   1.2195002E+05   -1.7785327E+00
   3.3285963E-04   1.2095494E+05   -1.7779640E+00
   3.3439681E-04   1.1996829E+05   -1.7773950E+00
   3.3594109E-04   1.1899000E+05   -1.7768257E+00
   3.3749250E-04   1.1802000E+05   -1.7762562E+00
   3.3905108E-04   1.1705822E+05   -1.7756863E+00
   3.4061685E-04   1.1610457E+05   -1.7751162E+00
   3.4218986E-04   1.1515900E+05   -1.7745459E+00
   3.4377013E-04   1.1422143E+05   -1.7739752E+00
   3.4535769E-04   1.1329179E+05   -1.7734044E+00
   3.4695259E-04   1.1237001E+05   -1.7728332E+00
   3.4855485E-04   1.1145603E+05   -1.7722619E+00
   3.5016452E-04   1.1054977E+05   -1.7716903E+00
   3.5178161E-04   1.0965116E+05   -1.7711184E+00
   3.5340618E-04   1.0876015E+05   -1.7705464E+00
   3.5503824E-04   1.0787667E+05   -1.7699741E+00
   3.5667785E-04   1.0700064E+05   -1.7694016E+00
   3.5832502E-04   1.0613201E+05   -1.7688289E+00
   3.5997981E-04   1.0527070E+05   -1.7682560E+00
   3.6164223E-04   1.0441666E+05   -1.7676830E+00
   3.6331233E-04   1.0356983E+05   -1.7671097E+00
   3.6499015E-04   1.0273013E+05   -1.7665362E+00
   3.6667571E-04   1.0189751E+05   -1.7659626E+00
   3.6836906E-04   1.0107191E+05   -1.7653888E+00
   3.7007022E-04   1.0025326E+05   -1.7648148E+00
   3.7177925E-04   9.9441499E+04   -1.7642407E+00
   3.7349616E-04   9.8636577E+04   -1.7636665E+00
   3.7522101E-04   9.7838428E+04   -1.7630920E+00
   3.7695382E-04   9.7046995E+04   -1.7625175E+00
   3.7869463E-04   9.6262220E+04   -1.7619428E+00
   3.8044348E-04   9.5484043E+04   -1.7613680E+00
   3.8220041E-04   9.4712407E+04   -1.7607930E+00
   3.8396545E-04   9.3947257E+04   -1.7602180E+00
   3.8573864E-04   9.3188535E+04   -1.7596428E+00
   3.8752002E-04   9.2436185E+04   -1.7590676E+00
   3.8930963E-04   9.1690152E+04   -1.7584922E+00
   3.9110750E-04   9.0950381E+04   -1.7579167E+00
   3.9291368E-04   9.0216819E+04   -1.7573412E+00
   3.9472820E-04   8.9489410E+04   -1.7567656E+00
   3.9655109E-04   8.8768101E+04   -1.7561899E+00
   3.9838241E-04   8.8052840E+04   -1.7556141E+00
   4.0022218E-04   8.7343574E+04   -1.7550383E+00
   4.0207045E-04   8.6640251E+04   -1.7544624E+00
   4.0392725E-04   8.5942820E+04   -1.7538865E+00
   4.0579263E-04   8.5251229E+04   -1.7533106E+00
   4.0766662E-04   8.4565428E+04   -1.7527346E+00
   4.0954927E-04   8.3885366E+04   -1.7521585E+00
   4.1144061E-04   8.3210994E+04   -1.7515825E+00
   4.1334068E-04   8.2542263E+04   -1.7510064E+00
   4.1524953E-04   8.1879123E+04   -1.7504303E+00
   4.1716720E-04   8.1221526E+04   -1.7498542E+00
   4.1909372E-04   8.0569425E+04   -1.7492781E+00
   4.2102914E-04   7.9922771E+04   -1.7487021E+00
   4.2297350E-04   7.9281517E+04   -1.7481260E+00
   4.2492683E-04   7.8645618E+04   -1.7475499E+00
   4.2688919E-04   7.8015026E+04   -1.7469739E+00
   4.2886061E-04   7.7389696E+04   -1.7463979E+00
   4.3084113E-04   7.6769581E+04   -1.7458220E+00
   4.3283080E-04   7.6154638E+04   -1.7452461E+00
   4.3482966E-04   7.5544821E+04   -1.7446702E+00
   4.3683775E-04   7.4940086E+04   -1.7440944E+00
   4.3885511E-04   7.4340389E+04   -1.7435186E+00
   4.4088179E-04   7.3745687E+04   -1.7429429E+00
   4.4291783E-04   7.3155936E+04   -1.7423673E+00
   4.4496327E-04   7.2571094E+04   -1.7417918E+00
   4.4701816E-04   7.1991118E+04   -1.7412164E+00
   4.4908253E-04   7.1415966E+04   -1.7406410E+00
   4.5115644E-04   7.0845598E+04   -1.7400658E+00
   4.5323993E-04   7.0279971E+04   -1.7394906E+00
   4.5533304E-04   6.9719044E+04   -1.7389156E+00
   4.5743582E-04   6.9162778E+04   -1.7383407E+00
   4.5954830E-04   6.8611132E+04   -1.7377659E+00
   4.6167054E-04   6.8064066E+04   -1.7371912E+00
   4.6380259E-04   6.7521541E+04   -1.7366167E+00
   4.6594448E-04   6.6983517E+04   -1.7360423E+00
   4.6809626E-04   6.6449957E+04   -1.7354680E+00
   4.7025797E-04   6.5920820E+04   -1.7348939E+00
   4.7242967E-04   6.5396071E+04   -1.7343200E+00
   4.7461140E-04   6.4875670E+04   -1.7337462E+00
   4.7680321E-04   6.4359580E+04   -1.7331726E+00
   4.7900514E-04   6.3847764E+04   -1.7325992E+00
   4.8121723E-04   6.3340186E+04   -1.7320260E+00
   4.8343954E-04   6.2836809E+04   -1.7314529E+00
   4.8567212E-04   6.2337598E+04   -1.7308800E+00
   4.8791500E-04   6.1842515E+04   -1.7303074E+00
   4.9016825E-04   6.1351526E+04   -1.7297349E+00
   4.9243189E-04   6.0864596E+04   -1.7291627E+00
   4.9470600E-04   6.0381689E+04   -1.7285907E+00
   4.9699060E-04   5.9902772E+04   -1.7280189E+00
   4.9928575E-04   5.9427810E+04   -1.7274473E+00
   5.0159151E-04   5.8956769E+04   -1.7268760E+00
   5.0390791E-04   5.8489615E+04   -1.7263049E+00
   5.0623501E-04   5.8026316E+04   -1.7257341E+00
   5.0857286E-04   5.7566838E+04   -1.7251635E+00
   5.1092150E-04   5.7111148E+04   -1.7245931E+00
   5.1328099E-04   5.6659215E+04   -1.7240231E+00
   5.1565137E-04   5.6211005E+04   -1.7234533E+00
   5.1803270E-04   5.5766487E+04   -1.7228838E+00
   5.2042503E-04   5.5325630E+04   -1.7223145E+00
   5.2282841E-04   5.4888402E+04   -1.7217456E+00
   5.2524289E-04   5.4454772E+04   -1.7211770E+00
   5.2766851E-04   5.4024709E+04   -1.7206086E+00
   5.3010534E-04   5.3598183E+04   -1.7200406E+00
   5.3255342E-04   5.3175163E+04   -1.7194728E+00
   5.3501281E-04   5.2755620E+04   -1.7189054E+00
   5.3748356E-04   5.2339524E+04   -1.7183384E+00
   5.3996571E-04   5.1926845E+04   -1.7177716E+00
   5.4245933E-04   5.1517555E+04   -1.7172052E+00
   5.4496446E-04   5.1111624E+04   -1.7166391E+00
   5.4748117E-04   5.0709024E+04   -1.7160734E+00
   5.5000949E-04   5.0309726E+04   -1.7155080E+00
   5.5254949E-04   4.9913703E+04   -1.7149430E+00
   5.5510123E-04   4.9520925E+04   -1.7143783E+00
   5.5766474E-04   4.9131367E+04   -1.7138140E+00
   5.6024010E-04   4.8744999E+04   -1.7132501E+00
   5.6282734E-04   4.8361795E+04   -1.7126866E+00
   5.6542654E-04   4.7981729E+04   -1.7121234E+00
   5.6803774E-04   4.7604773E+04   -1.7115606E+00
   5.7066099E-04   4.7230900E+04   -1.7109983E+00
   5.7329637E-04   4.6860086E+04   -1.7104363E+00
   5.7594391E-04   4.6492303E+04   -1.7098748E+00
   5.7860368E-04   4.6127525E+04   -1.7093136E+00
   5.8127573E-04   4.5765729E+04   -1.7087529E+00
   5.8396012E-04   4.5406887E+04   -1.7081926E+00
   5.8665691E-04   4.5050975E+04   -1.7076328E+00
   5.8936616E-04   4.4697968E+04   -1.7070733E+00
   5.9208791E-04   4.4347841E+04   -1.7065143E+00
   5.9482223E-04   4.4000570E+04   -1.7059558E+00
   5.9756919E-04   4.3656131E+04   -1.7053977E+00
   6.0032882E-04   4.3314500E+04   -1.7048401E+00
   6.0310120E-04   4.2975652E+04   -1.7042829E+00
   6.0588639E-04   4.2639564E+04   -1.7037262E+00
   6.0868443E-04   4.2306214E+04   -1.7031700E+00
   6.1149540E-04   4.1975577E+04   -1.7026142E+00
   6.1431935E-04   4.1647630E+04   -1.7020589E+00
   6.1715634E-04   4.1322352E+04   -1.7015042E+00
   6.2000644E-04   4.0999719E+04   -1.7009499E+00
   6.2286969E-04   4.0679708E+04   -1.7003961E+00
