#        a       HoverH0(a)       dlogHdloga_of_a(a)
   1.0000000E-04   1.1483781E+06   -1.8611564E+00
   1.0046181E-04   1.1385739E+06   -1.8606938E+00
   1.0092575E-04   1.1288557E+06   -1.8602303E+00
   1.0139184E-04   1.1192228E+06   -1.8597659E+00
   1.0186008E-04   1.1096746E+06   -1.8593005E+00
   1.0233048E-04   1.1002101E+06   -1.8588341E+00
   1.0280305E-04   1.0908288E+06   -1.8583669E+00
   1.0327781E-04   1.0815297E+06   -1.8578987E+00
   1.0375475E-04   1.0723123E+06   -1.8574295E+00
   1.0423390E-04   1.0631757E+06   -1.8569595E+00
   1.0471527E-04   1.0541192E+06   -1.8564885E+00
   1.0519885E-04   1.0451421E+06   -1.8560166E+00
   1.0568467E-04   1.0362438E+06   -1.8555437E+00
   1.0617274E-04   1.0274234E+06   -1.8550700E+00
   1.0666305E-04   1.0186804E+06   -1.8545953E+00
   1.0715563E-04   1.0100140E+06   -1.8541197E+00
   1.0765049E-04   1.0014235E+06   -1.8536432E+00
   1.0814763E-04   9.9290820E+05   -1.8531658E+00
   1.0864707E-04   9.8446751E+05   -1.8526874E+00
   1.0914881E-04   9.7610074E+05   -1.8522082E+00
   1.0965287E-04   9.6780721E+05   -1.8517281E+00
   1.1015926E-04   9.5958627E+05   -1.8512470E+00
   1.1066799E-04   9.5143727E+05   -1.8507651E+00
   1.1117906E-04   9.4335957E+05   -1.8502823E+00
   1.1169250E-04   9.3535254E+05   -1.8497985E+00
   1.1220831E-04   9.2741553E+05   -1.8493139E+00
   1.1272650E-04   9.1954793E+05   -1.8488284E+00
   1.1324708E-04   9.1174912E+05   -1.8483420E+00
   1.1377007E-04   9.0401847E+05   -1.8478548E+00
   1.1429547E-04   8.9635539E+05   -1.8473666E+00
   1.1482330E-04   8.8875927E+05   -1.8468776E+00
   1.1535356E-04   8.8122951E+05   -1.8463877E+00
   1.1588628E-04   8.7376552E+05   -1.8458969E+00
   1.1642145E-04   8.6636670E+05   -1.8454053E+00
   1.1695910E-04   8.5903249E+05   -1.8449128E+00
   1.1749923E-04   8.5176229E+05   -1.8444194E+00
   1.1804185E-04   8.4455555E+05   -1.8439252E+00
   1.1858698E-04   8.3741169E+05   -1.8434301E+00
   1.1913463E-04   8.3033015E+05   -1.8429341E+00
   1.1968481E-04   8.2331039E+05   -1.8424373E+00
   1.2023752E-04   8.1635184E+05   -1.8419397E+00
   1.2079279E-04   8.0945396E+05   -1.8414412E+00
   1.2135063E-04   8.0261621E+05   -1.8409419E+00
   1.2191104E-04   7.9583805E+05   -1.8404417E+00
   1.2247403E-04   7.8911896E+05   -1.8399408E+00
   1.2303963E-04   7.8245840E+05   -1.8394389E+00
   1.2360784E-04   7.7585586E+05   -1.8389363E+00
   1.2417868E-04   7.6931081E+05   -1.8384328E+00
   1.2475215E-04   7.6282274E+05   -1.8379285E+00
   1.2532826E-04   7.5639116E+05   -1.8374234E+00
   1.2590704E-04   7.5001554E+05   -1.8369175E+00
   1.2648850E-04   7.4369540E+05   -1.8364107E+00
   1.2707263E-04   7.3743024E+05   -1.8359032E+00
   1.2765947E-04   7.3121958E+05   -1.8353948E+00
   1.2824901E-04   7.2506292E+05   -1.8348856E+00
   1.2884128E-04   7.1895978E+05   -1.8343757E+00
   1.2943628E-04   7.1290970E+05   -1.8338649E+00
   1.3003403E-04   7.0691219E+05   -1.8333534E+00
   1.3063454E-04   7.0096679E+05   -1.8328411E+00
   1.3123783E-04   6.9507303E+05   -1.8323280E+00
   1.3184390E-04   6.8923046E+05   -1.8318141E+00
   1.3245277E-04   6.8343862E+05   -1.8312994E+00
   1.3306445E-04   6.7769706E+05   -1.8307840E+00
   1.3367895E-04   6.7200533E+05   -1.8302678E+00
   1.3429630E-04   6.6636299E+05   -1.8297508E+00
   1.3491649E-04   6.6076960E+05   -1.8292331E+00
   1.3553955E-04   6.5522472E+05   -1.8287146E+00
   1.3616548E-04   6.4972793E+05   -1.8281954E+00
   1.3679431E-04   6.4427879E+05   -1.8276754E+00
   1.3742604E-04   6.3887689E+05   -1.8271547E+00
   1.3806069E-04   6.3352180E+05   -1.8266332E+00
   1.3869827E-04   6.2821311E+05   -1.8261110E+00
   1.3933879E-04   6.2295040E+05   -1.8255880E+00
   1.3998227E-04   6.1773326E+05   -1.8250644E+00
   1.4062872E-04   6.1256130E+05   -1.8245400E+00
   1.4127816E-04   6.0743411E+05   -1.8240149E+00
   1.4193060E-04   6.0235130E+05   -1.8234890E+00
   1.4258605E-04   5.9731246E+05   -1.8229625E+00
   1.4324453E-04   5.9231721E+05   -1.8224352E+00
   1.4390605E-04   5.8736516E+05   -1.8219073E+00
   1.4457062E-04   5.8245594E+05   -1.8213786E+00
   1.4523826E-04   5.7758915E+05   -1.8208492E+00
   1.4590899E-04   5.7276443E+05   -1.8203192E+00
   1.4658281E-04   5.6798139E+05   -1.8197885E+00
   1.4725974E-04   5.6323968E+05   -1.8192570E+00
   1.4793981E-04   5.5853892E+05   -1.8187249E+00
   1.4862301E-04   5.5387875E+05   -1.8181922E+00
   1.4930936E-04   5.4925881E+05   -1.8176587E+00
   1.4999889E-04   5.4467875E+05   -1.8171246E+00
   1.5069160E-04   5.4013821E+05   -1.8165899E+00
   1.5138751E-04   5.3563684E+05   -1.8160544E+00
   1.5208663E-04   5.3117429E+05   -1.8155183E+00
   1.5278899E-04   5.2675023E+05   -1.8149816E+00
   1.5349458E-04   5.2236430E+05   -1.8144443E+00
   1.5420343E-04   5.1801618E+05   -1.8139062E+00
   1.5491556E-04   5.1370553E+05   -1.8133676E+00
   1.5563098E-04   5.0943201E+05   -1.8128283E+00
   1.5634970E-04   5.0519530E+05   -1.8122884E+00
   1.5707174E-04   5.0099507E+05   -1.8117479E+00
   1.5779711E-04   4.9683100E+05   -1.8112068E+00
   1.5852584E-04   4.9270276E+05   -1.8106650E+00
   1.5925792E-04   4.8861005E+05   -1.8101227E+00
   1.5999339E-04   4.8455255E+05   -1.8095797E+00
   1.6073226E-04   4.8052995E+05   -1.8090362E+00
   1.6147454E-04   4.7654193E+05   -1.8084920E+00
   1.6222024E-04   4.7258820E+05   -1.8079473E+00
   1.6296939E-04   4.6866844E+05   -1.8074020E+00
   1.6372200E-04   4.6478237E+05   -1.8068561E+00
   1.6447809E-04   4.6092968E+05   -1.8063096E+00
   1.6523767E-04   4.5711008E+05   -1.8057626E+00
   1.6600075E-04   4.5332327E+05   -1.8052150E+00
   1.6676736E-04   4.4956897E+05   -1.8046669E+00
   1.6753751E-04   4.4584688E+05   -1.8041182E+00
   1.6831122E-04   4.4215673E+05   -1.8035689E+00
   1.6908849E-04   4.3849824E+05   -1.8030191E+00
   1.6986936E-04   4.3487111E+05   -1.8024688E+00
   1.7065384E-04   4.3127508E+05   -1.8019179E+00
   1.7144193E-04   4.2770988E+05   -1.8013665E+00
   1.7223367E-04   4.2417522E+05   -1.8008146E+00
   1.7302906E-04   4.2067085E+05   -1.8002622E+00
   1.7382813E-04   4.1719649E+05   -1.7997093E+00
   1.7463089E-04   4.1375188E+05   -1.7991558E+00
   1.7543735E-04   4.1033676E+05   -1.7986019E+00
   1.7624754E-04   4.0695087E+05   -1.7980474E+00
   1.7706147E-04   4.0359394E+05   -1.7974925E+00
   1.7787916E-04   4.0026573E+05   -1.7969371E+00
   1.7870062E-04   3.9696598E+05   -1.7963811E+00
   1.7952588E-04   3.9369445E+05   -1.7958248E+00
   1.8035495E-04   3.9045088E+05   -1.7952679E+00
   1.8118785E-04   3.8723502E+05   -1.7947106E+00
   1.8202459E-04   3.8404664E+05   -1.7941528E+00
   1.8286520E-04   3.8088549E+05   -1.7935946E+00
   1.8370969E-04   3.7775133E+05   -1.7930359E+00
   1.8455808E-04   3.7464393E+05   -1.7924768E+00
   1.8541039E-04   3.7156304E+05   -1.7919172E+00
   1.8626663E-04   3.6850844E+05   -1.7913572E+00
   1.8712683E-04   3.6547990E+05   -1.7907968E+00
   1.8799100E-04   3.6247718E+05   -1.7902360E+00
   1.8885917E-04   3.5950006E+05   -1.7896747E+00
   1.8973134E-04   3.5654832E+05   -1.7891130E+00
   1.9060754E-04   3.5362173E+05   -1.7885510E+00
   1.9148778E-04   3.5072006E+05   -1.7879885E+00
   1.9237209E-04   3.4784311E+05   -1.7874256E+00
   1.9326049E-04   3.4499065E+05   -1.7868623E+00
   1.9415299E-04   3.4216248E+05   -1.7862987E+00
   1.9504960E-04   3.3935837E+05   -1.7857347E+00
   1.9595036E-04   3.3657811E+05   -1.7851703E+00
   1.9685528E-04   3.3382150E+05   -1.7846055E+00
   1.9776438E-04   3.3108833E+05   -1.7840404E+00
   1.9867768E-04   3.2837840E+05   -1.7834749E+00
   1.9959519E-04   3.2569149E+05   -1.7829091E+00
   2.0051694E-04   3.2302741E+05   -1.7823430E+00
   2.0144295E-04   3.2038596E+05   -1.7817765E+00
   2.0237324E-04   3.1776693E+05   -1.7812096E+00
   2.0330782E-04   3.1517014E+05   -1.7806425E+00
   2.0424671E-04   3.1259539E+05   -1.7800750E+00
   2.0518995E-04   3.1004248E+05   -1.7795072E+00
   2.0613754E-04   3.0751123E+05   -1.7789391E+00
   2.0708950E-04   3.0500144E+05   -1.7783707E+00
   2.0804586E-04   3.0251293E+05   -1.7778020E+00
   2.0900664E-04   3.0004551E+05   -1.7772330E+00
   2.0997185E-04   2.9759899E+05   -1.7766637E+00
   2.1094152E-04   2.9517320E+05   -1.7760941E+00
   2.1191567E-04   2.9276794E+05   -1.7755243E+00
   2.1289432E-04   2.9038305E+05   -1.7749542E+00
   2.1387749E-04   2.8801835E+05   -1.7743838E+00
   2.1486520E-04   2.8567365E+05   -1.7738132E+00
   2.1585747E-04   2.8334878E+05   -1.7732423E+00
   2.1685432E-04   2.8104358E+05   -1.7726712E+00
   2.1785578E-04   2.7875786E+05   -1.7720998E+00
   2.1886186E-04   2.7649146E+05   -1.7715282E+00
   2.1987259E-04   2.7424421E+05   -1.7709564E+00
   2.2088798E-04   2.7201594E+05   -1.7703843E+00
   2.2190807E-04   2.6980649E+05   -1.7698121E+00
   2.2293286E-04   2.6761568E+05   -1.7692396E+00
   2.2396239E-04   2.6544337E+05   -1.7686669E+00
   2.2499667E-04   2.6328939E+05   -1.7680941E+00
   2.2603573E-04   2.6115357E+05   -1.7675210E+00
   2.2707958E-04   2.5903577E+05   -1.7669477E+00
   2.2812826E-04   2.5693582E+05   -1.7663743E+00
   2.2918178E-04   2.5485356E+05   -1.7658007E+00
   2.3024017E-04   2.5278885E+05   -1.7652270E+00
   2.3130344E-04   2.5074153E+05   -1.7646530E+00
   2.3237162E-04   2.4871144E+05   -1.7640789E+00
   2.3344474E-04   2.4669845E+05   -1.7635047E+00
   2.3452281E-04   2.4470239E+05   -1.7629303E+00
   2.3560586E-04   2.4272313E+05   -1.7623558E+00
   2.3669392E-04   2.4076052E+05   -1.7617812E+00
   2.3778699E-04   2.3881441E+05   -1.7612064E+00
   2.3888512E-04   2.3688465E+05   -1.7606315E+00
   2.3998831E-04   2.3497111E+05   -1.7600565E+00
   2.4109661E-04   2.3307365E+05   -1.7594814E+00
   2.4221001E-04   2.3119212E+05   -1.7589062E+00
   2.4332857E-04   2.2932639E+05   -1.7583309E+00
   2.4445228E-04   2.2747631E+05   -1.7577555E+00
   2.4558119E-04   2.2564177E+05   -1.7571800E+00
   2.4671531E-04   2.2382260E+05   -1.7566045E+00
   2.4785467E-04   2.2201870E+05   -1.7560289E+00
   2.4899928E-04   2.2022992E+05   -1.7554532E+00
   2.5014919E-04   2.1845613E+05   -1.7548774E+00
   2.5130440E-04   2.1669720E+05   -1.7543016E+00
   2.5246495E-04   2.1495300E+05   -1.7537258E+00
   2.5363086E-04   2.1322341E+05   -1.7531499E+00
   2.5480216E-04   2.1150830E+05   -1.7525740E+00
   2.5597886E-04   2.0980754E+05   -1.7519980E+00
   2.5716100E-04   2.0812100E+05   -1.7514221E+00
   2.5834859E-04   2.0644858E+05   -1.7508461E+00
   2.5954168E-04   2.0479013E+05   -1.7502701E+00
   2.6074027E-04   2.0314555E+05   -1.7496941E+00
   2.6194439E-04   2.0151471E+05   -1.7491181E+00
   2.6315408E-04   1.9989749E+05   -1.7485421E+00
   2.6436935E-04   1.9829377E+05   -1.7479662E+00
   2.6559024E-04   1.9670345E+05   -1.7473902E+00
   2.6681676E-04   1.9512639E+05   -1.7468143E+00
   2.6804895E-04   1.9356250E+05   -1.7462384E+00
   2.6928683E-04   1.9201165E+05   -1.7456626E+00
   2.7053042E-04   1.9047373E+05   -1.7450868E+00
   2.7177976E-04   1.8894862E+05   -1.7445110E+00
   2.7303487E-04   1.8743623E+05   -1.7439353E+00
   2.7429577E-04   1.8593644E+05   -1.7433597E+00
   2.7556250E-04   1.8444913E+05   -1.7427841E+00
   2.7683507E-04   1.8297421E+05   -1.7422087E+00
   2.7811353E-04   1.8151156E+05   -1.7416333E+00
   2.7939788E-04   1.8006108E+05   -1.7410579E+00
   2.8068817E-04   1.7862267E+05   -1.7404827E+00
   2.8198442E-04   1.7719622E+05   -1.7399076E+00
   2.8328665E-04   1.7578162E+05   -1.7393326E+00
   2.8459490E-04   1.7437878E+05   -1.7387577E+00
   2.8590919E-04   1.7298759E+05   -1.7381829E+00
   2.8722955E-04   1.7160796E+05   -1.7376083E+00
   2.8855600E-04   1.7023978E+05   -1.7370337E+00
   2.8988859E-04   1.6888295E+05   -1.7364594E+00
   2.9122732E-04   1.6753739E+05   -1.7358851E+00
   2.9257224E-04   1.6620298E+05   -1.7353110E+00
   2.9392337E-04   1.6487964E+05   -1.7347371E+00
   2.9528074E-04   1.6356726E+05   -1.7341633E+00
   2.9664438E-04   1.6226576E+05   -1.7335897E+00
   2.9801431E-04   1.6097504E+05   -1.7330163E+00
   2.9939057E-04   1.5969502E+05   -1.7324430E+00
   3.0077319E-04   1.5842558E+05   -1.7318699E+00
   3.0216219E-04   1.5716666E+05   -1.7312970E+00
   3.0355761E-04   1.5591815E+05   -1.7307243E+00
   3.0495947E-04   1.5467996E+05   -1.7301519E+00
   3.0636780E-04   1.5345201E+05   -1.7295796E+00
   3.0778264E-04   1.5223422E+05   -1.7290075E+00
   3.0920401E-04   1.5102648E+05   -1.7284357E+00
   3.1063195E-04   1.4982872E+05   -1.7278641E+00
   3.1206648E-04   1.4864085E+05   -1.7272927E+00
   3.1350764E-04   1.4746279E+05   -1.7267215E+00
   3.1495545E-04   1.4629445E+05   -1.7261507E+00
   3.1640994E-04   1.4513575E+05   -1.7255800E+00
   3.1787116E-04   1.4398660E+05   -1.7250096E+00
   3.1933912E-04   1.4284693E+05   -1.7244395E+00
   3.2081386E-04   1.4171665E+05   -1.7238696E+00
   3.2229541E-04   1.4059568E+05   -1.7233000E+00
   3.2378381E-04   1.3948394E+05   -1.7227307E+00
   3.2527908E-04   1.3838136E+05   -1.7221617E+00
   3.2678125E-04   1.3728786E+05   -1.7215930E+00
   3.2829036E-04   1.3620335E+05   -1.7210245E+00
   3.2980644E-04   1.3512776E+05   -1.7204564E+00
   3.3132952E-04   1.3406102E+05   -1.7198886E+00
   3.3285963E-04   1.3300305E+05   -1.7193211E+00
   3.3439681E-04   1.3195377E+05   -1.7187539E+00
   3.3594109E-04   1.3091311E+05   -1.7181870E+00
   3.3749250E-04   1.2988099E+05   -1.7176205E+00
   3.3905108E-04   1.2885736E+05   -1.7170543E+00
   3.4061685E-04   1.2784212E+05   -1.7164885E+00
   3.4218986E-04   1.2683521E+05   -1.7159230E+00
   3.4377013E-04   1.2583656E+05   -1.7153578E+00
   3.4535769E-04   1.2484609E+05   -1.7147930E+00
   3.4695259E-04   1.2386375E+05   -1.7142286E+00
   3.4855485E-04   1.2288945E+05   -1.7136646E+00
   3.5016452E-04   1.2192314E+05   -1.7131009E+00
   3.5178161E-04   1.2096474E+05   -1.7125376E+00
   3.5340618E-04   1.2001418E+05   -1.7119747E+00
   3.5503824E-04   1.1907140E+05   -1.7114122E+00
   3.5667785E-04   1.1813633E+05   -1.7108501E+00
   3.5832502E-04   1.1720891E+05   -1.7102884E+00
   3.5997981E-04   1.1628907E+05   -1.7097271E+00
   3.6164223E-04   1.1537675E+05   -1.7091662E+00
   3.6331233E-04   1.1447188E+05   -1.7086058E+00
   3.6499015E-04   1.1357440E+05   -1.7080457E+00
   3.6667571E-04   1.1268425E+05   -1.7074861E+00
   3.6836906E-04   1.1180136E+05   -1.7069270E+00
   3.7007022E-04   1.1092568E+05   -1.7063683E+00
   3.7177925E-04   1.1005714E+05   -1.7058100E+00
   3.7349616E-04   1.0919568E+05   -1.7052522E+00
   3.7522101E-04   1.0834124E+05   -1.7046948E+00
   3.7695382E-04   1.0749376E+05   -1.7041379E+00
   3.7869463E-04   1.0665319E+05   -1.7035815E+00
   3.8044348E-04   1.0581946E+05   -1.7030256E+00
   3.8220041E-04   1.0499251E+05   -1.7024701E+00
   3.8396545E-04   1.0417230E+05   -1.7019151E+00
   3.8573864E-04   1.0335875E+05   -1.7013606E+00
   3.8752002E-04   1.0255182E+05   -1.7008066E+00
   3.8930963E-04   1.0175145E+05   -1.7002532E+00
   3.9110750E-04   1.0095759E+05   -1.6997002E+00
   3.9291368E-04   1.0017017E+05   -1.6991477E+00
   3.9472820E-04   9.9389151E+04   -1.6985957E+00
   3.9655109E-04   9.8614469E+04   -1.6980443E+00
   3.9838241E-04   9.7846074E+04   -1.6974934E+00
   4.0022218E-04   9.7083913E+04   -1.6969430E+00
   4.0207045E-04   9.6327932E+04   -1.6963932E+00
   4.0392725E-04   9.5578080E+04   -1.6958439E+00
   4.0579263E-04   9.4834306E+04   -1.6952951E+00
   4.0766662E-04   9.4096557E+04   -1.6947470E+00
   4.0954927E-04   9.3364783E+04   -1.6941993E+00
   4.1144061E-04   9.2638933E+04   -1.6936522E+00
   4.1334068E-04   9.1918958E+04   -1.6931057E+00
   4.1524953E-04   9.1204808E+04   -1.6925598E+00
   4.1716720E-04   9.0496434E+04   -1.6920144E+00
   4.1909372E-04   8.9793787E+04   -1.6914697E+00
   4.2102914E-04   8.9096820E+04   -1.6909255E+00
   4.2297350E-04   8.8405483E+04   -1.6903819E+00
   4.2492683E-04   8.7719731E+04   -1.6898389E+00
   4.2688919E-04   8.7039515E+04   -1.6892965E+00
   4.2886061E-04   8.6364791E+04   -1.6887547E+00
   4.3084113E-04   8.5695510E+04   -1.6882135E+00
   4.3283080E-04   8.5031628E+04   -1.6876729E+00
   4.3482966E-04   8.4373099E+04   -1.6871329E+00
   4.3683775E-04   8.3719878E+04   -1.6865936E+00
   4.3885511E-04   8.3071920E+04   -1.6860549E+00
   4.4088179E-04   8.2429182E+04   -1.6855169E+00
   4.4291783E-04   8.1791620E+04   -1.6849794E+00
   4.4496327E-04   8.1159190E+04   -1.6844426E+00
   4.4701816E-04   8.0531848E+04   -1.6839065E+00
   4.4908253E-04   7.9909554E+04   -1.6833710E+00
   4.5115644E-04   7.9292263E+04   -1.6828362E+00
   4.5323993E-04   7.8679935E+04   -1.6823020E+00
   4.5533304E-04   7.8072528E+04   -1.6817685E+00
   4.5743582E-04   7.7470000E+04   -1.6812357E+00
   4.5954830E-04   7.6872310E+04   -1.6807035E+00
   4.6167054E-04   7.6279419E+04   -1.6801721E+00
   4.6380259E-04   7.5691286E+04   -1.6796413E+00
   4.6594448E-04   7.5107871E+04   -1.6791111E+00
   4.6809626E-04   7.4529135E+04   -1.6785817E+00
   4.7025797E-04   7.3955038E+04   -1.6780530E+00
   4.7242967E-04   7.3385542E+04   -1.6775250E+00
   4.7461140E-04   7.2820609E+04   -1.6769977E+00
   4.7680321E-04   7.2260200E+04   -1.6764710E+00
   4.7900514E-04   7.1704278E+04   -1.6759451E+00
   4.8121723E-04   7.1152805E+04   -1.6754200E+00
   4.8343954E-04   7.0605744E+04   -1.6748955E+00
   4.8567212E-04   7.0063059E+04   -1.6743718E+00
   4.8791500E-04   6.9524712E+04   -1.6738487E+00
   4.9016825E-04   6.8990668E+04   -1.6733265E+00
   4.9243189E-04   6.8460890E+04   -1.6728049E+00
   4.9470600E-04   6.7935344E+04   -1.6722841E+00
   4.9699060E-04   6.7413994E+04   -1.6717641E+00
   4.9928575E-04   6.6896805E+04   -1.6712448E+00
   5.0159151E-04   6.6383743E+04   -1.6707262E+00
   5.0390791E-04   6.5874773E+04   -1.6702084E+00
   5.0623501E-04   6.5369861E+04   -1.6696914E+00
   5.0857286E-04   6.4868973E+04   -1.6691751E+00
   5.1092150E-04   6.4372076E+04   -1.6686596E+00
   5.1328099E-04   6.3879138E+04   -1.6681449E+00
   5.1565137E-04   6.3390124E+04   -1.6676309E+00
   5.1803270E-04   6.2905003E+04   -1.6671177E+00
   5.2042503E-04   6.2423741E+04   -1.6666053E+00
   5.2282841E-04   6.1946308E+04   -1.6660937E+00
   5.2524289E-04   6.1472671E+04   -1.6655829E+00
   5.2766851E-04   6.1002799E+04   -1.6650728E+00
   5.3010534E-04   6.0536661E+04   -1.6645636E+00
   5.3255342E-04   6.0074225E+04   -1.6640552E+00
   5.3501281E-04   5.9615461E+04   -1.6635475E+00
   5.3748356E-04   5.9160340E+04   -1.6630407E+00
   5.3996571E-04   5.8708829E+04   -1.6625347E+00
   5.4245933E-04   5.8260900E+04   -1.6620295E+00
   5.4496446E-04   5.7816524E+04   -1.6615251E+00
   5.4748117E-04   5.7375670E+04   -1.6610216E+00
   5.5000949E-04   5.6938309E+04   -1.6605188E+00
   5.5254949E-04   5.6504413E+04   -1.6600169E+00
   5.5510123E-04   5.6073953E+04   -1.6595158E+00
   5.5766474E-04   5.5646901E+04   -1.6590156E+00
   5.6024010E-04   5.5223229E+04   -1.6585162E+00
   5.6282734E-04   5.4802908E+04   -1.6580176E+00
   5.6542654E-04   5.4385911E+04   -1.6575199E+00
   5.6803774E-04   5.3972210E+04   -1.6570230E+00
   5.7066099E-04   5.3561779E+04   -1.6565270E+00
   5.7329637E-04   5.3154591E+04   -1.6560318E+00
   5.7594391E-04   5.2750618E+04   -1.6555375E+00
   5.7860368E-04   5.2349835E+04   -1.6550440E+00
   5.8127573E-04   5.1952215E+04   -1.6545514E+00
   5.8396012E-04   5.1557731E+04   -1.6540597E+00
   5.8665691E-04   5.1166359E+04   -1.6535688E+00
   5.8936616E-04   5.0778073E+04   -1.6530788E+00
   5.9208791E-04   5.0392847E+04   -1.6525897E+00
   5.9482223E-04   5.0010656E+04   -1.6521014E+00
   5.9756919E-04   4.9631475E+04   -1.6516141E+00
   6.0032882E-04   4.9255280E+04   -1.6511276E+00
   6.0310120E-04   4.8882045E+04   -1.6506420E+00
   6.0588639E-04   4.8511747E+04   -1.6501573E+00
   6.0868443E-04   4.8144362E+04   -1.6496735E+00
   6.1149540E-04   4.7779865E+04   -1.6491905E+00
   6.1431935E-04   4.7418234E+04   -1.6487085E+00
   6.1715634E-04   4.7059444E+04   -1.6482273E+00
   6.2000644E-04   4.6703472E+04   -1.6477471E+00
   6.2286969E-04   4.6350295E+04   -1.6472678E+00
