#        a       HoverH0(a)       dlogHdloga_of_a(a)
   1.0000000E-04   1.0983897E+06   -1.8842873E+00
   1.0046181E-04   1.0888960E+06   -1.8838770E+00
   1.0092575E-04   1.0794864E+06   -1.8834657E+00
   1.0139184E-04   1.0701602E+06   -1.8830534E+00
   1.0186008E-04   1.0609165E+06   -1.8826401E+00
   1.0233048E-04   1.0517547E+06   -1.8822257E+00
   1.0280305E-04   1.0426740E+06   -1.8818104E+00
   1.0327781E-04   1.0336737E+06   -1.8813941E+00
   1.0375475E-04   1.0247530E+06   -1.8809767E+00
   1.0423390E-04   1.0159113E+06   -1.8805583E+00
   1.0471527E-04   1.0071478E+06   -1.8801389E+00
   1.0519885E-04   9.9846183E+05   -1.8797186E+00
   1.0568467E-04   9.8985269E+05   -1.8792972E+00
   1.0617274E-04   9.8131970E+05   -1.8788748E+00
   1.0666305E-04   9.7286215E+05   -1.8784514E+00
   1.0715563E-04   9.6447939E+05   -1.8780269E+00
   1.0765049E-04   9.5617073E+05   -1.8776015E+00
   1.0814763E-04   9.4793551E+05   -1.8771751E+00
   1.0864707E-04   9.3977306E+05   -1.8767477E+00
   1.0914881E-04   9.3168273E+05   -1.8763193E+00
   1.0965287E-04   9.2366388E+05   -1.8758899E+00
   1.1015926E-04   9.1571586E+05   -1.8754595E+00
   1.1066799E-04   9.0783803E+05   -1.8750281E+00
   1.1117906E-04   9.0002976E+05   -1.8745957E+00
   1.1169250E-04   8.9229043E+05   -1.8741623E+00
   1.1220831E-04   8.8461942E+05   -1.8737279E+00
   1.1272650E-04   8.7701612E+05   -1.8732925E+00
   1.1324708E-04   8.6947991E+05   -1.8728561E+00
   1.1377007E-04   8.6201020E+05   -1.8724188E+00
   1.1429547E-04   8.5460638E+05   -1.8719804E+00
   1.1482330E-04   8.4726787E+05   -1.8715411E+00
   1.1535356E-04   8.3999408E+05   -1.8711008E+00
   1.1588628E-04   8.3278442E+05   -1.8706595E+00
   1.1642145E-04   8.2563833E+05   -1.8702172E+00
   1.1695910E-04   8.1855522E+05   -1.8697739E+00
   1.1749923E-04   8.1153454E+05   -1.8693297E+00
   1.1804185E-04   8.0457572E+05   -1.8688845E+00
   1.1858698E-04   7.9767821E+05   -1.8684383E+00
   1.1913463E-04   7.9084146E+05   -1.8679911E+00
   1.1968481E-04   7.8406493E+05   -1.8675429E+00
   1.2023752E-04   7.7734807E+05   -1.8670938E+00
   1.2079279E-04   7.7069034E+05   -1.8666437E+00
   1.2135063E-04   7.6409123E+05   -1.8661927E+00
   1.2191104E-04   7.5755020E+05   -1.8657406E+00
   1.2247403E-04   7.5106672E+05   -1.8652876E+00
   1.2303963E-04   7.4464029E+05   -1.8648337E+00
   1.2360784E-04   7.3827040E+05   -1.8643788E+00
   1.2417868E-04   7.3195653E+05   -1.8639229E+00
   1.2475215E-04   7.2569818E+05   -1.8634660E+00
   1.2532826E-04   7.1949486E+05   -1.8630082E+00
   1.2590704E-04   7.1334607E+05   -1.8625495E+00
   1.2648850E-04   7.0725133E+05   -1.8620898E+00
   1.2707263E-04   7.0121014E+05   -1.8616291E+00
   1.2765947E-04   6.9522203E+05   -1.8611675E+00
   1.2824901E-04   6.8928653E+05   -1.8607050E+00
   1.2884128E-04   6.8340317E+05   -1.8602415E+00
   1.2943628E-04   6.7757147E+05   -1.8597771E+00
   1.3003403E-04   6.7179097E+05   -1.8593117E+00
   1.3063454E-04   6.6606121E+05   -1.8588454E+00
   1.3123783E-04   6.6038174E+05   -1.8583781E+00
   1.3184390E-04   6.5475212E+05   -1.8579099E+00
   1.3245277E-04   6.4917188E+05   -1.8574408E+00
   1.3306445E-04   6.4364060E+05   -1.8569708E+00
   1.3367895E-04   6.3815783E+05   -1.8564998E+00
   1.3429630E-04   6.3272314E+05   -1.8560279E+00
   1.3491649E-04   6.2733610E+05   -1.8555551E+00
   1.3553955E-04   6.2199628E+05   -1.8550813E+00
   1.3616548E-04   6.1670326E+05   -1.8546067E+00
   1.3679431E-04   6.1145662E+05   -1.8541311E+00
   1.3742604E-04   6.0625594E+05   -1.8536546E+00
   1.3806069E-04   6.0110082E+05   -1.8531772E+00
   1.3869827E-04   5.9599085E+05   -1.8526989E+00
   1.3933879E-04   5.9092562E+05   -1.8522196E+00
   1.3998227E-04   5.8590474E+05   -1.8517395E+00
   1.4062872E-04   5.8092780E+05   -1.8512585E+00
   1.4127816E-04   5.7599441E+05   -1.8507766E+00
   1.4193060E-04   5.7110419E+05   -1.8502937E+00
   1.4258605E-04   5.6625675E+05   -1.8498100E+00
   1.4324453E-04   5.6145171E+05   -1.8493254E+00
   1.4390605E-04   5.5668868E+05   -1.8488399E+00
   1.4457062E-04   5.5196730E+05   -1.8483536E+00
   1.4523826E-04   5.4728719E+05   -1.8478663E+00
   1.4590899E-04   5.4264798E+05   -1.8473781E+00
   1.4658281E-04   5.3804930E+05   -1.8468891E+00
   1.4725974E-04   5.3349080E+05   -1.8463992E+00
   1.4793981E-04   5.2897212E+05   -1.8459085E+00
   1.4862301E-04   5.2449290E+05   -1.8454168E+00
   1.4930936E-04   5.2005278E+05   -1.8449243E+00
   1.4999889E-04   5.1565142E+05   -1.8444310E+00
   1.5069160E-04   5.1128848E+05   -1.8439368E+00
   1.5138751E-04   5.0696361E+05   -1.8434417E+00
   1.5208663E-04   5.0267646E+05   -1.8429458E+00
   1.5278899E-04   4.9842672E+05   -1.8424490E+00
   1.5349458E-04   4.9421403E+05   -1.8419514E+00
   1.5420343E-04   4.9003807E+05   -1.8414529E+00
   1.5491556E-04   4.8589852E+05   -1.8409536E+00
   1.5563098E-04   4.8179504E+05   -1.8404534E+00
   1.5634970E-04   4.7772732E+05   -1.8399524E+00
   1.5707174E-04   4.7369504E+05   -1.8394506E+00
   1.5779711E-04   4.6969788E+05   -1.8389480E+00
   1.5852584E-04   4.6573553E+05   -1.8384445E+00
   1.5925792E-04   4.6180767E+05   -1.8379402E+00
   1.5999339E-04   4.5791401E+05   -1.8374351E+00
   1.6073226E-04   4.5405423E+05   -1.8369292E+00
   1.6147454E-04   4.5022804E+05   -1.8364224E+00
   1.6222024E-04   4.4643513E+05   -1.8359149E+00
   1.6296939E-04   4.4267521E+05   -1.8354065E+00
   1.6372200E-04   4.3894799E+05   -1.8348974E+00
   1.6447809E-04   4.3525317E+05   -1.8343874E+00
   1.6523767E-04   4.3159047E+05   -1.8338767E+00
   1.6600075E-04   4.2795959E+05   -1.8333652E+00
   1.6676736E-04   4.2436027E+05   -1.8328529E+00
   1.6753751E-04   4.2079221E+05   -1.8323397E+00
   1.6831122E-04   4.1725514E+05   -1.8318259E+00
   1.6908849E-04   4.1374877E+05   -1.8313112E+00
   1.6986936E-04   4.1027285E+05   -1.8307958E+00
   1.7065384E-04   4.0682710E+05   -1.8302796E+00
   1.7144193E-04   4.0341125E+05   -1.8297626E+00
   1.7223367E-04   4.0002503E+05   -1.8292449E+00
   1.7302906E-04   3.9666818E+05   -1.8287264E+00
   1.7382813E-04   3.9334044E+05   -1.8282072E+00
   1.7463089E-04   3.9004155E+05   -1.8276872E+00
   1.7543735E-04   3.8677126E+05   -1.8271665E+00
   1.7624754E-04   3.8352931E+05   -1.8266450E+00
   1.7706147E-04   3.8031544E+05   -1.8261228E+00
   1.7787916E-04   3.7712942E+05   -1.8255999E+00
   1.7870062E-04   3.7397098E+05   -1.8250762E+00
   1.7952588E-04   3.7083990E+05   -1.8245518E+00
   1.8035495E-04   3.6773592E+05   -1.8240267E+00
   1.8118785E-04   3.6465880E+05   -1.8235009E+00
   1.8202459E-04   3.6160831E+05   -1.8229743E+00
   1.8286520E-04   3.5858420E+05   -1.8224471E+00
   1.8370969E-04   3.5558625E+05   -1.8219191E+00
   1.8455808E-04   3.5261423E+05   -1.8213904E+00
   1.8541039E-04   3.4966789E+05   -1.8208611E+00
   1.8626663E-04   3.4674703E+05   -1.8203310E+00
   1.8712683E-04   3.4385140E+05   -1.8198003E+00
   1.8799100E-04   3.4098078E+05   -1.8192689E+00
   1.8885917E-04   3.3813496E+05   -1.8187368E+00
   1.8973134E-04   3.3531371E+05   -1.8182040E+00
   1.9060754E-04   3.3251682E+05   -1.8176706E+00
   1.9148778E-04   3.2974407E+05   -1.8171364E+00
   1.9237209E-04   3.2699525E+05   -1.8166017E+00
   1.9326049E-04   3.2427014E+05   -1.8160662E+00
   1.9415299E-04   3.2156853E+05   -1.8155302E+00
   1.9504960E-04   3.1889022E+05   -1.8149934E+00
   1.9595036E-04   3.1623500E+05   -1.8144561E+00
   1.9685528E-04   3.1360267E+05   -1.8139181E+00
   1.9776438E-04   3.1099302E+05   -1.8133794E+00
   1.9867768E-04   3.0840585E+05   -1.8128401E+00
   1.9959519E-04   3.0584096E+05   -1.8123002E+00
   2.0051694E-04   3.0329816E+05   -1.8117597E+00
   2.0144295E-04   3.0077725E+05   -1.8112186E+00
   2.0237324E-04   2.9827804E+05   -1.8106768E+00
   2.0330782E-04   2.9580033E+05   -1.8101345E+00
   2.0424671E-04   2.9334394E+05   -1.8095915E+00
   2.0518995E-04   2.9090867E+05   -1.8090479E+00
   2.0613754E-04   2.8849435E+05   -1.8085038E+00
   2.0708950E-04   2.8610078E+05   -1.8079591E+00
   2.0804586E-04   2.8372778E+05   -1.8074137E+00
   2.0900664E-04   2.8137517E+05   -1.8068679E+00
   2.0997185E-04   2.7904277E+05   -1.8063214E+00
   2.1094152E-04   2.7673040E+05   -1.8057744E+00
   2.1191567E-04   2.7443788E+05   -1.8052268E+00
   2.1289432E-04   2.7216505E+05   -1.8046786E+00
   2.1387749E-04   2.6991171E+05   -1.8041299E+00
   2.1486520E-04   2.6767772E+05   -1.8035806E+00
   2.1585747E-04   2.6546288E+05   -1.8030308E+00
   2.1685432E-04   2.6326704E+05   -1.8024805E+00
   2.1785578E-04   2.6109002E+05   -1.8019296E+00
   2.1886186E-04   2.5893166E+05   -1.8013782E+00
   2.1987259E-04   2.5679180E+05   -1.8008263E+00
   2.2088798E-04   2.5467027E+05   -1.8002739E+00
   2.2190807E-04   2.5256691E+05   -1.7997209E+00
   2.2293286E-04   2.5048157E+05   -1.7991675E+00
   2.2396239E-04   2.4841407E+05   -1.7986135E+00
   2.2499667E-04   2.4636427E+05   -1.7980590E+00
   2.2603573E-04   2.4433200E+05   -1.7975041E+00
   2.2707958E-04   2.4231712E+05   -1.7969486E+00
   2.2812826E-04   2.4031948E+05   -1.7963927E+00
   2.2918178E-04   2.3833891E+05   -1.7958363E+00
   2.3024017E-04   2.3637526E+05   -1.7952795E+00
   2.3130344E-04   2.3442840E+05   -1.7947221E+00
   2.3237162E-04   2.3249817E+05   -1.7941643E+00
   2.3344474E-04   2.3058443E+05   -1.7936061E+00
   2.3452281E-04   2.2868703E+05   -1.7930474E+00
   2.3560586E-04   2.2680583E+05   -1.7924883E+00
   2.3669392E-04   2.2494068E+05   -1.7919287E+00
   2.3778699E-04   2.2309144E+05   -1.7913687E+00
   2.3888512E-04   2.2125798E+05   -1.7908083E+00
   2.3998831E-04   2.1944015E+05   -1.7902474E+00
   2.4109661E-04   2.1763782E+05   -1.7896861E+00
   2.4221001E-04   2.1585085E+05   -1.7891244E+00
   2.4332857E-04   2.1407911E+05   -1.7885623E+00
   2.4445228E-04   2.1232246E+05   -1.7879999E+00
   2.4558119E-04   2.1058077E+05   -1.7874370E+00
   2.4671531E-04   2.0885391E+05   -1.7868737E+00
   2.4785467E-04   2.0714175E+05   -1.7863100E+00
   2.4899928E-04   2.0544416E+05   -1.7857460E+00
   2.5014919E-04   2.0376101E+05   -1.7851816E+00
   2.5130440E-04   2.0209218E+05   -1.7846168E+00
   2.5246495E-04   2.0043753E+05   -1.7840517E+00
   2.5363086E-04   1.9879695E+05   -1.7834862E+00
   2.5480216E-04   1.9717032E+05   -1.7829203E+00
   2.5597886E-04   1.9555750E+05   -1.7823542E+00
   2.5716100E-04   1.9395838E+05   -1.7817876E+00
   2.5834859E-04   1.9237284E+05   -1.7812208E+00
   2.5954168E-04   1.9080076E+05   -1.7806536E+00
   2.6074027E-04   1.8924202E+05   -1.7800861E+00
   2.6194439E-04   1.8769651E+05   -1.7795183E+00
   2.6315408E-04   1.8616411E+05   -1.7789502E+00
   2.6436935E-04   1.8464470E+05   -1.7783817E+00
   2.6559024E-04   1.8313817E+05   -1.7778130E+00
   2.6681676E-04   1.8164441E+05   -1.7772440E+00
   2.6804895E-04   1.8016330E+05   -1.7766747E+00
   2.6928683E-04   1.7869474E+05   -1.7761051E+00
   2.7053042E-04   1.7723862E+05   -1.7755352E+00
   2.7177976E-04   1.7579482E+05   -1.7749651E+00
   2.7303487E-04   1.7436325E+05   -1.7743947E+00
   2.7429577E-04   1.7294378E+05   -1.7738240E+00
   2.7556250E-04   1.7153632E+05   -1.7732531E+00
   2.7683507E-04   1.7014077E+05   -1.7726820E+00
   2.7811353E-04   1.6875701E+05   -1.7721106E+00
   2.7939788E-04   1.6738495E+05   -1.7715390E+00
   2.8068817E-04   1.6602448E+05   -1.7709671E+00
   2.8198442E-04   1.6467550E+05   -1.7703951E+00
   2.8328665E-04   1.6333791E+05   -1.7698228E+00
   2.8459490E-04   1.6201162E+05   -1.7692503E+00
   2.8590919E-04   1.6069652E+05   -1.7686776E+00
   2.8722955E-04   1.5939251E+05   -1.7681047E+00
   2.8855600E-04   1.5809950E+05   -1.7675316E+00
   2.8988859E-04   1.5681740E+05   -1.7669583E+00
   2.9122732E-04   1.5554610E+05   -1.7663849E+00
   2.9257224E-04   1.5428552E+05   -1.7658112E+00
   2.9392337E-04   1.5303556E+05   -1.7652374E+00
   2.9528074E-04   1.5179613E+05   -1.7646635E+00
   2.9664438E-04   1.5056713E+05   -1.7640894E+00
   2.9801431E-04   1.4934848E+05   -1.7635151E+00
   2.9939057E-04   1.4814008E+05   -1.7629407E+00
   3.0077319E-04   1.4694185E+05   -1.7623662E+00
   3.0216219E-04   1.4575370E+05   -1.7617915E+00
   3.0355761E-04   1.4457554E+05   -1.7612167E+00
   3.0495947E-04   1.4340728E+05   -1.7606418E+00
   3.0636780E-04   1.4224884E+05   -1.7600667E+00
   3.0778264E-04   1.4110013E+05   -1.7594916E+00
   3.0920401E-04   1.3996107E+05   -1.7589164E+00
   3.1063195E-04   1.3883157E+05   -1.7583410E+00
   3.1206648E-04   1.3771155E+05   -1.7577656E+00
   3.1350764E-04   1.3660093E+05   -1.7571901E+00
   3.1495545E-04   1.3549962E+05   -1.7566145E+00
   3.1640994E-04   1.3440755E+05   -1.7560388E+00
   3.1787116E-04   1.3332464E+05   -1.7554631E+00
   3.1933912E-04   1.3225080E+05   -1.7548873E+00
   3.2081386E-04   1.3118596E+05   -1.7543115E+00
   3.2229541E-04   1.3013004E+05   -1.7537356E+00
   3.2378381E-04   1.2908296E+05   -1.7531597E+00
   3.2527908E-04   1.2804464E+05   -1.7525838E+00
   3.2678125E-04   1.2701502E+05   -1.7520078E+00
   3.2829036E-04   1.2599400E+05   -1.7514318E+00
   3.2980644E-04   1.2498153E+05   -1.7508558E+00
   3.3132952E-04   1.2397752E+05   -1.7502797E+00
   3.3285963E-04   1.2298190E+05   -1.7497037E+00
   3.3439681E-04   1.2199461E+05   -1.7491277E+00
   3.3594109E-04   1.2101556E+05   -1.7485516E+00
   3.3749250E-04   1.2004468E+05   -1.7479756E+00
   3.3905108E-04   1.1908191E+05   -1.7473996E+00
   3.4061685E-04   1.1812718E+05   -1.7468237E+00
   3.4218986E-04   1.1718041E+05   -1.7462478E+00
   3.4377013E-04   1.1624154E+05   -1.7456719E+00
   3.4535769E-04   1.1531049E+05   -1.7450960E+00
   3.4695259E-04   1.1438721E+05   -1.7445202E+00
   3.4855485E-04   1.1347162E+05   -1.7439445E+00
   3.5016452E-04   1.1256366E+05   -1.7433688E+00
   3.5178161E-04   1.1166326E+05   -1.7427932E+00
   3.5340618E-04   1.1077035E+05   -1.7422177E+00
   3.5503824E-04   1.0988488E+05   -1.7416423E+00
   3.5667785E-04   1.0900677E+05   -1.7410669E+00
   3.5832502E-04   1.0813597E+05   -1.7404917E+00
   3.5997981E-04   1.0727241E+05   -1.7399165E+00
   3.6164223E-04   1.0641603E+05   -1.7393414E+00
   3.6331233E-04   1.0556676E+05   -1.7387665E+00
   3.6499015E-04   1.0472455E+05   -1.7381917E+00
   3.6667571E-04   1.0388933E+05   -1.7376170E+00
   3.6836906E-04   1.0306105E+05   -1.7370424E+00
   3.7007022E-04   1.0223964E+05   -1.7364680E+00
   3.7177925E-04   1.0142504E+05   -1.7358937E+00
   3.7349616E-04   1.0061721E+05   -1.7353195E+00
   3.7522101E-04   9.9816067E+04   -1.7347455E+00
   3.7695382E-04   9.9021568E+04   -1.7341717E+00
   3.7869463E-04   9.8233653E+04   -1.7335981E+00
   3.8044348E-04   9.7452265E+04   -1.7330246E+00
   3.8220041E-04   9.6677348E+04   -1.7324513E+00
   3.8396545E-04   9.5908847E+04   -1.7318781E+00
   3.8573864E-04   9.5146705E+04   -1.7313052E+00
   3.8752002E-04   9.4390869E+04   -1.7307325E+00
   3.8930963E-04   9.3641284E+04   -1.7301599E+00
   3.9110750E-04   9.2897897E+04   -1.7295876E+00
   3.9291368E-04   9.2160654E+04   -1.7290155E+00
   3.9472820E-04   9.1429503E+04   -1.7284436E+00
   3.9655109E-04   9.0704392E+04   -1.7278719E+00
   3.9838241E-04   8.9985268E+04   -1.7273005E+00
   4.0022218E-04   8.9272080E+04   -1.7267293E+00
   4.0207045E-04   8.8564778E+04   -1.7261584E+00
   4.0392725E-04   8.7863312E+04   -1.7255877E+00
   4.0579263E-04   8.7167630E+04   -1.7250172E+00
   4.0766662E-04   8.6477684E+04   -1.7244470E+00
   4.0954927E-04   8.5793424E+04   -1.7238771E+00
   4.1144061E-04   8.5114802E+04   -1.7233075E+00
   4.1334068E-04   8.4441769E+04   -1.7227381E+00
   4.1524953E-04   8.3774278E+04   -1.7221690E+00
   4.1716720E-04   8.3112281E+04   -1.7216002E+00
   4.1909372E-04   8.2455731E+04   -1.7210317E+00
   4.2102914E-04   8.1804582E+04   -1.7204636E+00
   4.2297350E-04   8.1158787E+04   -1.7198957E+00
   4.2492683E-04   8.0518301E+04   -1.7193281E+00
   4.2688919E-04   7.9883079E+04   -1.7187609E+00
   4.2886061E-04   7.9253075E+04   -1.7181939E+00
   4.3084113E-04   7.8628245E+04   -1.7176274E+00
   4.3283080E-04   7.8008544E+04   -1.7170611E+00
   4.3482966E-04   7.7393930E+04   -1.7164952E+00
   4.3683775E-04   7.6784358E+04   -1.7159296E+00
   4.3885511E-04   7.6179786E+04   -1.7153644E+00
   4.4088179E-04   7.5580171E+04   -1.7147996E+00
   4.4291783E-04   7.4985470E+04   -1.7142351E+00
   4.4496327E-04   7.4395642E+04   -1.7136710E+00
   4.4701816E-04   7.3810646E+04   -1.7131073E+00
   4.4908253E-04   7.3230439E+04   -1.7125439E+00
   4.5115644E-04   7.2654982E+04   -1.7119809E+00
   4.5323993E-04   7.2084234E+04   -1.7114184E+00
   4.5533304E-04   7.1518155E+04   -1.7108562E+00
   4.5743582E-04   7.0956705E+04   -1.7102944E+00
   4.5954830E-04   7.0399845E+04   -1.7097331E+00
   4.6167054E-04   6.9847536E+04   -1.7091721E+00
   4.6380259E-04   6.9299739E+04   -1.7086116E+00
   4.6594448E-04   6.8756415E+04   -1.7080515E+00
   4.6809626E-04   6.8217527E+04   -1.7074918E+00
   4.7025797E-04   6.7683037E+04   -1.7069326E+00
   4.7242967E-04   6.7152908E+04   -1.7063738E+00
   4.7461140E-04   6.6627103E+04   -1.7058155E+00
   4.7680321E-04   6.6105584E+04   -1.7052576E+00
   4.7900514E-04   6.5588317E+04   -1.7047002E+00
   4.8121723E-04   6.5075264E+04   -1.7041432E+00
   4.8343954E-04   6.4566390E+04   -1.7035867E+00
   4.8567212E-04   6.4061659E+04   -1.7030307E+00
   4.8791500E-04   6.3561037E+04   -1.7024752E+00
   4.9016825E-04   6.3064488E+04   -1.7019201E+00
   4.9243189E-04   6.2571978E+04   -1.7013656E+00
   4.9470600E-04   6.2083474E+04   -1.7008115E+00
   4.9699060E-04   6.1598940E+04   -1.7002580E+00
   4.9928575E-04   6.1118343E+04   -1.6997049E+00
   5.0159151E-04   6.0641651E+04   -1.6991524E+00
   5.0390791E-04   6.0168829E+04   -1.6986003E+00
   5.0623501E-04   5.9699846E+04   -1.6980488E+00
   5.0857286E-04   5.9234669E+04   -1.6974978E+00
   5.1092150E-04   5.8773266E+04   -1.6969474E+00
   5.1328099E-04   5.8315605E+04   -1.6963975E+00
   5.1565137E-04   5.7861654E+04   -1.6958481E+00
   5.1803270E-04   5.7411382E+04   -1.6952993E+00
   5.2042503E-04   5.6964757E+04   -1.6947510E+00
   5.2282841E-04   5.6521750E+04   -1.6942033E+00
   5.2524289E-04   5.6082330E+04   -1.6936562E+00
   5.2766851E-04   5.5646466E+04   -1.6931096E+00
   5.3010534E-04   5.5214129E+04   -1.6925635E+00
   5.3255342E-04   5.4785288E+04   -1.6920181E+00
   5.3501281E-04   5.4359914E+04   -1.6914733E+00
   5.3748356E-04   5.3937979E+04   -1.6909290E+00
   5.3996571E-04   5.3519453E+04   -1.6903853E+00
   5.4245933E-04   5.3104307E+04   -1.6898422E+00
   5.4496446E-04   5.2692513E+04   -1.6892997E+00
   5.4748117E-04   5.2284043E+04   -1.6887579E+00
   5.5000949E-04   5.1878869E+04   -1.6882166E+00
   5.5254949E-04   5.1476964E+04   -1.6876759E+00
   5.5510123E-04   5.1078299E+04   -1.6871359E+00
   5.5766474E-04   5.0682847E+04   -1.6865965E+00
   5.6024010E-04   5.0290582E+04   -1.6860577E+00
   5.6282734E-04   4.9901477E+04   -1.6855196E+00
   5.6542654E-04   4.9515505E+04   -1.6849820E+00
   5.6803774E-04   4.9132640E+04   -1.6844452E+00
   5.7066099E-04   4.8752855E+04   -1.6839090E+00
   5.7329637E-04   4.8376126E+04   -1.6833734E+00
   5.7594391E-04   4.8002427E+04   -1.6828385E+00
   5.7860368E-04   4.7631731E+04   -1.6823042E+00
   5.8127573E-04   4.7264015E+04   -1.6817706E+00
   5.8396012E-04   4.6899253E+04   -1.6812377E+00
   5.8665691E-04   4.6537419E+04   -1.6807055E+00
   5.8936616E-04   4.6178491E+04   -1.6801739E+00
   5.9208791E-04   4.5822443E+04   -1.6796430E+00
   5.9482223E-04   4.5469251E+04   -1.6791128E+00
   5.9756919E-04   4.5118892E+04   -1.6785833E+00
   6.0032882E-04   4.4771342E+04   -1.6780545E+00
   6.0310120E-04   4.4426577E+04   -1.6775264E+00
   6.0588639E-04   4.4084574E+04   -1.6769990E+00
   6.0868443E-04   4.3745310E+04   -1.6764723E+00
   6.1149540E-04   4.3408762E+04   -1.6759463E+00
   6.1431935E-04   4.3074908E+04   -1.6754210E+00
   6.1715634E-04   4.2743725E+04   -1.6748964E+00
   6.2000644E-04   4.2415191E+04   -1.6743726E+00
   6.2286969E-04   4.2089283E+04   -1.6738495E+00
