#        a       HoverH0(a)       dlogHdloga_of_a(a)
   1.0000000E-04   1.2044680E+06   -1.8805719E+00
   1.0046181E-04   1.1940779E+06   -1.8801525E+00
   1.0092575E-04   1.1837797E+06   -1.8797322E+00
   1.0139184E-04   1.1735726E+06   -1.8793108E+00
   1.0186008E-04   1.1634558E+06   -1.8788885E+00
   1.0233048E-04   1.1534284E+06   -1.8784651E+00
   1.0280305E-04   1.1434897E+06   -1.8780407E+00
   1.0327781E-04   1.1336389E+06   -1.8776153E+00
   1.0375475E-04   1.1238751E+06   -1.8771890E+00
   1.0423390E-04   1.1141976E+06   -1.8767616E+00
   1.0471527E-04   1.1046056E+06   -1.8763332E+00
   1.0519885E-04   1.0950984E+06   -1.8759038E+00
   1.0568467E-04   1.0856751E+06   -1.8754734E+00
   1.0617274E-04   1.0763351E+06   -1.8750421E+00
   1.0666305E-04   1.0670775E+06   -1.8746097E+00
   1.0715563E-04   1.0579017E+06   -1.8741763E+00
   1.0765049E-04   1.0488068E+06   -1.8737420E+00
   1.0814763E-04   1.0397923E+06   -1.8733067E+00
   1.0864707E-04   1.0308573E+06   -1.8728703E+00
   1.0914881E-04   1.0220011E+06   -1.8724330E+00
   1.0965287E-04   1.0132230E+06   -1.8719947E+00
   1.1015926E-04   1.0045224E+06   -1.8715554E+00
   1.1066799E-04   9.9589854E+05   -1.8711151E+00
   1.1117906E-04   9.8735069E+05   -1.8706738E+00
   1.1169250E-04   9.7887820E+05   -1.8702316E+00
   1.1220831E-04   9.7048039E+05   -1.8697883E+00
   1.1272650E-04   9.6215659E+05   -1.8693441E+00
   1.1324708E-04   9.5390615E+05   -1.8688989E+00
   1.1377007E-04   9.4572839E+05   -1.8684528E+00
   1.1429547E-04   9.3762267E+05   -1.8680056E+00
   1.1482330E-04   9.2958834E+05   -1.8675575E+00
   1.1535356E-04   9.2162476E+05   -1.8671084E+00
   1.1588628E-04   9.1373130E+05   -1.8666584E+00
   1.1642145E-04   9.0590732E+05   -1.8662073E+00
   1.1695910E-04   8.9815220E+05   -1.8657553E+00
   1.1749923E-04   8.9046533E+05   -1.8653024E+00
   1.1804185E-04   8.8284609E+05   -1.8648484E+00
   1.1858698E-04   8.7529387E+05   -1.8643936E+00
   1.1913463E-04   8.6780808E+05   -1.8639377E+00
   1.1968481E-04   8.6038812E+05   -1.8634809E+00
   1.2023752E-04   8.5303340E+05   -1.8630231E+00
   1.2079279E-04   8.4574334E+05   -1.8625644E+00
   1.2135063E-04   8.3851735E+05   -1.8621048E+00
   1.2191104E-04   8.3135487E+05   -1.8616441E+00
   1.2247403E-04   8.2425531E+05   -1.8611826E+00
   1.2303963E-04   8.1721813E+05   -1.8607201E+00
   1.2360784E-04   8.1024275E+05   -1.8602566E+00
   1.2417868E-04   8.0332863E+05   -1.8597922E+00
   1.2475215E-04   7.9647521E+05   -1.8593268E+00
   1.2532826E-04   7.8968196E+05   -1.8588606E+00
   1.2590704E-04   7.8294833E+05   -1.8583933E+00
   1.2648850E-04   7.7627379E+05   -1.8579252E+00
   1.2707263E-04   7.6965781E+05   -1.8574561E+00
   1.2765947E-04   7.6309987E+05   -1.8569861E+00
   1.2824901E-04   7.5659945E+05   -1.8565151E+00
   1.2884128E-04   7.5015604E+05   -1.8560433E+00
   1.2943628E-04   7.4376911E+05   -1.8555705E+00
   1.3003403E-04   7.3743817E+05   -1.8550968E+00
   1.3063454E-04   7.3116272E+05   -1.8546221E+00
   1.3123783E-04   7.2494226E+05   -1.8541466E+00
   1.3184390E-04   7.1877629E+05   -1.8536701E+00
   1.3245277E-04   7.1266434E+05   -1.8531927E+00
   1.3306445E-04   7.0660591E+05   -1.8527145E+00
   1.3367895E-04   7.0060053E+05   -1.8522353E+00
   1.3429630E-04   6.9464773E+05   -1.8517552E+00
   1.3491649E-04   6.8874702E+05   -1.8512742E+00
   1.3553955E-04   6.8289796E+05   -1.8507923E+00
   1.3616548E-04   6.7710008E+05   -1.8503095E+00
   1.3679431E-04   6.7135291E+05   -1.8498258E+00
   1.3742604E-04   6.6565602E+05   -1.8493412E+00
   1.3806069E-04   6.6000893E+05   -1.8488558E+00
   1.3869827E-04   6.5441122E+05   -1.8483694E+00
   1.3933879E-04   6.4886245E+05   -1.8478822E+00
   1.3998227E-04   6.4336216E+05   -1.8473941E+00
   1.4062872E-04   6.3790994E+05   -1.8469051E+00
   1.4127816E-04   6.3250534E+05   -1.8464152E+00
   1.4193060E-04   6.2714796E+05   -1.8459245E+00
   1.4258605E-04   6.2183735E+05   -1.8454329E+00
   1.4324453E-04   6.1657312E+05   -1.8449404E+00
   1.4390605E-04   6.1135484E+05   -1.8444471E+00
   1.4457062E-04   6.0618210E+05   -1.8439529E+00
   1.4523826E-04   6.0105450E+05   -1.8434579E+00
   1.4590899E-04   5.9597163E+05   -1.8429620E+00
   1.4658281E-04   5.9093310E+05   -1.8424652E+00
   1.4725974E-04   5.8593851E+05   -1.8419676E+00
   1.4793981E-04   5.8098747E+05   -1.8414692E+00
   1.4862301E-04   5.7607958E+05   -1.8409699E+00
   1.4930936E-04   5.7121447E+05   -1.8404698E+00
   1.4999889E-04   5.6639175E+05   -1.8399688E+00
   1.5069160E-04   5.6161105E+05   -1.8394670E+00
   1.5138751E-04   5.5687199E+05   -1.8389644E+00
   1.5208663E-04   5.5217419E+05   -1.8384610E+00
   1.5278899E-04   5.4751730E+05   -1.8379567E+00
   1.5349458E-04   5.4290095E+05   -1.8374516E+00
   1.5420343E-04   5.3832477E+05   -1.8369457E+00
   1.5491556E-04   5.3378842E+05   -1.8364390E+00
   1.5563098E-04   5.2929152E+05   -1.8359315E+00
   1.5634970E-04   5.2483374E+05   -1.8354232E+00
   1.5707174E-04   5.2041472E+05   -1.8349141E+00
   1.5779711E-04   5.1603412E+05   -1.8344042E+00
   1.5852584E-04   5.1169160E+05   -1.8338934E+00
   1.5925792E-04   5.0738681E+05   -1.8333819E+00
   1.5999339E-04   5.0311943E+05   -1.8328697E+00
   1.6073226E-04   4.9888912E+05   -1.8323566E+00
   1.6147454E-04   4.9469554E+05   -1.8318427E+00
   1.6222024E-04   4.9053838E+05   -1.8313281E+00
   1.6296939E-04   4.8641731E+05   -1.8308127E+00
   1.6372200E-04   4.8233201E+05   -1.8302965E+00
   1.6447809E-04   4.7828215E+05   -1.8297796E+00
   1.6523767E-04   4.7426743E+05   -1.8292619E+00
   1.6600075E-04   4.7028753E+05   -1.8287434E+00
   1.6676736E-04   4.6634215E+05   -1.8282242E+00
   1.6753751E-04   4.6243097E+05   -1.8277043E+00
   1.6831122E-04   4.5855369E+05   -1.8271836E+00
   1.6908849E-04   4.5471002E+05   -1.8266621E+00
   1.6986936E-04   4.5089964E+05   -1.8261400E+00
   1.7065384E-04   4.4712228E+05   -1.8256171E+00
   1.7144193E-04   4.4337762E+05   -1.8250934E+00
   1.7223367E-04   4.3966539E+05   -1.8245690E+00
   1.7302906E-04   4.3598530E+05   -1.8240440E+00
   1.7382813E-04   4.3233705E+05   -1.8235181E+00
   1.7463089E-04   4.2872038E+05   -1.8229916E+00
   1.7543735E-04   4.2513499E+05   -1.8224644E+00
   1.7624754E-04   4.2158060E+05   -1.8219365E+00
   1.7706147E-04   4.1805696E+05   -1.8214078E+00
   1.7787916E-04   4.1456377E+05   -1.8208785E+00
   1.7870062E-04   4.1110078E+05   -1.8203485E+00
   1.7952588E-04   4.0766771E+05   -1.8198178E+00
   1.8035495E-04   4.0426429E+05   -1.8192864E+00
   1.8118785E-04   4.0089028E+05   -1.8187543E+00
   1.8202459E-04   3.9754540E+05   -1.8182216E+00
   1.8286520E-04   3.9422939E+05   -1.8176881E+00
   1.8370969E-04   3.9094201E+05   -1.8171540E+00
   1.8455808E-04   3.8768299E+05   -1.8166193E+00
   1.8541039E-04   3.8445209E+05   -1.8160839E+00
   1.8626663E-04   3.8124906E+05   -1.8155478E+00
   1.8712683E-04   3.7807365E+05   -1.8150111E+00
   1.8799100E-04   3.7492561E+05   -1.8144738E+00
   1.8885917E-04   3.7180470E+05   -1.8139358E+00
   1.8973134E-04   3.6871069E+05   -1.8133972E+00
   1.9060754E-04   3.6564334E+05   -1.8128579E+00
   1.9148778E-04   3.6260240E+05   -1.8123180E+00
   1.9237209E-04   3.5958765E+05   -1.8117776E+00
   1.9326049E-04   3.5659885E+05   -1.8112364E+00
   1.9415299E-04   3.5363578E+05   -1.8106947E+00
   1.9504960E-04   3.5069820E+05   -1.8101524E+00
   1.9595036E-04   3.4778589E+05   -1.8096094E+00
   1.9685528E-04   3.4489864E+05   -1.8090659E+00
   1.9776438E-04   3.4203621E+05   -1.8085218E+00
   1.9867768E-04   3.3919838E+05   -1.8079771E+00
   1.9959519E-04   3.3638495E+05   -1.8074318E+00
   2.0051694E-04   3.3359569E+05   -1.8068859E+00
   2.0144295E-04   3.3083039E+05   -1.8063395E+00
   2.0237324E-04   3.2808884E+05   -1.8057925E+00
   2.0330782E-04   3.2537083E+05   -1.8052449E+00
   2.0424671E-04   3.2267615E+05   -1.8046967E+00
   2.0518995E-04   3.2000460E+05   -1.8041481E+00
   2.0613754E-04   3.1735596E+05   -1.8035988E+00
   2.0708950E-04   3.1473005E+05   -1.8030490E+00
   2.0804586E-04   3.1212666E+05   -1.8024987E+00
   2.0900664E-04   3.0954558E+05   -1.8019479E+00
   2.0997185E-04   3.0698663E+05   -1.8013965E+00
   2.1094152E-04   3.0444961E+05   -1.8008446E+00
   2.1191567E-04   3.0193432E+05   -1.8002922E+00
   2.1289432E-04   2.9944058E+05   -1.7997393E+00
   2.1387749E-04   2.9696819E+05   -1.7991858E+00
   2.1486520E-04   2.9451696E+05   -1.7986319E+00
   2.1585747E-04   2.9208671E+05   -1.7980774E+00
   2.1685432E-04   2.8967726E+05   -1.7975225E+00
   2.1785578E-04   2.8728841E+05   -1.7969671E+00
   2.1886186E-04   2.8492000E+05   -1.7964112E+00
   2.1987259E-04   2.8257184E+05   -1.7958548E+00
   2.2088798E-04   2.8024374E+05   -1.7952980E+00
   2.2190807E-04   2.7793554E+05   -1.7947407E+00
   2.2293286E-04   2.7564706E+05   -1.7941829E+00
   2.2396239E-04   2.7337813E+05   -1.7936247E+00
   2.2499667E-04   2.7112857E+05   -1.7930660E+00
   2.2603573E-04   2.6889821E+05   -1.7925069E+00
   2.2707958E-04   2.6668689E+05   -1.7919473E+00
   2.2812826E-04   2.6449444E+05   -1.7913873E+00
   2.2918178E-04   2.6232068E+05   -1.7908269E+00
   2.3024017E-04   2.6016547E+05   -1.7902661E+00
   2.3130344E-04   2.5802863E+05   -1.7897048E+00
   2.3237162E-04   2.5591000E+05   -1.7891432E+00
   2.3344474E-04   2.5380942E+05   -1.7885811E+00
   2.3452281E-04   2.5172674E+05   -1.7880186E+00
   2.3560586E-04   2.4966179E+05   -1.7874557E+00
   2.3669392E-04   2.4761443E+05   -1.7868925E+00
   2.3778699E-04   2.4558449E+05   -1.7863288E+00
   2.3888512E-04   2.4357183E+05   -1.7857648E+00
   2.3998831E-04   2.4157629E+05   -1.7852004E+00
   2.4109661E-04   2.3959772E+05   -1.7846357E+00
   2.4221001E-04   2.3763598E+05   -1.7840706E+00
   2.4332857E-04   2.3569091E+05   -1.7835051E+00
   2.4445228E-04   2.3376237E+05   -1.7829393E+00
   2.4558119E-04   2.3185022E+05   -1.7823731E+00
   2.4671531E-04   2.2995431E+05   -1.7818066E+00
   2.4785467E-04   2.2807449E+05   -1.7812397E+00
   2.4899928E-04   2.2621064E+05   -1.7806726E+00
   2.5014919E-04   2.2436260E+05   -1.7801051E+00
   2.5130440E-04   2.2253024E+05   -1.7795373E+00
   2.5246495E-04   2.2071343E+05   -1.7789692E+00
   2.5363086E-04   2.1891202E+05   -1.7784008E+00
   2.5480216E-04   2.1712588E+05   -1.7778320E+00
   2.5597886E-04   2.1535488E+05   -1.7772630E+00
   2.5716100E-04   2.1359889E+05   -1.7766937E+00
   2.5834859E-04   2.1185777E+05   -1.7761242E+00
   2.5954168E-04   2.1013139E+05   -1.7755543E+00
   2.6074027E-04   2.0841963E+05   -1.7749842E+00
   2.6194439E-04   2.0672236E+05   -1.7744138E+00
   2.6315408E-04   2.0503944E+05   -1.7738432E+00
   2.6436935E-04   2.0337077E+05   -1.7732723E+00
   2.6559024E-04   2.0171620E+05   -1.7727012E+00
   2.6681676E-04   2.0007562E+05   -1.7721298E+00
   2.6804895E-04   1.9844891E+05   -1.7715582E+00
   2.6928683E-04   1.9683594E+05   -1.7709864E+00
   2.7053042E-04   1.9523660E+05   -1.7704143E+00
   2.7177976E-04   1.9365076E+05   -1.7698420E+00
   2.7303487E-04   1.9207831E+05   -1.7692695E+00
   2.7429577E-04   1.9051913E+05   -1.7686969E+00
   2.7556250E-04   1.8897310E+05   -1.7681240E+00
   2.7683507E-04   1.8744012E+05   -1.7675509E+00
   2.7811353E-04   1.8592006E+05   -1.7669776E+00
   2.7939788E-04   1.8441282E+05   -1.7664042E+00
   2.8068817E-04   1.8291828E+05   -1.7658306E+00
   2.8198442E-04   1.8143633E+05   -1.7652568E+00
   2.8328665E-04   1.7996686E+05   -1.7646829E+00
   2.8459490E-04   1.7850977E+05   -1.7641088E+00
   2.8590919E-04   1.7706494E+05   -1.7635345E+00
   2.8722955E-04   1.7563227E+05   -1.7629601E+00
   2.8855600E-04   1.7421166E+05   -1.7623856E+00
   2.8988859E-04   1.7280299E+05   -1.7618109E+00
   2.9122732E-04   1.7140616E+05   -1.7612361E+00
   2.9257224E-04   1.7002108E+05   -1.7606612E+00
   2.9392337E-04   1.6864764E+05   -1.7600862E+00
   2.9528074E-04   1.6728574E+05   -1.7595111E+00
   2.9664438E-04   1.6593527E+05   -1.7589358E+00
   2.9801431E-04   1.6459614E+05   -1.7583605E+00
   2.9939057E-04   1.6326825E+05   -1.7577851E+00
   3.0077319E-04   1.6195151E+05   -1.7572096E+00
   3.0216219E-04   1.6064581E+05   -1.7566340E+00
   3.0355761E-04   1.5935105E+05   -1.7560584E+00
   3.0495947E-04   1.5806716E+05   -1.7554827E+00
   3.0636780E-04   1.5679402E+05   -1.7549069E+00
   3.0778264E-04   1.5553155E+05   -1.7543311E+00
   3.0920401E-04   1.5427966E+05   -1.7537552E+00
   3.1063195E-04   1.5303824E+05   -1.7531793E+00
   3.1206648E-04   1.5180722E+05   -1.7526033E+00
   3.1350764E-04   1.5058650E+05   -1.7520274E+00
   3.1495545E-04   1.4937600E+05   -1.7514514E+00
   3.1640994E-04   1.4817562E+05   -1.7508754E+00
   3.1787116E-04   1.4698527E+05   -1.7502993E+00
   3.1933912E-04   1.4580488E+05   -1.7497233E+00
   3.2081386E-04   1.4463434E+05   -1.7491473E+00
   3.2229541E-04   1.4347359E+05   -1.7485713E+00
   3.2378381E-04   1.4232253E+05   -1.7479953E+00
   3.2527908E-04   1.4118107E+05   -1.7474193E+00
   3.2678125E-04   1.4004915E+05   -1.7468433E+00
   3.2829036E-04   1.3892666E+05   -1.7462674E+00
   3.2980644E-04   1.3781354E+05   -1.7456915E+00
   3.3132952E-04   1.3670971E+05   -1.7451157E+00
   3.3285963E-04   1.3561507E+05   -1.7445399E+00
   3.3439681E-04   1.3452955E+05   -1.7439642E+00
   3.3594109E-04   1.3345308E+05   -1.7433885E+00
   3.3749250E-04   1.3238557E+05   -1.7428129E+00
   3.3905108E-04   1.3132695E+05   -1.7422374E+00
   3.4061685E-04   1.3027714E+05   -1.7416620E+00
   3.4218986E-04   1.2923607E+05   -1.7410866E+00
   3.4377013E-04   1.2820365E+05   -1.7405114E+00
   3.4535769E-04   1.2717982E+05   -1.7399362E+00
   3.4695259E-04   1.2616450E+05   -1.7393612E+00
   3.4855485E-04   1.2515761E+05   -1.7387862E+00
   3.5016452E-04   1.2415910E+05   -1.7382114E+00
   3.5178161E-04   1.2316887E+05   -1.7376367E+00
   3.5340618E-04   1.2218686E+05   -1.7370622E+00
   3.5503824E-04   1.2121301E+05   -1.7364877E+00
   3.5667785E-04   1.2024723E+05   -1.7359134E+00
   3.5832502E-04   1.1928947E+05   -1.7353393E+00
   3.5997981E-04   1.1833964E+05   -1.7347653E+00
   3.6164223E-04   1.1739769E+05   -1.7341915E+00
   3.6331233E-04   1.1646355E+05   -1.7336178E+00
   3.6499015E-04   1.1553714E+05   -1.7330444E+00
   3.6667571E-04   1.1461841E+05   -1.7324710E+00
   3.6836906E-04   1.1370728E+05   -1.7318979E+00
   3.7007022E-04   1.1280369E+05   -1.7313250E+00
   3.7177925E-04   1.1190758E+05   -1.7307523E+00
   3.7349616E-04   1.1101888E+05   -1.7301797E+00
   3.7522101E-04   1.1013753E+05   -1.7296074E+00
   3.7695382E-04   1.0926346E+05   -1.7290353E+00
   3.7869463E-04   1.0839662E+05   -1.7284634E+00
   3.8044348E-04   1.0753693E+05   -1.7278917E+00
   3.8220041E-04   1.0668435E+05   -1.7273203E+00
   3.8396545E-04   1.0583880E+05   -1.7267491E+00
   3.8573864E-04   1.0500023E+05   -1.7261782E+00
   3.8752002E-04   1.0416858E+05   -1.7256075E+00
   3.8930963E-04   1.0334379E+05   -1.7250370E+00
   3.9110750E-04   1.0252579E+05   -1.7244668E+00
   3.9291368E-04   1.0171454E+05   -1.7238969E+00
   3.9472820E-04   1.0090998E+05   -1.7233273E+00
   3.9655109E-04   1.0011204E+05   -1.7227579E+00
   3.9838241E-04   9.9320666E+04   -1.7221888E+00
   4.0022218E-04   9.8535810E+04   -1.7216201E+00
   4.0207045E-04   9.7757413E+04   -1.7210516E+00
   4.0392725E-04   9.6985418E+04   -1.7204834E+00
   4.0579263E-04   9.6219772E+04   -1.7199155E+00
   4.0766662E-04   9.5460420E+04   -1.7193479E+00
   4.0954927E-04   9.4707308E+04   -1.7187807E+00
   4.1144061E-04   9.3960383E+04   -1.7182138E+00
   4.1334068E-04   9.3219592E+04   -1.7176472E+00
   4.1524953E-04   9.2484883E+04   -1.7170809E+00
   4.1716720E-04   9.1756204E+04   -1.7165150E+00
   4.1909372E-04   9.1033504E+04   -1.7159495E+00
   4.2102914E-04   9.0316730E+04   -1.7153842E+00
   4.2297350E-04   8.9605834E+04   -1.7148194E+00
   4.2492683E-04   8.8900765E+04   -1.7142549E+00
   4.2688919E-04   8.8201473E+04   -1.7136908E+00
   4.2886061E-04   8.7507909E+04   -1.7131271E+00
   4.3084113E-04   8.6820024E+04   -1.7125637E+00
   4.3283080E-04   8.6137770E+04   -1.7120007E+00
   4.3482966E-04   8.5461099E+04   -1.7114382E+00
   4.3683775E-04   8.4789963E+04   -1.7108760E+00
   4.3885511E-04   8.4124316E+04   -1.7103142E+00
   4.4088179E-04   8.3464110E+04   -1.7097529E+00
   4.4291783E-04   8.2809300E+04   -1.7091919E+00
   4.4496327E-04   8.2159839E+04   -1.7086314E+00
   4.4701816E-04   8.1515682E+04   -1.7080713E+00
   4.4908253E-04   8.0876784E+04   -1.7075116E+00
   4.5115644E-04   8.0243101E+04   -1.7069524E+00
   4.5323993E-04   7.9614588E+04   -1.7063936E+00
   4.5533304E-04   7.8991201E+04   -1.7058353E+00
   4.5743582E-04   7.8372896E+04   -1.7052774E+00
   4.5954830E-04   7.7759631E+04   -1.7047200E+00
   4.6167054E-04   7.7151363E+04   -1.7041630E+00
   4.6380259E-04   7.6548050E+04   -1.7036065E+00
   4.6594448E-04   7.5949649E+04   -1.7030505E+00
   4.6809626E-04   7.5356119E+04   -1.7024950E+00
   4.7025797E-04   7.4767418E+04   -1.7019399E+00
   4.7242967E-04   7.4183506E+04   -1.7013853E+00
   4.7461140E-04   7.3604342E+04   -1.7008313E+00
   4.7680321E-04   7.3029886E+04   -1.7002777E+00
   4.7900514E-04   7.2460099E+04   -1.6997246E+00
   4.8121723E-04   7.1894940E+04   -1.6991721E+00
   4.8343954E-04   7.1334371E+04   -1.6986201E+00
   4.8567212E-04   7.0778352E+04   -1.6980686E+00
   4.8791500E-04   7.0226846E+04   -1.6975176E+00
   4.9016825E-04   6.9679814E+04   -1.6969671E+00
   4.9243189E-04   6.9137218E+04   -1.6964172E+00
   4.9470600E-04   6.8599021E+04   -1.6958678E+00
   4.9699060E-04   6.8065186E+04   -1.6953190E+00
   4.9928575E-04   6.7535676E+04   -1.6947707E+00
   5.0159151E-04   6.7010454E+04   -1.6942230E+00
   5.0390791E-04   6.6489484E+04   -1.6936758E+00
   5.0623501E-04   6.5972731E+04   -1.6931292E+00
   5.0857286E-04   6.5460159E+04   -1.6925832E+00
   5.1092150E-04   6.4951733E+04   -1.6920378E+00
   5.1328099E-04   6.4447418E+04   -1.6914929E+00
   5.1565137E-04   6.3947179E+04   -1.6909486E+00
   5.1803270E-04   6.3450982E+04   -1.6904050E+00
   5.2042503E-04   6.2958792E+04   -1.6898619E+00
   5.2282841E-04   6.2470577E+04   -1.6893194E+00
   5.2524289E-04   6.1986302E+04   -1.6887775E+00
   5.2766851E-04   6.1505935E+04   -1.6882362E+00
   5.3010534E-04   6.1029443E+04   -1.6876956E+00
   5.3255342E-04   6.0556793E+04   -1.6871555E+00
   5.3501281E-04   6.0087953E+04   -1.6866161E+00
   5.3748356E-04   5.9622890E+04   -1.6860773E+00
   5.3996571E-04   5.9161574E+04   -1.6855392E+00
   5.4245933E-04   5.8703973E+04   -1.6850016E+00
   5.4496446E-04   5.8250056E+04   -1.6844648E+00
   5.4748117E-04   5.7799791E+04   -1.6839285E+00
   5.5000949E-04   5.7353148E+04   -1.6833930E+00
   5.5254949E-04   5.6910097E+04   -1.6828580E+00
   5.5510123E-04   5.6470608E+04   -1.6823238E+00
   5.5766474E-04   5.6034650E+04   -1.6817902E+00
   5.6024010E-04   5.5602195E+04   -1.6812573E+00
   5.6282734E-04   5.5173212E+04   -1.6807250E+00
   5.6542654E-04   5.4747674E+04   -1.6801934E+00
   5.6803774E-04   5.4325550E+04   -1.6796625E+00
   5.7066099E-04   5.3906813E+04   -1.6791323E+00
   5.7329637E-04   5.3491434E+04   -1.6786028E+00
   5.7594391E-04   5.3079386E+04   -1.6780740E+00
   5.7860368E-04   5.2670639E+04   -1.6775459E+00
   5.8127573E-04   5.2265168E+04   -1.6770184E+00
   5.8396012E-04   5.1862943E+04   -1.6764917E+00
   5.8665691E-04   5.1463939E+04   -1.6759657E+00
   5.8936616E-04   5.1068129E+04   -1.6754405E+00
   5.9208791E-04   5.0675485E+04   -1.6749159E+00
   5.9482223E-04   5.0285981E+04   -1.6743921E+00
   5.9756919E-04   4.9899592E+04   -1.6738689E+00
   6.0032882E-04   4.9516291E+04   -1.6733466E+00
   6.0310120E-04   4.9136052E+04   -1.6728249E+00
   6.0588639E-04   4.8758850E+04   -1.6723040E+00
   6.0868443E-04   4.8384660E+04   -1.6717839E+00
   6.1149540E-04   4.8013457E+04   -1.6712644E+00
   6.1431935E-04   4.7645215E+04   -1.6707458E+00
   6.1715634E-04   4.7279911E+04   -1.6702279E+00
   6.2000644E-04   4.6917519E+04   -1.6697107E+00
   6.2286969E-04   4.6558016E+04   -1.6691944E+00
