#        a       HoverH0(a)       dlogHdloga_of_a(a)
   1.0000000E-04   1.1830704E+06   -1.8950769E+00
   1.0046181E-04   1.1727864E+06   -1.8946944E+00
   1.0092575E-04   1.1625939E+06   -1.8943109E+00
   1.0139184E-04   1.1524920E+06   -1.8939263E+00
   1.0186008E-04   1.1424798E+06   -1.8935407E+00
   1.0233048E-04   1.1325567E+06   -1.8931541E+00
   1.0280305E-04   1.1227218E+06   -1.8927665E+00
   1.0327781E-04   1.1129742E+06   -1.8923779E+00
   1.0375475E-04   1.1033133E+06   -1.8919882E+00
   1.0423390E-04   1.0937382E+06   -1.8915975E+00
   1.0471527E-04   1.0842481E+06   -1.8912058E+00
   1.0519885E-04   1.0748423E+06   -1.8908131E+00
   1.0568467E-04   1.0655201E+06   -1.8904194E+00
   1.0617274E-04   1.0562806E+06   -1.8900246E+00
   1.0666305E-04   1.0471231E+06   -1.8896288E+00
   1.0715563E-04   1.0380470E+06   -1.8892320E+00
   1.0765049E-04   1.0290513E+06   -1.8888342E+00
   1.0814763E-04   1.0201356E+06   -1.8884354E+00
   1.0864707E-04   1.0112989E+06   -1.8880355E+00
   1.0914881E-04   1.0025406E+06   -1.8876346E+00
   1.0965287E-04   9.9386000E+05   -1.8872327E+00
   1.1015926E-04   9.8525639E+05   -1.8868298E+00
   1.1066799E-04   9.7672908E+05   -1.8864259E+00
   1.1117906E-04   9.6827737E+05   -1.8860209E+00
   1.1169250E-04   9.5990059E+05   -1.8856149E+00
   1.1220831E-04   9.5159807E+05   -1.8852080E+00
   1.1272650E-04   9.4336912E+05   -1.8848000E+00
   1.1324708E-04   9.3521309E+05   -1.8843909E+00
   1.1377007E-04   9.2712934E+05   -1.8839809E+00
   1.1429547E-04   9.1911719E+05   -1.8835699E+00
   1.1482330E-04   9.1117601E+05   -1.8831578E+00
   1.1535356E-04   9.0330516E+05   -1.8827448E+00
   1.1588628E-04   8.9550400E+05   -1.8823307E+00
   1.1642145E-04   8.8777192E+05   -1.8819156E+00
   1.1695910E-04   8.8010827E+05   -1.8814995E+00
   1.1749923E-04   8.7251246E+05   -1.8810824E+00
   1.1804185E-04   8.6498387E+05   -1.8806642E+00
   1.1858698E-04   8.5752190E+05   -1.8802451E+00
   1.1913463E-04   8.5012594E+05   -1.8798250E+00
   1.1968481E-04   8.4279540E+05   -1.8794038E+00
   1.2023752E-04   8.3552970E+05   -1.8789817E+00
   1.2079279E-04   8.2832825E+05   -1.8785585E+00
   1.2135063E-04   8.2119047E+05   -1.8781344E+00
   1.2191104E-04   8.1411579E+05   -1.8777092E+00
   1.2247403E-04   8.0710364E+05   -1.8772831E+00
   1.2303963E-04   8.0015347E+05   -1.8768559E+00
   1.2360784E-04   7.9326470E+05   -1.8764277E+00
   1.2417868E-04   7.8643680E+05   -1.8759986E+00
   1.2475215E-04   7.7966921E+05   -1.8755684E+00
   1.2532826E-04   7.7296139E+05   -1.8751372E+00
   1.2590704E-04   7.6631280E+05   -1.8747051E+00
   1.2648850E-04   7.5972292E+05   -1.8742719E+00
   1.2707263E-04   7.5319121E+05   -1.8738378E+00
   1.2765947E-04   7.4671715E+05   -1.8734027E+00
   1.2824901E-04   7.4030023E+05   -1.8729665E+00
   1.2884128E-04   7.3393993E+05   -1.8725294E+00
   1.2943628E-04   7.2763574E+05   -1.8720913E+00
   1.3003403E-04   7.2138716E+05   -1.8716522E+00
   1.3063454E-04   7.1519368E+05   -1.8712122E+00
   1.3123783E-04   7.0905482E+05   -1.8707711E+00
   1.3184390E-04   7.0297008E+05   -1.8703291E+00
   1.3245277E-04   6.9693898E+05   -1.8698860E+00
   1.3306445E-04   6.9096103E+05   -1.8694420E+00
   1.3367895E-04   6.8503577E+05   -1.8689971E+00
   1.3429630E-04   6.7916270E+05   -1.8685511E+00
   1.3491649E-04   6.7334138E+05   -1.8681042E+00
   1.3553955E-04   6.6757132E+05   -1.8676562E+00
   1.3616548E-04   6.6185209E+05   -1.8672074E+00
   1.3679431E-04   6.5618320E+05   -1.8667575E+00
   1.3742604E-04   6.5056423E+05   -1.8663067E+00
   1.3806069E-04   6.4499471E+05   -1.8658549E+00
   1.3869827E-04   6.3947420E+05   -1.8654021E+00
   1.3933879E-04   6.3400227E+05   -1.8649484E+00
   1.3998227E-04   6.2857847E+05   -1.8644937E+00
   1.4062872E-04   6.2320238E+05   -1.8640381E+00
   1.4127816E-04   6.1787357E+05   -1.8635815E+00
   1.4193060E-04   6.1259162E+05   -1.8631239E+00
   1.4258605E-04   6.0735610E+05   -1.8626654E+00
   1.4324453E-04   6.0216660E+05   -1.8622060E+00
   1.4390605E-04   5.9702270E+05   -1.8617455E+00
   1.4457062E-04   5.9192401E+05   -1.8612842E+00
   1.4523826E-04   5.8687010E+05   -1.8608219E+00
   1.4590899E-04   5.8186059E+05   -1.8603586E+00
   1.4658281E-04   5.7689508E+05   -1.8598944E+00
   1.4725974E-04   5.7197316E+05   -1.8594292E+00
   1.4793981E-04   5.6709445E+05   -1.8589632E+00
   1.4862301E-04   5.6225856E+05   -1.8584961E+00
   1.4930936E-04   5.5746511E+05   -1.8580282E+00
   1.4999889E-04   5.5271372E+05   -1.8575593E+00
   1.5069160E-04   5.4800401E+05   -1.8570895E+00
   1.5138751E-04   5.4333561E+05   -1.8566187E+00
   1.5208663E-04   5.3870815E+05   -1.8561470E+00
   1.5278899E-04   5.3412126E+05   -1.8556744E+00
   1.5349458E-04   5.2957459E+05   -1.8552009E+00
   1.5420343E-04   5.2506776E+05   -1.8547265E+00
   1.5491556E-04   5.2060043E+05   -1.8542511E+00
   1.5563098E-04   5.1617224E+05   -1.8537749E+00
   1.5634970E-04   5.1178283E+05   -1.8532977E+00
   1.5707174E-04   5.0743187E+05   -1.8528196E+00
   1.5779711E-04   5.0311901E+05   -1.8523406E+00
   1.5852584E-04   4.9884391E+05   -1.8518607E+00
   1.5925792E-04   4.9460623E+05   -1.8513799E+00
   1.5999339E-04   4.9040563E+05   -1.8508982E+00
   1.6073226E-04   4.8624179E+05   -1.8504156E+00
   1.6147454E-04   4.8211438E+05   -1.8499321E+00
   1.6222024E-04   4.7802307E+05   -1.8494477E+00
   1.6296939E-04   4.7396754E+05   -1.8489624E+00
   1.6372200E-04   4.6994746E+05   -1.8484762E+00
   1.6447809E-04   4.6596253E+05   -1.8479892E+00
   1.6523767E-04   4.6201242E+05   -1.8475013E+00
   1.6600075E-04   4.5809684E+05   -1.8470125E+00
   1.6676736E-04   4.5421546E+05   -1.8465228E+00
   1.6753751E-04   4.5036798E+05   -1.8460322E+00
   1.6831122E-04   4.4655411E+05   -1.8455408E+00
   1.6908849E-04   4.4277353E+05   -1.8450485E+00
   1.6986936E-04   4.3902596E+05   -1.8445554E+00
   1.7065384E-04   4.3531110E+05   -1.8440614E+00
   1.7144193E-04   4.3162865E+05   -1.8435665E+00
   1.7223367E-04   4.2797833E+05   -1.8430708E+00
   1.7302906E-04   4.2435986E+05   -1.8425742E+00
   1.7382813E-04   4.2077294E+05   -1.8420768E+00
   1.7463089E-04   4.1721730E+05   -1.8415785E+00
   1.7543735E-04   4.1369265E+05   -1.8410794E+00
   1.7624754E-04   4.1019872E+05   -1.8405794E+00
   1.7706147E-04   4.0673524E+05   -1.8400787E+00
   1.7787916E-04   4.0330194E+05   -1.8395770E+00
   1.7870062E-04   3.9989854E+05   -1.8390746E+00
   1.7952588E-04   3.9652478E+05   -1.8385713E+00
   1.8035495E-04   3.9318039E+05   -1.8380672E+00
   1.8118785E-04   3.8986512E+05   -1.8375623E+00
   1.8202459E-04   3.8657870E+05   -1.8370566E+00
   1.8286520E-04   3.8332088E+05   -1.8365500E+00
   1.8370969E-04   3.8009141E+05   -1.8360427E+00
   1.8455808E-04   3.7689002E+05   -1.8355345E+00
   1.8541039E-04   3.7371647E+05   -1.8350256E+00
   1.8626663E-04   3.7057052E+05   -1.8345158E+00
   1.8712683E-04   3.6745191E+05   -1.8340053E+00
   1.8799100E-04   3.6436040E+05   -1.8334939E+00
   1.8885917E-04   3.6129576E+05   -1.8329818E+00
   1.8973134E-04   3.5825774E+05   -1.8324689E+00
   1.9060754E-04   3.5524610E+05   -1.8319552E+00
   1.9148778E-04   3.5226062E+05   -1.8314407E+00
   1.9237209E-04   3.4930105E+05   -1.8309255E+00
   1.9326049E-04   3.4636718E+05   -1.8304095E+00
   1.9415299E-04   3.4345876E+05   -1.8298927E+00
   1.9504960E-04   3.4057557E+05   -1.8293751E+00
   1.9595036E-04   3.3771740E+05   -1.8288568E+00
   1.9685528E-04   3.3488401E+05   -1.8283378E+00
   1.9776438E-04   3.3207519E+05   -1.8278180E+00
   1.9867768E-04   3.2929071E+05   -1.8272974E+00
   1.9959519E-04   3.2653037E+05   -1.8267761E+00
   2.0051694E-04   3.2379395E+05   -1.8262541E+00
   2.0144295E-04   3.2108123E+05   -1.8257313E+00
   2.0237324E-04   3.1839200E+05   -1.8252078E+00
   2.0330782E-04   3.1572606E+05   -1.8246836E+00
   2.0424671E-04   3.1308320E+05   -1.8241587E+00
   2.0518995E-04   3.1046321E+05   -1.8236330E+00
   2.0613754E-04   3.0786589E+05   -1.8231066E+00
   2.0708950E-04   3.0529105E+05   -1.8225795E+00
   2.0804586E-04   3.0273847E+05   -1.8220518E+00
   2.0900664E-04   3.0020797E+05   -1.8215233E+00
   2.0997185E-04   2.9769934E+05   -1.8209941E+00
   2.1094152E-04   2.9521240E+05   -1.8204642E+00
   2.1191567E-04   2.9274695E+05   -1.8199336E+00
   2.1289432E-04   2.9030280E+05   -1.8194023E+00
   2.1387749E-04   2.8787976E+05   -1.8188704E+00
   2.1486520E-04   2.8547764E+05   -1.8183378E+00
   2.1585747E-04   2.8309627E+05   -1.8178045E+00
   2.1685432E-04   2.8073544E+05   -1.8172705E+00
   2.1785578E-04   2.7839499E+05   -1.8167359E+00
   2.1886186E-04   2.7607474E+05   -1.8162006E+00
   2.1987259E-04   2.7377449E+05   -1.8156647E+00
   2.2088798E-04   2.7149409E+05   -1.8151281E+00
   2.2190807E-04   2.6923334E+05   -1.8145909E+00
   2.2293286E-04   2.6699208E+05   -1.8140530E+00
   2.2396239E-04   2.6477014E+05   -1.8135145E+00
   2.2499667E-04   2.6256734E+05   -1.8129754E+00
   2.2603573E-04   2.6038351E+05   -1.8124357E+00
   2.2707958E-04   2.5821848E+05   -1.8118953E+00
   2.2812826E-04   2.5607210E+05   -1.8113543E+00
   2.2918178E-04   2.5394419E+05   -1.8108127E+00
   2.3024017E-04   2.5183460E+05   -1.8102705E+00
   2.3130344E-04   2.4974315E+05   -1.8097276E+00
   2.3237162E-04   2.4766969E+05   -1.8091842E+00
   2.3344474E-04   2.4561406E+05   -1.8086402E+00
   2.3452281E-04   2.4357610E+05   -1.8080956E+00
   2.3560586E-04   2.4155566E+05   -1.8075504E+00
   2.3669392E-04   2.3955259E+05   -1.8070047E+00
   2.3778699E-04   2.3756672E+05   -1.8064583E+00
   2.3888512E-04   2.3559790E+05   -1.8059114E+00
   2.3998831E-04   2.3364599E+05   -1.8053639E+00
   2.4109661E-04   2.3171084E+05   -1.8048159E+00
   2.4221001E-04   2.2979229E+05   -1.8042673E+00
   2.4332857E-04   2.2789021E+05   -1.8037182E+00
   2.4445228E-04   2.2600444E+05   -1.8031685E+00
   2.4558119E-04   2.2413485E+05   -1.8026183E+00
   2.4671531E-04   2.2228128E+05   -1.8020675E+00
   2.4785467E-04   2.2044361E+05   -1.8015163E+00
   2.4899928E-04   2.1862168E+05   -1.8009644E+00
   2.5014919E-04   2.1681536E+05   -1.8004121E+00
   2.5130440E-04   2.1502452E+05   -1.7998593E+00
   2.5246495E-04   2.1324900E+05   -1.7993059E+00
   2.5363086E-04   2.1148869E+05   -1.7987521E+00
   2.5480216E-04   2.0974345E+05   -1.7981977E+00
   2.5597886E-04   2.0801314E+05   -1.7976429E+00
   2.5716100E-04   2.0629763E+05   -1.7970876E+00
   2.5834859E-04   2.0459679E+05   -1.7965317E+00
   2.5954168E-04   2.0291050E+05   -1.7959755E+00
   2.6074027E-04   2.0123862E+05   -1.7954187E+00
   2.6194439E-04   1.9958102E+05   -1.7948615E+00
   2.6315408E-04   1.9793759E+05   -1.7943038E+00
   2.6436935E-04   1.9630820E+05   -1.7937456E+00
   2.6559024E-04   1.9469272E+05   -1.7931870E+00
   2.6681676E-04   1.9309103E+05   -1.7926280E+00
   2.6804895E-04   1.9150302E+05   -1.7920685E+00
   2.6928683E-04   1.8992855E+05   -1.7915086E+00
   2.7053042E-04   1.8836751E+05   -1.7909482E+00
   2.7177976E-04   1.8681979E+05   -1.7903875E+00
   2.7303487E-04   1.8528526E+05   -1.7898263E+00
   2.7429577E-04   1.8376381E+05   -1.7892647E+00
   2.7556250E-04   1.8225533E+05   -1.7887027E+00
   2.7683507E-04   1.8075969E+05   -1.7881403E+00
   2.7811353E-04   1.7927680E+05   -1.7875775E+00
   2.7939788E-04   1.7780653E+05   -1.7870143E+00
   2.8068817E-04   1.7634878E+05   -1.7864507E+00
   2.8198442E-04   1.7490343E+05   -1.7858867E+00
   2.8328665E-04   1.7347038E+05   -1.7853224E+00
   2.8459490E-04   1.7204952E+05   -1.7847577E+00
   2.8590919E-04   1.7064074E+05   -1.7841926E+00
   2.8722955E-04   1.6924394E+05   -1.7836272E+00
   2.8855600E-04   1.6785901E+05   -1.7830614E+00
   2.8988859E-04   1.6648585E+05   -1.7824953E+00
   2.9122732E-04   1.6512435E+05   -1.7819288E+00
   2.9257224E-04   1.6377441E+05   -1.7813620E+00
   2.9392337E-04   1.6243593E+05   -1.7807949E+00
   2.9528074E-04   1.6110881E+05   -1.7802275E+00
   2.9664438E-04   1.5979295E+05   -1.7796597E+00
   2.9801431E-04   1.5848826E+05   -1.7790917E+00
   2.9939057E-04   1.5719463E+05   -1.7785233E+00
   3.0077319E-04   1.5591196E+05   -1.7779546E+00
   3.0216219E-04   1.5464017E+05   -1.7773856E+00
   3.0355761E-04   1.5337916E+05   -1.7768164E+00
   3.0495947E-04   1.5212882E+05   -1.7762468E+00
   3.0636780E-04   1.5088908E+05   -1.7756770E+00
   3.0778264E-04   1.4965983E+05   -1.7751069E+00
   3.0920401E-04   1.4844098E+05   -1.7745366E+00
   3.1063195E-04   1.4723245E+05   -1.7739660E+00
   3.1206648E-04   1.4603414E+05   -1.7733951E+00
   3.1350764E-04   1.4484597E+05   -1.7728240E+00
   3.1495545E-04   1.4366784E+05   -1.7722527E+00
   3.1640994E-04   1.4249967E+05   -1.7716811E+00
   3.1787116E-04   1.4134137E+05   -1.7711093E+00
   3.1933912E-04   1.4019286E+05   -1.7705372E+00
   3.2081386E-04   1.3905404E+05   -1.7699650E+00
   3.2229541E-04   1.3792484E+05   -1.7693925E+00
   3.2378381E-04   1.3680517E+05   -1.7688198E+00
   3.2527908E-04   1.3569494E+05   -1.7682470E+00
   3.2678125E-04   1.3459408E+05   -1.7676739E+00
   3.2829036E-04   1.3350251E+05   -1.7671006E+00
   3.2980644E-04   1.3242014E+05   -1.7665272E+00
   3.3132952E-04   1.3134689E+05   -1.7659536E+00
   3.3285963E-04   1.3028268E+05   -1.7653798E+00
   3.3439681E-04   1.2922744E+05   -1.7648059E+00
   3.3594109E-04   1.2818108E+05   -1.7642318E+00
   3.3749250E-04   1.2714353E+05   -1.7636575E+00
   3.3905108E-04   1.2611472E+05   -1.7630831E+00
   3.4061685E-04   1.2509456E+05   -1.7625086E+00
   3.4218986E-04   1.2408298E+05   -1.7619339E+00
   3.4377013E-04   1.2307991E+05   -1.7613592E+00
   3.4535769E-04   1.2208526E+05   -1.7607842E+00
   3.4695259E-04   1.2109898E+05   -1.7602092E+00
   3.4855485E-04   1.2012099E+05   -1.7596341E+00
   3.5016452E-04   1.1915120E+05   -1.7590588E+00
   3.5178161E-04   1.1818956E+05   -1.7584835E+00
   3.5340618E-04   1.1723600E+05   -1.7579081E+00
   3.5503824E-04   1.1629043E+05   -1.7573325E+00
   3.5667785E-04   1.1535280E+05   -1.7567569E+00
   3.5832502E-04   1.1442303E+05   -1.7561813E+00
   3.5997981E-04   1.1350106E+05   -1.7556055E+00
   3.6164223E-04   1.1258681E+05   -1.7550298E+00
   3.6331233E-04   1.1168022E+05   -1.7544539E+00
   3.6499015E-04   1.1078123E+05   -1.7538780E+00
   3.6667571E-04   1.0988977E+05   -1.7533021E+00
   3.6836906E-04   1.0900576E+05   -1.7527261E+00
   3.7007022E-04   1.0812916E+05   -1.7521501E+00
   3.7177925E-04   1.0725989E+05   -1.7515741E+00
   3.7349616E-04   1.0639789E+05   -1.7509980E+00
   3.7522101E-04   1.0554310E+05   -1.7504220E+00
   3.7695382E-04   1.0469546E+05   -1.7498459E+00
   3.7869463E-04   1.0385490E+05   -1.7492699E+00
   3.8044348E-04   1.0302136E+05   -1.7486938E+00
   3.8220041E-04   1.0219478E+05   -1.7481178E+00
   3.8396545E-04   1.0137510E+05   -1.7475417E+00
   3.8573864E-04   1.0056226E+05   -1.7469658E+00
   3.8752002E-04   9.9756209E+04   -1.7463898E+00
   3.8930963E-04   9.8956878E+04   -1.7458139E+00
   3.9110750E-04   9.8164213E+04   -1.7452380E+00
   3.9291368E-04   9.7378155E+04   -1.7446621E+00
   3.9472820E-04   9.6598648E+04   -1.7440864E+00
   3.9655109E-04   9.5825635E+04   -1.7435106E+00
   3.9838241E-04   9.5059060E+04   -1.7429350E+00
   4.0022218E-04   9.4298868E+04   -1.7423594E+00
   4.0207045E-04   9.3545003E+04   -1.7417839E+00
   4.0392725E-04   9.2797411E+04   -1.7412085E+00
   4.0579263E-04   9.2056037E+04   -1.7406332E+00
   4.0766662E-04   9.1320829E+04   -1.7400580E+00
   4.0954927E-04   9.0591732E+04   -1.7394829E+00
   4.1144061E-04   8.9868694E+04   -1.7389079E+00
   4.1334068E-04   8.9151663E+04   -1.7383330E+00
   4.1524953E-04   8.8440588E+04   -1.7377582E+00
   4.1716720E-04   8.7735416E+04   -1.7371836E+00
   4.1909372E-04   8.7036097E+04   -1.7366091E+00
   4.2102914E-04   8.6342581E+04   -1.7360347E+00
   4.2297350E-04   8.5654818E+04   -1.7354605E+00
   4.2492683E-04   8.4972758E+04   -1.7348865E+00
   4.2688919E-04   8.4296352E+04   -1.7343126E+00
   4.2886061E-04   8.3625551E+04   -1.7337388E+00
   4.3084113E-04   8.2960308E+04   -1.7331653E+00
   4.3283080E-04   8.2300574E+04   -1.7325919E+00
   4.3482966E-04   8.1646302E+04   -1.7320187E+00
   4.3683775E-04   8.0997446E+04   -1.7314457E+00
   4.3885511E-04   8.0353958E+04   -1.7308728E+00
   4.4088179E-04   7.9715793E+04   -1.7303002E+00
   4.4291783E-04   7.9082904E+04   -1.7297278E+00
   4.4496327E-04   7.8455247E+04   -1.7291556E+00
   4.4701816E-04   7.7832777E+04   -1.7285836E+00
   4.4908253E-04   7.7215449E+04   -1.7280119E+00
   4.5115644E-04   7.6603219E+04   -1.7274403E+00
   4.5323993E-04   7.5996044E+04   -1.7268690E+00
   4.5533304E-04   7.5393879E+04   -1.7262980E+00
   4.5743582E-04   7.4796683E+04   -1.7257272E+00
   4.5954830E-04   7.4204412E+04   -1.7251566E+00
   4.6167054E-04   7.3617025E+04   -1.7245864E+00
   4.6380259E-04   7.3034479E+04   -1.7240163E+00
   4.6594448E-04   7.2456733E+04   -1.7234466E+00
   4.6809626E-04   7.1883746E+04   -1.7228771E+00
   4.7025797E-04   7.1315477E+04   -1.7223079E+00
   4.7242967E-04   7.0751886E+04   -1.7217390E+00
   4.7461140E-04   7.0192933E+04   -1.7211704E+00
   4.7680321E-04   6.9638578E+04   -1.7206021E+00
   4.7900514E-04   6.9088782E+04   -1.7200341E+00
   4.8121723E-04   6.8543506E+04   -1.7194665E+00
   4.8343954E-04   6.8002711E+04   -1.7188991E+00
   4.8567212E-04   6.7466360E+04   -1.7183320E+00
   4.8791500E-04   6.6934414E+04   -1.7177653E+00
   4.9016825E-04   6.6406835E+04   -1.7171990E+00
   4.9243189E-04   6.5883586E+04   -1.7166329E+00
   4.9470600E-04   6.5364631E+04   -1.7160672E+00
   4.9699060E-04   6.4849933E+04   -1.7155019E+00
   4.9928575E-04   6.4339454E+04   -1.7149369E+00
   5.0159151E-04   6.3833161E+04   -1.7143723E+00
   5.0390791E-04   6.3331016E+04   -1.7138081E+00
   5.0623501E-04   6.2832984E+04   -1.7132442E+00
   5.0857286E-04   6.2339031E+04   -1.7126807E+00
   5.1092150E-04   6.1849122E+04   -1.7121176E+00
   5.1328099E-04   6.1363221E+04   -1.7115549E+00
   5.1565137E-04   6.0881296E+04   -1.7109926E+00
   5.1803270E-04   6.0403313E+04   -1.7104307E+00
   5.2042503E-04   5.9929237E+04   -1.7098692E+00
   5.2282841E-04   5.9459035E+04   -1.7093081E+00
   5.2524289E-04   5.8992676E+04   -1.7087474E+00
   5.2766851E-04   5.8530125E+04   -1.7081872E+00
   5.3010534E-04   5.8071351E+04   -1.7076274E+00
   5.3255342E-04   5.7616321E+04   -1.7070680E+00
   5.3501281E-04   5.7165004E+04   -1.7065090E+00
   5.3748356E-04   5.6717368E+04   -1.7059505E+00
   5.3996571E-04   5.6273383E+04   -1.7053925E+00
   5.4245933E-04   5.5833016E+04   -1.7048349E+00
   5.4496446E-04   5.5396238E+04   -1.7042778E+00
   5.4748117E-04   5.4963018E+04   -1.7037212E+00
   5.5000949E-04   5.4533325E+04   -1.7031650E+00
   5.5254949E-04   5.4107130E+04   -1.7026093E+00
   5.5510123E-04   5.3684404E+04   -1.7020541E+00
   5.5766474E-04   5.3265116E+04   -1.7014993E+00
   5.6024010E-04   5.2849238E+04   -1.7009451E+00
   5.6282734E-04   5.2436741E+04   -1.7003914E+00
   5.6542654E-04   5.2027596E+04   -1.6998381E+00
   5.6803774E-04   5.1621776E+04   -1.6992854E+00
   5.7066099E-04   5.1219251E+04   -1.6987332E+00
   5.7329637E-04   5.0819994E+04   -1.6981815E+00
   5.7594391E-04   5.0423977E+04   -1.6976304E+00
   5.7860368E-04   5.0031173E+04   -1.6970797E+00
   5.8127573E-04   4.9641556E+04   -1.6965296E+00
   5.8396012E-04   4.9255097E+04   -1.6959801E+00
   5.8665691E-04   4.8871770E+04   -1.6954311E+00
   5.8936616E-04   4.8491549E+04   -1.6948826E+00
   5.9208791E-04   4.8114408E+04   -1.6943347E+00
   5.9482223E-04   4.7740320E+04   -1.6937874E+00
   5.9756919E-04   4.7369261E+04   -1.6932406E+00
   6.0032882E-04   4.7001203E+04   -1.6926944E+00
   6.0310120E-04   4.6636123E+04   -1.6921488E+00
   6.0588639E-04   4.6273995E+04   -1.6916037E+00
   6.0868443E-04   4.5914794E+04   -1.6910593E+00
   6.1149540E-04   4.5558495E+04   -1.6905154E+00
   6.1431935E-04   4.5205075E+04   -1.6899721E+00
   6.1715634E-04   4.4854509E+04   -1.6894294E+00
   6.2000644E-04   4.4506772E+04   -1.6888873E+00
   6.2286969E-04   4.4161842E+04   -1.6883459E+00
