#        a       HoverH0(a)       dlogHdloga_of_a(a)
   1.0000000E-04   1.1730396E+06   -1.8711280E+00
   1.0046181E-04   1.1629713E+06   -1.8706868E+00
   1.0092575E-04   1.1529917E+06   -1.8702445E+00
   1.0139184E-04   1.1431001E+06   -1.8698013E+00
   1.0186008E-04   1.1332957E+06   -1.8693572E+00
   1.0233048E-04   1.1235777E+06   -1.8689120E+00
   1.0280305E-04   1.1139453E+06   -1.8684659E+00
   1.0327781E-04   1.1043977E+06   -1.8680188E+00
   1.0375475E-04   1.0949343E+06   -1.8675707E+00
   1.0423390E-04   1.0855541E+06   -1.8671216E+00
   1.0471527E-04   1.0762566E+06   -1.8666716E+00
   1.0519885E-04   1.0670409E+06   -1.8662206E+00
   1.0568467E-04   1.0579063E+06   -1.8657686E+00
   1.0617274E-04   1.0488521E+06   -1.8653157E+00
   1.0666305E-04   1.0398776E+06   -1.8648618E+00
   1.0715563E-04   1.0309820E+06   -1.8644069E+00
   1.0765049E-04   1.0221647E+06   -1.8639511E+00
   1.0814763E-04   1.0134249E+06   -1.8634944E+00
   1.0864707E-04   1.0047619E+06   -1.8630366E+00
   1.0914881E-04   9.9617509E+05   -1.8625779E+00
   1.0965287E-04   9.8766376E+05   -1.8621183E+00
   1.1015926E-04   9.7922722E+05   -1.8616577E+00
   1.1066799E-04   9.7086481E+05   -1.8611962E+00
   1.1117906E-04   9.6257587E+05   -1.8607337E+00
   1.1169250E-04   9.5435972E+05   -1.8602703E+00
   1.1220831E-04   9.4621573E+05   -1.8598059E+00
   1.1272650E-04   9.3814325E+05   -1.8593406E+00
   1.1324708E-04   9.3014163E+05   -1.8588743E+00
   1.1377007E-04   9.2221024E+05   -1.8584071E+00
   1.1429547E-04   9.1434846E+05   -1.8579390E+00
   1.1482330E-04   9.0655565E+05   -1.8574700E+00
   1.1535356E-04   8.9883121E+05   -1.8570000E+00
   1.1588628E-04   8.9117451E+05   -1.8565291E+00
   1.1642145E-04   8.8358495E+05   -1.8560572E+00
   1.1695910E-04   8.7606194E+05   -1.8555845E+00
   1.1749923E-04   8.6860487E+05   -1.8551108E+00
   1.1804185E-04   8.6121316E+05   -1.8546362E+00
   1.1858698E-04   8.5388622E+05   -1.8541607E+00
   1.1913463E-04   8.4662347E+05   -1.8536842E+00
   1.1968481E-04   8.3942434E+05   -1.8532069E+00
   1.2023752E-04   8.3228826E+05   -1.8527286E+00
   1.2079279E-04   8.2521467E+05   -1.8522495E+00
   1.2135063E-04   8.1820300E+05   -1.8517694E+00
   1.2191104E-04   8.1125270E+05   -1.8512885E+00
   1.2247403E-04   8.0436323E+05   -1.8508066E+00
   1.2303963E-04   7.9753404E+05   -1.8503238E+00
   1.2360784E-04   7.9076459E+05   -1.8498402E+00
   1.2417868E-04   7.8405435E+05   -1.8493556E+00
   1.2475215E-04   7.7740278E+05   -1.8488702E+00
   1.2532826E-04   7.7080937E+05   -1.8483839E+00
   1.2590704E-04   7.6427360E+05   -1.8478967E+00
   1.2648850E-04   7.5779494E+05   -1.8474086E+00
   1.2707263E-04   7.5137290E+05   -1.8469196E+00
   1.2765947E-04   7.4500696E+05   -1.8464298E+00
   1.2824901E-04   7.3869662E+05   -1.8459391E+00
   1.2884128E-04   7.3244139E+05   -1.8454475E+00
   1.2943628E-04   7.2624078E+05   -1.8449551E+00
   1.3003403E-04   7.2009429E+05   -1.8444618E+00
   1.3063454E-04   7.1400145E+05   -1.8439676E+00
   1.3123783E-04   7.0796178E+05   -1.8434726E+00
   1.3184390E-04   7.0197479E+05   -1.8429768E+00
   1.3245277E-04   6.9604003E+05   -1.8424800E+00
   1.3306445E-04   6.9015702E+05   -1.8419825E+00
   1.3367895E-04   6.8432531E+05   -1.8414841E+00
   1.3429630E-04   6.7854443E+05   -1.8409848E+00
   1.3491649E-04   6.7281393E+05   -1.8404847E+00
   1.3553955E-04   6.6713337E+05   -1.8399838E+00
   1.3616548E-04   6.6150230E+05   -1.8394820E+00
   1.3679431E-04   6.5592028E+05   -1.8389794E+00
   1.3742604E-04   6.5038687E+05   -1.8384760E+00
   1.3806069E-04   6.4490163E+05   -1.8379718E+00
   1.3869827E-04   6.3946415E+05   -1.8374668E+00
   1.3933879E-04   6.3407399E+05   -1.8369609E+00
   1.3998227E-04   6.2873072E+05   -1.8364542E+00
   1.4062872E-04   6.2343394E+05   -1.8359467E+00
   1.4127816E-04   6.1818323E+05   -1.8354384E+00
   1.4193060E-04   6.1297818E+05   -1.8349293E+00
   1.4258605E-04   6.0781839E+05   -1.8344194E+00
   1.4324453E-04   6.0270344E+05   -1.8339088E+00
   1.4390605E-04   5.9763294E+05   -1.8333973E+00
   1.4457062E-04   5.9260650E+05   -1.8328850E+00
   1.4523826E-04   5.8762372E+05   -1.8323720E+00
   1.4590899E-04   5.8268422E+05   -1.8318582E+00
   1.4658281E-04   5.7778761E+05   -1.8313436E+00
   1.4725974E-04   5.7293351E+05   -1.8308282E+00
   1.4793981E-04   5.6812153E+05   -1.8303120E+00
   1.4862301E-04   5.6335131E+05   -1.8297951E+00
   1.4930936E-04   5.5862248E+05   -1.8292775E+00
   1.4999889E-04   5.5393466E+05   -1.8287591E+00
   1.5069160E-04   5.4928750E+05   -1.8282399E+00
   1.5138751E-04   5.4468062E+05   -1.8277200E+00
   1.5208663E-04   5.4011368E+05   -1.8271993E+00
   1.5278899E-04   5.3558631E+05   -1.8266779E+00
   1.5349458E-04   5.3109818E+05   -1.8261557E+00
   1.5420343E-04   5.2664892E+05   -1.8256328E+00
   1.5491556E-04   5.2223819E+05   -1.8251092E+00
   1.5563098E-04   5.1786565E+05   -1.8245849E+00
   1.5634970E-04   5.1353097E+05   -1.8240598E+00
   1.5707174E-04   5.0923380E+05   -1.8235340E+00
   1.5779711E-04   5.0497381E+05   -1.8230075E+00
   1.5852584E-04   5.0075067E+05   -1.8224803E+00
   1.5925792E-04   4.9656406E+05   -1.8219524E+00
   1.5999339E-04   4.9241365E+05   -1.8214238E+00
   1.6073226E-04   4.8829912E+05   -1.8208945E+00
   1.6147454E-04   4.8422016E+05   -1.8203645E+00
   1.6222024E-04   4.8017644E+05   -1.8198339E+00
   1.6296939E-04   4.7616765E+05   -1.8193025E+00
   1.6372200E-04   4.7219349E+05   -1.8187704E+00
   1.6447809E-04   4.6825365E+05   -1.8182377E+00
   1.6523767E-04   4.6434782E+05   -1.8177043E+00
   1.6600075E-04   4.6047570E+05   -1.8171703E+00
   1.6676736E-04   4.5663699E+05   -1.8166356E+00
   1.6753751E-04   4.5283140E+05   -1.8161002E+00
   1.6831122E-04   4.4905864E+05   -1.8155641E+00
   1.6908849E-04   4.4531841E+05   -1.8150275E+00
   1.6986936E-04   4.4161042E+05   -1.8144901E+00
   1.7065384E-04   4.3793440E+05   -1.8139522E+00
   1.7144193E-04   4.3429005E+05   -1.8134136E+00
   1.7223367E-04   4.3067709E+05   -1.8128744E+00
   1.7302906E-04   4.2709526E+05   -1.8123345E+00
   1.7382813E-04   4.2354427E+05   -1.8117940E+00
   1.7463089E-04   4.2002385E+05   -1.8112530E+00
   1.7543735E-04   4.1653373E+05   -1.8107113E+00
   1.7624754E-04   4.1307364E+05   -1.8101689E+00
   1.7706147E-04   4.0964332E+05   -1.8096260E+00
   1.7787916E-04   4.0624250E+05   -1.8090825E+00
   1.7870062E-04   4.0287093E+05   -1.8085384E+00
   1.7952588E-04   3.9952834E+05   -1.8079938E+00
   1.8035495E-04   3.9621447E+05   -1.8074485E+00
   1.8118785E-04   3.9292908E+05   -1.8069026E+00
   1.8202459E-04   3.8967192E+05   -1.8063562E+00
   1.8286520E-04   3.8644272E+05   -1.8058092E+00
   1.8370969E-04   3.8324126E+05   -1.8052617E+00
   1.8455808E-04   3.8006728E+05   -1.8047136E+00
   1.8541039E-04   3.7692053E+05   -1.8041649E+00
   1.8626663E-04   3.7380079E+05   -1.8036157E+00
   1.8712683E-04   3.7070780E+05   -1.8030659E+00
   1.8799100E-04   3.6764134E+05   -1.8025157E+00
   1.8885917E-04   3.6460117E+05   -1.8019648E+00
   1.8973134E-04   3.6158706E+05   -1.8014135E+00
   1.9060754E-04   3.5859877E+05   -1.8008616E+00
   1.9148778E-04   3.5563609E+05   -1.8003092E+00
   1.9237209E-04   3.5269878E+05   -1.7997563E+00
   1.9326049E-04   3.4978662E+05   -1.7992029E+00
   1.9415299E-04   3.4689940E+05   -1.7986490E+00
   1.9504960E-04   3.4403688E+05   -1.7980946E+00
   1.9595036E-04   3.4119886E+05   -1.7975397E+00
   1.9685528E-04   3.3838511E+05   -1.7969843E+00
   1.9776438E-04   3.3559543E+05   -1.7964284E+00
   1.9867768E-04   3.3282960E+05   -1.7958720E+00
   1.9959519E-04   3.3008741E+05   -1.7953152E+00
   2.0051694E-04   3.2736865E+05   -1.7947579E+00
   2.0144295E-04   3.2467312E+05   -1.7942002E+00
   2.0237324E-04   3.2200061E+05   -1.7936420E+00
   2.0330782E-04   3.1935092E+05   -1.7930833E+00
   2.0424671E-04   3.1672386E+05   -1.7925242E+00
   2.0518995E-04   3.1411921E+05   -1.7919647E+00
   2.0613754E-04   3.1153678E+05   -1.7914047E+00
   2.0708950E-04   3.0897639E+05   -1.7908444E+00
   2.0804586E-04   3.0643783E+05   -1.7902835E+00
   2.0900664E-04   3.0392091E+05   -1.7897223E+00
   2.0997185E-04   3.0142544E+05   -1.7891607E+00
   2.1094152E-04   2.9895124E+05   -1.7885986E+00
   2.1191567E-04   2.9649811E+05   -1.7880362E+00
   2.1289432E-04   2.9406588E+05   -1.7874733E+00
   2.1387749E-04   2.9165435E+05   -1.7869101E+00
   2.1486520E-04   2.8926335E+05   -1.7863465E+00
   2.1585747E-04   2.8689270E+05   -1.7857825E+00
   2.1685432E-04   2.8454222E+05   -1.7852181E+00
   2.1785578E-04   2.8221173E+05   -1.7846534E+00
   2.1886186E-04   2.7990105E+05   -1.7840883E+00
   2.1987259E-04   2.7761002E+05   -1.7835228E+00
   2.2088798E-04   2.7533845E+05   -1.7829570E+00
   2.2190807E-04   2.7308619E+05   -1.7823909E+00
   2.2293286E-04   2.7085306E+05   -1.7818244E+00
   2.2396239E-04   2.6863888E+05   -1.7812576E+00
   2.2499667E-04   2.6644351E+05   -1.7806904E+00
   2.2603573E-04   2.6426677E+05   -1.7801229E+00
   2.2707958E-04   2.6210849E+05   -1.7795552E+00
   2.2812826E-04   2.5996852E+05   -1.7789871E+00
   2.2918178E-04   2.5784670E+05   -1.7784187E+00
   2.3024017E-04   2.5574287E+05   -1.7778500E+00
   2.3130344E-04   2.5365687E+05   -1.7772810E+00
   2.3237162E-04   2.5158854E+05   -1.7767117E+00
   2.3344474E-04   2.4953773E+05   -1.7761422E+00
   2.3452281E-04   2.4750429E+05   -1.7755724E+00
   2.3560586E-04   2.4548807E+05   -1.7750023E+00
   2.3669392E-04   2.4348890E+05   -1.7744319E+00
   2.3778699E-04   2.4150666E+05   -1.7738613E+00
   2.3888512E-04   2.3954118E+05   -1.7732904E+00
   2.3998831E-04   2.3759232E+05   -1.7727193E+00
   2.4109661E-04   2.3565994E+05   -1.7721479E+00
   2.4221001E-04   2.3374389E+05   -1.7715764E+00
   2.4332857E-04   2.3184402E+05   -1.7710045E+00
   2.4445228E-04   2.2996021E+05   -1.7704325E+00
   2.4558119E-04   2.2809230E+05   -1.7698603E+00
   2.4671531E-04   2.2624017E+05   -1.7692878E+00
   2.4785467E-04   2.2440366E+05   -1.7687151E+00
   2.4899928E-04   2.2258265E+05   -1.7681423E+00
   2.5014919E-04   2.2077700E+05   -1.7675692E+00
   2.5130440E-04   2.1898658E+05   -1.7669960E+00
   2.5246495E-04   2.1721125E+05   -1.7664225E+00
   2.5363086E-04   2.1545088E+05   -1.7658489E+00
   2.5480216E-04   2.1370535E+05   -1.7652752E+00
   2.5597886E-04   2.1197451E+05   -1.7647013E+00
   2.5716100E-04   2.1025825E+05   -1.7641272E+00
   2.5834859E-04   2.0855644E+05   -1.7635529E+00
   2.5954168E-04   2.0686895E+05   -1.7629786E+00
   2.6074027E-04   2.0519566E+05   -1.7624041E+00
   2.6194439E-04   2.0353644E+05   -1.7618294E+00
   2.6315408E-04   2.0189117E+05   -1.7612546E+00
   2.6436935E-04   2.0025973E+05   -1.7606797E+00
   2.6559024E-04   1.9864200E+05   -1.7601047E+00
   2.6681676E-04   1.9703786E+05   -1.7595296E+00
   2.6804895E-04   1.9544719E+05   -1.7589544E+00
   2.6928683E-04   1.9386988E+05   -1.7583791E+00
   2.7053042E-04   1.9230581E+05   -1.7578037E+00
   2.7177976E-04   1.9075486E+05   -1.7572282E+00
   2.7303487E-04   1.8921692E+05   -1.7566527E+00
   2.7429577E-04   1.8769188E+05   -1.7560770E+00
   2.7556250E-04   1.8617963E+05   -1.7555013E+00
   2.7683507E-04   1.8468004E+05   -1.7549256E+00
   2.7811353E-04   1.8319303E+05   -1.7543498E+00
   2.7939788E-04   1.8171847E+05   -1.7537739E+00
   2.8068817E-04   1.8025625E+05   -1.7531980E+00
   2.8198442E-04   1.7880628E+05   -1.7526221E+00
   2.8328665E-04   1.7736844E+05   -1.7520462E+00
   2.8459490E-04   1.7594263E+05   -1.7514702E+00
   2.8590919E-04   1.7452874E+05   -1.7508942E+00
   2.8722955E-04   1.7312668E+05   -1.7503182E+00
   2.8855600E-04   1.7173633E+05   -1.7497422E+00
   2.8988859E-04   1.7035760E+05   -1.7491662E+00
   2.9122732E-04   1.6899039E+05   -1.7485902E+00
   2.9257224E-04   1.6763460E+05   -1.7480142E+00
   2.9392337E-04   1.6629012E+05   -1.7474382E+00
   2.9528074E-04   1.6495687E+05   -1.7468623E+00
   2.9664438E-04   1.6363474E+05   -1.7462864E+00
   2.9801431E-04   1.6232364E+05   -1.7457105E+00
   2.9939057E-04   1.6102347E+05   -1.7451347E+00
   3.0077319E-04   1.5973414E+05   -1.7445589E+00
   3.0216219E-04   1.5845555E+05   -1.7439832E+00
   3.0355761E-04   1.5718761E+05   -1.7434076E+00
   3.0495947E-04   1.5593024E+05   -1.7428320E+00
   3.0636780E-04   1.5468333E+05   -1.7422565E+00
   3.0778264E-04   1.5344680E+05   -1.7416811E+00
   3.0920401E-04   1.5222055E+05   -1.7411057E+00
   3.1063195E-04   1.5100451E+05   -1.7405305E+00
   3.1206648E-04   1.4979858E+05   -1.7399554E+00
   3.1350764E-04   1.4860267E+05   -1.7393803E+00
   3.1495545E-04   1.4741670E+05   -1.7388054E+00
   3.1640994E-04   1.4624058E+05   -1.7382306E+00
   3.1787116E-04   1.4507423E+05   -1.7376559E+00
   3.1933912E-04   1.4391757E+05   -1.7370814E+00
   3.2081386E-04   1.4277050E+05   -1.7365070E+00
   3.2229541E-04   1.4163295E+05   -1.7359327E+00
   3.2378381E-04   1.4050484E+05   -1.7353586E+00
   3.2527908E-04   1.3938608E+05   -1.7347846E+00
   3.2678125E-04   1.3827659E+05   -1.7342108E+00
   3.2829036E-04   1.3717630E+05   -1.7336371E+00
   3.2980644E-04   1.3608512E+05   -1.7330637E+00
   3.3132952E-04   1.3500298E+05   -1.7324904E+00
   3.3285963E-04   1.3392980E+05   -1.7319173E+00
   3.3439681E-04   1.3286550E+05   -1.7313443E+00
   3.3594109E-04   1.3181001E+05   -1.7307716E+00
   3.3749250E-04   1.3076324E+05   -1.7301991E+00
   3.3905108E-04   1.2972513E+05   -1.7296268E+00
   3.4061685E-04   1.2869560E+05   -1.7290547E+00
   3.4218986E-04   1.2767458E+05   -1.7284828E+00
   3.4377013E-04   1.2666200E+05   -1.7279112E+00
   3.4535769E-04   1.2565777E+05   -1.7273398E+00
   3.4695259E-04   1.2466183E+05   -1.7267686E+00
   3.4855485E-04   1.2367412E+05   -1.7261976E+00
   3.5016452E-04   1.2269455E+05   -1.7256270E+00
   3.5178161E-04   1.2172306E+05   -1.7250565E+00
   3.5340618E-04   1.2075958E+05   -1.7244864E+00
   3.5503824E-04   1.1980404E+05   -1.7239165E+00
   3.5667785E-04   1.1885637E+05   -1.7233468E+00
   3.5832502E-04   1.1791651E+05   -1.7227775E+00
   3.5997981E-04   1.1698439E+05   -1.7222084E+00
   3.6164223E-04   1.1605994E+05   -1.7216396E+00
   3.6331233E-04   1.1514310E+05   -1.7210712E+00
   3.6499015E-04   1.1423380E+05   -1.7205030E+00
   3.6667571E-04   1.1333197E+05   -1.7199351E+00
   3.6836906E-04   1.1243757E+05   -1.7193676E+00
   3.7007022E-04   1.1155051E+05   -1.7188003E+00
   3.7177925E-04   1.1067073E+05   -1.7182334E+00
   3.7349616E-04   1.0979819E+05   -1.7176669E+00
   3.7522101E-04   1.0893280E+05   -1.7171006E+00
   3.7695382E-04   1.0807452E+05   -1.7165347E+00
   3.7869463E-04   1.0722329E+05   -1.7159692E+00
   3.8044348E-04   1.0637903E+05   -1.7154040E+00
   3.8220041E-04   1.0554169E+05   -1.7148391E+00
   3.8396545E-04   1.0471122E+05   -1.7142747E+00
   3.8573864E-04   1.0388756E+05   -1.7137106E+00
   3.8752002E-04   1.0307064E+05   -1.7131468E+00
   3.8930963E-04   1.0226041E+05   -1.7125835E+00
   3.9110750E-04   1.0145681E+05   -1.7120205E+00
   3.9291368E-04   1.0065979E+05   -1.7114580E+00
   3.9472820E-04   9.9869286E+04   -1.7108958E+00
   3.9655109E-04   9.9085249E+04   -1.7103341E+00
   3.9838241E-04   9.8307621E+04   -1.7097727E+00
   4.0022218E-04   9.7536348E+04   -1.7092118E+00
   4.0207045E-04   9.6771376E+04   -1.7086513E+00
   4.0392725E-04   9.6012652E+04   -1.7080912E+00
   4.0579263E-04   9.5260123E+04   -1.7075315E+00
   4.0766662E-04   9.4513735E+04   -1.7069723E+00
   4.0954927E-04   9.3773437E+04   -1.7064135E+00
   4.1144061E-04   9.3039176E+04   -1.7058552E+00
   4.1334068E-04   9.2310903E+04   -1.7052973E+00
   4.1524953E-04   9.1588565E+04   -1.7047399E+00
   4.1716720E-04   9.0872113E+04   -1.7041830E+00
   4.1909372E-04   9.0161497E+04   -1.7036265E+00
   4.2102914E-04   8.9456666E+04   -1.7030705E+00
   4.2297350E-04   8.8757574E+04   -1.7025150E+00
   4.2492683E-04   8.8064169E+04   -1.7019599E+00
   4.2688919E-04   8.7376406E+04   -1.7014054E+00
   4.2886061E-04   8.6694235E+04   -1.7008513E+00
   4.3084113E-04   8.6017609E+04   -1.7002978E+00
   4.3283080E-04   8.5346482E+04   -1.6997447E+00
   4.3482966E-04   8.4680807E+04   -1.6991922E+00
   4.3683775E-04   8.4020538E+04   -1.6986401E+00
   4.3885511E-04   8.3365628E+04   -1.6980886E+00
   4.4088179E-04   8.2716034E+04   -1.6975377E+00
   4.4291783E-04   8.2071710E+04   -1.6969872E+00
   4.4496327E-04   8.1432611E+04   -1.6964373E+00
   4.4701816E-04   8.0798693E+04   -1.6958880E+00
   4.4908253E-04   8.0169913E+04   -1.6953391E+00
   4.5115644E-04   7.9546227E+04   -1.6947909E+00
   4.5323993E-04   7.8927593E+04   -1.6942432E+00
   4.5533304E-04   7.8313967E+04   -1.6936960E+00
   4.5743582E-04   7.7705308E+04   -1.6931494E+00
   4.5954830E-04   7.7101573E+04   -1.6926034E+00
   4.6167054E-04   7.6502721E+04   -1.6920580E+00
   4.6380259E-04   7.5908712E+04   -1.6915131E+00
   4.6594448E-04   7.5319503E+04   -1.6909689E+00
   4.6809626E-04   7.4735055E+04   -1.6904252E+00
   4.7025797E-04   7.4155328E+04   -1.6898821E+00
   4.7242967E-04   7.3580282E+04   -1.6893396E+00
   4.7461140E-04   7.3009878E+04   -1.6887978E+00
   4.7680321E-04   7.2444076E+04   -1.6882565E+00
   4.7900514E-04   7.1882838E+04   -1.6877159E+00
   4.8121723E-04   7.1326126E+04   -1.6871758E+00
   4.8343954E-04   7.0773902E+04   -1.6866364E+00
   4.8567212E-04   7.0226127E+04   -1.6860976E+00
   4.8791500E-04   6.9682765E+04   -1.6855595E+00
   4.9016825E-04   6.9143778E+04   -1.6850220E+00
   4.9243189E-04   6.8609130E+04   -1.6844851E+00
   4.9470600E-04   6.8078785E+04   -1.6839489E+00
   4.9699060E-04   6.7552706E+04   -1.6834133E+00
   4.9928575E-04   6.7030857E+04   -1.6828784E+00
   5.0159151E-04   6.6513204E+04   -1.6823442E+00
   5.0390791E-04   6.5999710E+04   -1.6818106E+00
   5.0623501E-04   6.5490342E+04   -1.6812777E+00
   5.0857286E-04   6.4985064E+04   -1.6807454E+00
   5.1092150E-04   6.4483843E+04   -1.6802139E+00
   5.1328099E-04   6.3986644E+04   -1.6796830E+00
   5.1565137E-04   6.3493435E+04   -1.6791528E+00
   5.1803270E-04   6.3004180E+04   -1.6786233E+00
   5.2042503E-04   6.2518848E+04   -1.6780945E+00
   5.2282841E-04   6.2037406E+04   -1.6775664E+00
   5.2524289E-04   6.1559821E+04   -1.6770390E+00
   5.2766851E-04   6.1086060E+04   -1.6765123E+00
   5.3010534E-04   6.0616093E+04   -1.6759863E+00
   5.3255342E-04   6.0149887E+04   -1.6754610E+00
   5.3501281E-04   5.9687411E+04   -1.6749364E+00
   5.3748356E-04   5.9228634E+04   -1.6744126E+00
   5.3996571E-04   5.8773525E+04   -1.6738895E+00
   5.4245933E-04   5.8322054E+04   -1.6733672E+00
   5.4496446E-04   5.7874190E+04   -1.6728455E+00
   5.4748117E-04   5.7429903E+04   -1.6723246E+00
   5.5000949E-04   5.6989163E+04   -1.6718045E+00
   5.5254949E-04   5.6551941E+04   -1.6712851E+00
   5.5510123E-04   5.6118208E+04   -1.6707664E+00
   5.5766474E-04   5.5687934E+04   -1.6702485E+00
   5.6024010E-04   5.5261092E+04   -1.6697314E+00
   5.6282734E-04   5.4837651E+04   -1.6692150E+00
   5.6542654E-04   5.4417584E+04   -1.6686994E+00
   5.6803774E-04   5.4000864E+04   -1.6681846E+00
   5.7066099E-04   5.3587461E+04   -1.6676706E+00
   5.7329637E-04   5.3177349E+04   -1.6671573E+00
   5.7594391E-04   5.2770501E+04   -1.6666448E+00
   5.7860368E-04   5.2366888E+04   -1.6661331E+00
   5.8127573E-04   5.1966486E+04   -1.6656221E+00
   5.8396012E-04   5.1569266E+04   -1.6651120E+00
   5.8665691E-04   5.1175202E+04   -1.6646027E+00
   5.8936616E-04   5.0784269E+04   -1.6640941E+00
   5.9208791E-04   5.0396440E+04   -1.6635864E+00
   5.9482223E-04   5.0011690E+04   -1.6630795E+00
   5.9756919E-04   4.9629993E+04   -1.6625734E+00
   6.0032882E-04   4.9251324E+04   -1.6620681E+00
   6.0310120E-04   4.8875658E+04   -1.6615636E+00
   6.0588639E-04   4.8502970E+04   -1.6610599E+00
   6.0868443E-04   4.8133235E+04   -1.6605571E+00
   6.1149540E-04   4.7766429E+04   -1.6600551E+00
   6.1431935E-04   4.7402529E+04   -1.6595539E+00
   6.1715634E-04   4.7041509E+04   -1.6590536E+00
   6.2000644E-04   4.6683346E+04   -1.6585540E+00
   6.2286969E-04   4.6328017E+04   -1.6580554E+00
