#        a       HoverH0(a)       dlogHdloga_of_a(a)
   1.0000000E-04   1.1211179E+06   -1.8779532E+00
   1.0046181E-04   1.1114602E+06   -1.8775276E+00
   1.0092575E-04   1.1018879E+06   -1.8771010E+00
   1.0139184E-04   1.0924002E+06   -1.8766735E+00
   1.0186008E-04   1.0829963E+06   -1.8762449E+00
   1.0233048E-04   1.0736755E+06   -1.8758153E+00
   1.0280305E-04   1.0644370E+06   -1.8753847E+00
   1.0327781E-04   1.0552801E+06   -1.8749531E+00
   1.0375475E-04   1.0462040E+06   -1.8745206E+00
   1.0423390E-04   1.0372081E+06   -1.8740870E+00
   1.0471527E-04   1.0282916E+06   -1.8736525E+00
   1.0519885E-04   1.0194538E+06   -1.8732169E+00
   1.0568467E-04   1.0106940E+06   -1.8727804E+00
   1.0617274E-04   1.0020114E+06   -1.8723428E+00
   1.0666305E-04   9.9340549E+05   -1.8719043E+00
   1.0715563E-04   9.8487545E+05   -1.8714648E+00
   1.0765049E-04   9.7642064E+05   -1.8710243E+00
   1.0814763E-04   9.6804038E+05   -1.8705829E+00
   1.0864707E-04   9.5973400E+05   -1.8701404E+00
   1.0914881E-04   9.5150083E+05   -1.8696970E+00
   1.0965287E-04   9.4334022E+05   -1.8692526E+00
   1.1015926E-04   9.3525152E+05   -1.8688072E+00
   1.1066799E-04   9.2723408E+05   -1.8683608E+00
   1.1117906E-04   9.1928726E+05   -1.8679135E+00
   1.1169250E-04   9.1141043E+05   -1.8674651E+00
   1.1220831E-04   9.0360296E+05   -1.8670158E+00
   1.1272650E-04   8.9586422E+05   -1.8665656E+00
   1.1324708E-04   8.8819361E+05   -1.8661144E+00
   1.1377007E-04   8.8059051E+05   -1.8656622E+00
   1.1429547E-04   8.7305432E+05   -1.8652090E+00
   1.1482330E-04   8.6558443E+05   -1.8647549E+00
   1.1535356E-04   8.5818025E+05   -1.8642998E+00
   1.1588628E-04   8.5084119E+05   -1.8638438E+00
   1.1642145E-04   8.4356667E+05   -1.8633868E+00
   1.1695910E-04   8.3635611E+05   -1.8629288E+00
   1.1749923E-04   8.2920893E+05   -1.8624699E+00
   1.1804185E-04   8.2212457E+05   -1.8620100E+00
   1.1858698E-04   8.1510246E+05   -1.8615492E+00
   1.1913463E-04   8.0814205E+05   -1.8610875E+00
   1.1968481E-04   8.0124278E+05   -1.8606247E+00
   1.2023752E-04   7.9440411E+05   -1.8601611E+00
   1.2079279E-04   7.8762549E+05   -1.8596965E+00
   1.2135063E-04   7.8090639E+05   -1.8592310E+00
   1.2191104E-04   7.7424627E+05   -1.8587645E+00
   1.2247403E-04   7.6764460E+05   -1.8582971E+00
   1.2303963E-04   7.6110087E+05   -1.8578287E+00
   1.2360784E-04   7.5461454E+05   -1.8573594E+00
   1.2417868E-04   7.4818511E+05   -1.8568892E+00
   1.2475215E-04   7.4181207E+05   -1.8564181E+00
   1.2532826E-04   7.3549492E+05   -1.8559461E+00
   1.2590704E-04   7.2923315E+05   -1.8554731E+00
   1.2648850E-04   7.2302626E+05   -1.8549992E+00
   1.2707263E-04   7.1687377E+05   -1.8545243E+00
   1.2765947E-04   7.1077519E+05   -1.8540486E+00
   1.2824901E-04   7.0473005E+05   -1.8535720E+00
   1.2884128E-04   6.9873785E+05   -1.8530944E+00
   1.2943628E-04   6.9279813E+05   -1.8526159E+00
   1.3003403E-04   6.8691041E+05   -1.8521366E+00
   1.3063454E-04   6.8107424E+05   -1.8516563E+00
   1.3123783E-04   6.7528915E+05   -1.8511751E+00
   1.3184390E-04   6.6955468E+05   -1.8506930E+00
   1.3245277E-04   6.6387038E+05   -1.8502101E+00
   1.3306445E-04   6.5823581E+05   -1.8497262E+00
   1.3367895E-04   6.5265052E+05   -1.8492414E+00
   1.3429630E-04   6.4711407E+05   -1.8487558E+00
   1.3491649E-04   6.4162602E+05   -1.8482693E+00
   1.3553955E-04   6.3618594E+05   -1.8477818E+00
   1.3616548E-04   6.3079340E+05   -1.8472936E+00
   1.3679431E-04   6.2544798E+05   -1.8468044E+00
   1.3742604E-04   6.2014926E+05   -1.8463144E+00
   1.3806069E-04   6.1489682E+05   -1.8458234E+00
   1.3869827E-04   6.0969024E+05   -1.8453317E+00
   1.3933879E-04   6.0452912E+05   -1.8448390E+00
   1.3998227E-04   5.9941306E+05   -1.8443455E+00
   1.4062872E-04   5.9434164E+05   -1.8438512E+00
   1.4127816E-04   5.8931447E+05   -1.8433559E+00
   1.4193060E-04   5.8433116E+05   -1.8428599E+00
   1.4258605E-04   5.7939131E+05   -1.8423629E+00
   1.4324453E-04   5.7449454E+05   -1.8418652E+00
   1.4390605E-04   5.6964046E+05   -1.8413665E+00
   1.4457062E-04   5.6482870E+05   -1.8408671E+00
   1.4523826E-04   5.6005887E+05   -1.8403668E+00
   1.4590899E-04   5.5533060E+05   -1.8398657E+00
   1.4658281E-04   5.5064353E+05   -1.8393637E+00
   1.4725974E-04   5.4599727E+05   -1.8388609E+00
   1.4793981E-04   5.4139148E+05   -1.8383573E+00
   1.4862301E-04   5.3682578E+05   -1.8378529E+00
   1.4930936E-04   5.3229983E+05   -1.8373476E+00
   1.4999889E-04   5.2781326E+05   -1.8368416E+00
   1.5069160E-04   5.2336573E+05   -1.8363347E+00
   1.5138751E-04   5.1895689E+05   -1.8358270E+00
   1.5208663E-04   5.1458640E+05   -1.8353186E+00
   1.5278899E-04   5.1025391E+05   -1.8348093E+00
   1.5349458E-04   5.0595908E+05   -1.8342992E+00
   1.5420343E-04   5.0170158E+05   -1.8337883E+00
   1.5491556E-04   4.9748109E+05   -1.8332767E+00
   1.5563098E-04   4.9329726E+05   -1.8327642E+00
   1.5634970E-04   4.8914977E+05   -1.8322510E+00
   1.5707174E-04   4.8503830E+05   -1.8317370E+00
   1.5779711E-04   4.8096252E+05   -1.8312222E+00
   1.5852584E-04   4.7692213E+05   -1.8307066E+00
   1.5925792E-04   4.7291681E+05   -1.8301903E+00
   1.5999339E-04   4.6894624E+05   -1.8296732E+00
   1.6073226E-04   4.6501011E+05   -1.8291553E+00
   1.6147454E-04   4.6110812E+05   -1.8286367E+00
   1.6222024E-04   4.5723997E+05   -1.8281174E+00
   1.6296939E-04   4.5340536E+05   -1.8275973E+00
   1.6372200E-04   4.4960398E+05   -1.8270764E+00
   1.6447809E-04   4.4583554E+05   -1.8265548E+00
   1.6523767E-04   4.4209975E+05   -1.8260325E+00
   1.6600075E-04   4.3839632E+05   -1.8255094E+00
   1.6676736E-04   4.3472497E+05   -1.8249857E+00
   1.6753751E-04   4.3108539E+05   -1.8244611E+00
   1.6831122E-04   4.2747733E+05   -1.8239359E+00
   1.6908849E-04   4.2390049E+05   -1.8234100E+00
   1.6986936E-04   4.2035459E+05   -1.8228833E+00
   1.7065384E-04   4.1683937E+05   -1.8223559E+00
   1.7144193E-04   4.1335455E+05   -1.8218278E+00
   1.7223367E-04   4.0989987E+05   -1.8212991E+00
   1.7302906E-04   4.0647504E+05   -1.8207696E+00
   1.7382813E-04   4.0307982E+05   -1.8202394E+00
   1.7463089E-04   3.9971393E+05   -1.8197086E+00
   1.7543735E-04   3.9637712E+05   -1.8191771E+00
   1.7624754E-04   3.9306913E+05   -1.8186448E+00
   1.7706147E-04   3.8978971E+05   -1.8181120E+00
   1.7787916E-04   3.8653859E+05   -1.8175784E+00
   1.7870062E-04   3.8331553E+05   -1.8170442E+00
   1.7952588E-04   3.8012028E+05   -1.8165093E+00
   1.8035495E-04   3.7695260E+05   -1.8159738E+00
   1.8118785E-04   3.7381224E+05   -1.8154376E+00
   1.8202459E-04   3.7069895E+05   -1.8149008E+00
   1.8286520E-04   3.6761251E+05   -1.8143633E+00
   1.8370969E-04   3.6455266E+05   -1.8138252E+00
   1.8455808E-04   3.6151919E+05   -1.8132864E+00
   1.8541039E-04   3.5851184E+05   -1.8127470E+00
   1.8626663E-04   3.5553040E+05   -1.8122070E+00
   1.8712683E-04   3.5257462E+05   -1.8116664E+00
   1.8799100E-04   3.4964430E+05   -1.8111252E+00
   1.8885917E-04   3.4673919E+05   -1.8105833E+00
   1.8973134E-04   3.4385908E+05   -1.8100409E+00
   1.9060754E-04   3.4100374E+05   -1.8094978E+00
   1.9148778E-04   3.3817296E+05   -1.8089542E+00
   1.9237209E-04   3.3536652E+05   -1.8084099E+00
   1.9326049E-04   3.3258421E+05   -1.8078651E+00
   1.9415299E-04   3.2982580E+05   -1.8073197E+00
   1.9504960E-04   3.2709110E+05   -1.8067737E+00
   1.9595036E-04   3.2437989E+05   -1.8062271E+00
   1.9685528E-04   3.2169196E+05   -1.8056800E+00
   1.9776438E-04   3.1902711E+05   -1.8051323E+00
   1.9867768E-04   3.1638513E+05   -1.8045841E+00
   1.9959519E-04   3.1376583E+05   -1.8040353E+00
   2.0051694E-04   3.1116899E+05   -1.8034859E+00
   2.0144295E-04   3.0859443E+05   -1.8029360E+00
   2.0237324E-04   3.0604195E+05   -1.8023856E+00
   2.0330782E-04   3.0351135E+05   -1.8018347E+00
   2.0424671E-04   3.0100244E+05   -1.8012832E+00
   2.0518995E-04   2.9851503E+05   -1.8007312E+00
   2.0613754E-04   2.9604893E+05   -1.8001786E+00
   2.0708950E-04   2.9360394E+05   -1.7996256E+00
   2.0804586E-04   2.9117990E+05   -1.7990721E+00
   2.0900664E-04   2.8877660E+05   -1.7985180E+00
   2.0997185E-04   2.8639387E+05   -1.7979635E+00
   2.1094152E-04   2.8403153E+05   -1.7974085E+00
   2.1191567E-04   2.8168939E+05   -1.7968530E+00
   2.1289432E-04   2.7936728E+05   -1.7962970E+00
   2.1387749E-04   2.7706502E+05   -1.7957405E+00
   2.1486520E-04   2.7478245E+05   -1.7951836E+00
   2.1585747E-04   2.7251937E+05   -1.7946262E+00
   2.1685432E-04   2.7027563E+05   -1.7940683E+00
   2.1785578E-04   2.6805105E+05   -1.7935100E+00
   2.1886186E-04   2.6584547E+05   -1.7929512E+00
   2.1987259E-04   2.6365871E+05   -1.7923920E+00
   2.2088798E-04   2.6149062E+05   -1.7918324E+00
   2.2190807E-04   2.5934102E+05   -1.7912723E+00
   2.2293286E-04   2.5720975E+05   -1.7907118E+00
   2.2396239E-04   2.5509667E+05   -1.7901509E+00
   2.2499667E-04   2.5300159E+05   -1.7895895E+00
   2.2603573E-04   2.5092437E+05   -1.7890278E+00
   2.2707958E-04   2.4886485E+05   -1.7884656E+00
   2.2812826E-04   2.4682287E+05   -1.7879031E+00
   2.2918178E-04   2.4479828E+05   -1.7873401E+00
   2.3024017E-04   2.4279093E+05   -1.7867768E+00
   2.3130344E-04   2.4080067E+05   -1.7862131E+00
   2.3237162E-04   2.3882734E+05   -1.7856490E+00
   2.3344474E-04   2.3687079E+05   -1.7850845E+00
   2.3452281E-04   2.3493089E+05   -1.7845197E+00
   2.3560586E-04   2.3300748E+05   -1.7839545E+00
   2.3669392E-04   2.3110042E+05   -1.7833890E+00
   2.3778699E-04   2.2920957E+05   -1.7828231E+00
   2.3888512E-04   2.2733478E+05   -1.7822569E+00
   2.3998831E-04   2.2547591E+05   -1.7816903E+00
   2.4109661E-04   2.2363283E+05   -1.7811234E+00
   2.4221001E-04   2.2180539E+05   -1.7805561E+00
   2.4332857E-04   2.1999346E+05   -1.7799886E+00
   2.4445228E-04   2.1819690E+05   -1.7794207E+00
   2.4558119E-04   2.1641558E+05   -1.7788526E+00
   2.4671531E-04   2.1464936E+05   -1.7782841E+00
   2.4785467E-04   2.1289812E+05   -1.7777153E+00
   2.4899928E-04   2.1116172E+05   -1.7771463E+00
   2.5014919E-04   2.0944003E+05   -1.7765769E+00
   2.5130440E-04   2.0773292E+05   -1.7760073E+00
   2.5246495E-04   2.0604027E+05   -1.7754374E+00
   2.5363086E-04   2.0436195E+05   -1.7748672E+00
   2.5480216E-04   2.0269782E+05   -1.7742968E+00
   2.5597886E-04   2.0104778E+05   -1.7737261E+00
   2.5716100E-04   1.9941170E+05   -1.7731552E+00
   2.5834859E-04   1.9778945E+05   -1.7725840E+00
   2.5954168E-04   1.9618091E+05   -1.7720126E+00
   2.6074027E-04   1.9458597E+05   -1.7714409E+00
   2.6194439E-04   1.9300450E+05   -1.7708690E+00
   2.6315408E-04   1.9143639E+05   -1.7702969E+00
   2.6436935E-04   1.8988153E+05   -1.7697246E+00
   2.6559024E-04   1.8833978E+05   -1.7691521E+00
   2.6681676E-04   1.8681105E+05   -1.7685794E+00
   2.6804895E-04   1.8529522E+05   -1.7680065E+00
   2.6928683E-04   1.8379217E+05   -1.7674334E+00
   2.7053042E-04   1.8230179E+05   -1.7668601E+00
   2.7177976E-04   1.8082398E+05   -1.7662866E+00
   2.7303487E-04   1.7935862E+05   -1.7657129E+00
   2.7429577E-04   1.7790561E+05   -1.7651391E+00
   2.7556250E-04   1.7646483E+05   -1.7645652E+00
   2.7683507E-04   1.7503619E+05   -1.7639910E+00
   2.7811353E-04   1.7361957E+05   -1.7634168E+00
   2.7939788E-04   1.7221487E+05   -1.7628423E+00
   2.8068817E-04   1.7082199E+05   -1.7622678E+00
   2.8198442E-04   1.6944082E+05   -1.7616931E+00
   2.8328665E-04   1.6807127E+05   -1.7611183E+00
   2.8459490E-04   1.6671323E+05   -1.7605434E+00
   2.8590919E-04   1.6536660E+05   -1.7599683E+00
   2.8722955E-04   1.6403128E+05   -1.7593932E+00
   2.8855600E-04   1.6270717E+05   -1.7588179E+00
   2.8988859E-04   1.6139418E+05   -1.7582426E+00
   2.9122732E-04   1.6009221E+05   -1.7576672E+00
   2.9257224E-04   1.5880117E+05   -1.7570916E+00
   2.9392337E-04   1.5752095E+05   -1.7565161E+00
   2.9528074E-04   1.5625147E+05   -1.7559404E+00
   2.9664438E-04   1.5499263E+05   -1.7553647E+00
   2.9801431E-04   1.5374434E+05   -1.7547889E+00
   2.9939057E-04   1.5250651E+05   -1.7542131E+00
   3.0077319E-04   1.5127905E+05   -1.7536372E+00
   3.0216219E-04   1.5006186E+05   -1.7530613E+00
   3.0355761E-04   1.4885486E+05   -1.7524853E+00
   3.0495947E-04   1.4765796E+05   -1.7519094E+00
   3.0636780E-04   1.4647108E+05   -1.7513334E+00
   3.0778264E-04   1.4529412E+05   -1.7507574E+00
   3.0920401E-04   1.4412700E+05   -1.7501813E+00
   3.1063195E-04   1.4296964E+05   -1.7496053E+00
   3.1206648E-04   1.4182194E+05   -1.7490293E+00
   3.1350764E-04   1.4068383E+05   -1.7484533E+00
   3.1495545E-04   1.3955523E+05   -1.7478773E+00
   3.1640994E-04   1.3843605E+05   -1.7473013E+00
   3.1787116E-04   1.3732620E+05   -1.7467254E+00
   3.1933912E-04   1.3622562E+05   -1.7461495E+00
   3.2081386E-04   1.3513421E+05   -1.7455736E+00
   3.2229541E-04   1.3405191E+05   -1.7449978E+00
   3.2378381E-04   1.3297863E+05   -1.7444220E+00
   3.2527908E-04   1.3191428E+05   -1.7438463E+00
   3.2678125E-04   1.3085881E+05   -1.7432707E+00
   3.2829036E-04   1.2981212E+05   -1.7426951E+00
   3.2980644E-04   1.2877415E+05   -1.7421196E+00
   3.3132952E-04   1.2774482E+05   -1.7415442E+00
   3.3285963E-04   1.2672405E+05   -1.7409689E+00
   3.3439681E-04   1.2571177E+05   -1.7403937E+00
   3.3594109E-04   1.2470790E+05   -1.7398185E+00
   3.3749250E-04   1.2371238E+05   -1.7392435E+00
   3.3905108E-04   1.2272514E+05   -1.7386686E+00
   3.4061685E-04   1.2174609E+05   -1.7380938E+00
   3.4218986E-04   1.2077517E+05   -1.7375191E+00
   3.4377013E-04   1.1981232E+05   -1.7369446E+00
   3.4535769E-04   1.1885745E+05   -1.7363702E+00
   3.4695259E-04   1.1791051E+05   -1.7357960E+00
   3.4855485E-04   1.1697142E+05   -1.7352219E+00
   3.5016452E-04   1.1604012E+05   -1.7346479E+00
   3.5178161E-04   1.1511653E+05   -1.7340741E+00
   3.5340618E-04   1.1420060E+05   -1.7335005E+00
   3.5503824E-04   1.1329226E+05   -1.7329271E+00
   3.5667785E-04   1.1239143E+05   -1.7323538E+00
   3.5832502E-04   1.1149807E+05   -1.7317807E+00
   3.5997981E-04   1.1061210E+05   -1.7312079E+00
   3.6164223E-04   1.0973345E+05   -1.7306352E+00
   3.6331233E-04   1.0886208E+05   -1.7300627E+00
   3.6499015E-04   1.0799791E+05   -1.7294904E+00
   3.6667571E-04   1.0714088E+05   -1.7289183E+00
   3.6836906E-04   1.0629093E+05   -1.7283465E+00
   3.7007022E-04   1.0544800E+05   -1.7277749E+00
   3.7177925E-04   1.0461203E+05   -1.7272035E+00
   3.7349616E-04   1.0378297E+05   -1.7266324E+00
   3.7522101E-04   1.0296074E+05   -1.7260615E+00
   3.7695382E-04   1.0214530E+05   -1.7254909E+00
   3.7869463E-04   1.0133658E+05   -1.7249205E+00
   3.8044348E-04   1.0053453E+05   -1.7243503E+00
   3.8220041E-04   9.9739088E+04   -1.7237805E+00
   3.8396545E-04   9.8950200E+04   -1.7232109E+00
   3.8573864E-04   9.8167810E+04   -1.7226416E+00
   3.8752002E-04   9.7391861E+04   -1.7220726E+00
   3.8930963E-04   9.6622299E+04   -1.7215039E+00
   3.9110750E-04   9.5859068E+04   -1.7209355E+00
   3.9291368E-04   9.5102116E+04   -1.7203674E+00
   3.9472820E-04   9.4351388E+04   -1.7197995E+00
   3.9655109E-04   9.3606830E+04   -1.7192320E+00
   3.9838241E-04   9.2868391E+04   -1.7186649E+00
   4.0022218E-04   9.2136018E+04   -1.7180980E+00
   4.0207045E-04   9.1409660E+04   -1.7175315E+00
   4.0392725E-04   9.0689264E+04   -1.7169653E+00
   4.0579263E-04   8.9974780E+04   -1.7163995E+00
   4.0766662E-04   8.9266158E+04   -1.7158340E+00
   4.0954927E-04   8.8563348E+04   -1.7152689E+00
   4.1144061E-04   8.7866300E+04   -1.7147041E+00
   4.1334068E-04   8.7174964E+04   -1.7141397E+00
   4.1524953E-04   8.6489293E+04   -1.7135757E+00
   4.1716720E-04   8.5809238E+04   -1.7130121E+00
   4.1909372E-04   8.5134751E+04   -1.7124488E+00
   4.2102914E-04   8.4465785E+04   -1.7118859E+00
   4.2297350E-04   8.3802293E+04   -1.7113234E+00
   4.2492683E-04   8.3144228E+04   -1.7107613E+00
   4.2688919E-04   8.2491544E+04   -1.7101997E+00
   4.2886061E-04   8.1844196E+04   -1.7096384E+00
   4.3084113E-04   8.1202137E+04   -1.7090775E+00
   4.3283080E-04   8.0565324E+04   -1.7085171E+00
   4.3482966E-04   7.9933710E+04   -1.7079571E+00
   4.3683775E-04   7.9307253E+04   -1.7073975E+00
   4.3885511E-04   7.8685909E+04   -1.7068384E+00
   4.4088179E-04   7.8069633E+04   -1.7062797E+00
   4.4291783E-04   7.7458384E+04   -1.7057215E+00
   4.4496327E-04   7.6852118E+04   -1.7051637E+00
   4.4701816E-04   7.6250793E+04   -1.7046064E+00
   4.4908253E-04   7.5654367E+04   -1.7040495E+00
   4.5115644E-04   7.5062799E+04   -1.7034931E+00
   4.5323993E-04   7.4476048E+04   -1.7029372E+00
   4.5533304E-04   7.3894072E+04   -1.7023818E+00
   4.5743582E-04   7.3316832E+04   -1.7018268E+00
   4.5954830E-04   7.2744286E+04   -1.7012724E+00
   4.6167054E-04   7.2176396E+04   -1.7007184E+00
   4.6380259E-04   7.1613123E+04   -1.7001650E+00
   4.6594448E-04   7.1054426E+04   -1.6996120E+00
   4.6809626E-04   7.0500267E+04   -1.6990596E+00
   4.7025797E-04   6.9950608E+04   -1.6985077E+00
   4.7242967E-04   6.9405411E+04   -1.6979563E+00
   4.7461140E-04   6.8864638E+04   -1.6974054E+00
   4.7680321E-04   6.8328252E+04   -1.6968551E+00
   4.7900514E-04   6.7796216E+04   -1.6963053E+00
   4.8121723E-04   6.7268493E+04   -1.6957560E+00
   4.8343954E-04   6.6745046E+04   -1.6952073E+00
   4.8567212E-04   6.6225840E+04   -1.6946592E+00
   4.8791500E-04   6.5710839E+04   -1.6941116E+00
   4.9016825E-04   6.5200007E+04   -1.6935645E+00
   4.9243189E-04   6.4693309E+04   -1.6930181E+00
   4.9470600E-04   6.4190710E+04   -1.6924722E+00
   4.9699060E-04   6.3692176E+04   -1.6919269E+00
   4.9928575E-04   6.3197673E+04   -1.6913821E+00
   5.0159151E-04   6.2707166E+04   -1.6908380E+00
   5.0390791E-04   6.2220622E+04   -1.6902944E+00
   5.0623501E-04   6.1738008E+04   -1.6897515E+00
   5.0857286E-04   6.1259290E+04   -1.6892091E+00
   5.1092150E-04   6.0784437E+04   -1.6886674E+00
   5.1328099E-04   6.0313414E+04   -1.6881262E+00
   5.1565137E-04   5.9846191E+04   -1.6875857E+00
   5.1803270E-04   5.9382735E+04   -1.6870458E+00
   5.2042503E-04   5.8923014E+04   -1.6865065E+00
   5.2282841E-04   5.8466998E+04   -1.6859679E+00
   5.2524289E-04   5.8014654E+04   -1.6854298E+00
   5.2766851E-04   5.7565953E+04   -1.6848925E+00
   5.3010534E-04   5.7120864E+04   -1.6843557E+00
   5.3255342E-04   5.6679356E+04   -1.6838196E+00
   5.3501281E-04   5.6241399E+04   -1.6832842E+00
   5.3748356E-04   5.5806965E+04   -1.6827494E+00
   5.3996571E-04   5.5376022E+04   -1.6822153E+00
   5.4245933E-04   5.4948542E+04   -1.6816819E+00
   5.4496446E-04   5.4524496E+04   -1.6811491E+00
   5.4748117E-04   5.4103855E+04   -1.6806170E+00
   5.5000949E-04   5.3686591E+04   -1.6800856E+00
   5.5254949E-04   5.3272676E+04   -1.6795548E+00
   5.5510123E-04   5.2862080E+04   -1.6790248E+00
   5.5766474E-04   5.2454778E+04   -1.6784954E+00
   5.6024010E-04   5.2050740E+04   -1.6779667E+00
   5.6282734E-04   5.1649940E+04   -1.6774388E+00
   5.6542654E-04   5.1252352E+04   -1.6769115E+00
   5.6803774E-04   5.0857947E+04   -1.6763849E+00
   5.7066099E-04   5.0466699E+04   -1.6758591E+00
   5.7329637E-04   5.0078583E+04   -1.6753340E+00
   5.7594391E-04   4.9693572E+04   -1.6748096E+00
   5.7860368E-04   4.9311640E+04   -1.6742859E+00
   5.8127573E-04   4.8932761E+04   -1.6737629E+00
   5.8396012E-04   4.8556910E+04   -1.6732407E+00
   5.8665691E-04   4.8184062E+04   -1.6727192E+00
   5.8936616E-04   4.7814192E+04   -1.6721985E+00
   5.9208791E-04   4.7447274E+04   -1.6716785E+00
   5.9482223E-04   4.7083285E+04   -1.6711593E+00
   5.9756919E-04   4.6722200E+04   -1.6706408E+00
   6.0032882E-04   4.6363995E+04   -1.6701230E+00
   6.0310120E-04   4.6008646E+04   -1.6696061E+00
   6.0588639E-04   4.5656129E+04   -1.6690898E+00
   6.0868443E-04   4.5306420E+04   -1.6685744E+00
   6.1149540E-04   4.4959497E+04   -1.6680597E+00
   6.1431935E-04   4.4615337E+04   -1.6675458E+00
   6.1715634E-04   4.4273915E+04   -1.6670327E+00
   6.2000644E-04   4.3935210E+04   -1.6665204E+00
   6.2286969E-04   4.3599199E+04   -1.6660088E+00
