#        a       HoverH0(a)       dlogHdloga_of_a(a)
   1.0000000E-04   1.0407904E+06   -1.8678125E+00
   1.0046181E-04   1.0318729E+06   -1.8673640E+00
   1.0092575E-04   1.0230340E+06   -1.8669145E+00
   1.0139184E-04   1.0142729E+06   -1.8664640E+00
   1.0186008E-04   1.0055889E+06   -1.8660126E+00
   1.0233048E-04   9.9698138E+05   -1.8655601E+00
   1.0280305E-04   9.8844956E+05   -1.8651068E+00
   1.0327781E-04   9.7999281E+05   -1.8646524E+00
   1.0375475E-04   9.7161044E+05   -1.8641971E+00
   1.0423390E-04   9.6330180E+05   -1.8637409E+00
   1.0471527E-04   9.5506621E+05   -1.8632837E+00
   1.0519885E-04   9.4690303E+05   -1.8628255E+00
   1.0568467E-04   9.3881161E+05   -1.8623664E+00
   1.0617274E-04   9.3079130E+05   -1.8619063E+00
   1.0666305E-04   9.2284147E+05   -1.8614453E+00
   1.0715563E-04   9.1496148E+05   -1.8609833E+00
   1.0765049E-04   9.0715071E+05   -1.8605204E+00
   1.0814763E-04   8.9940854E+05   -1.8600565E+00
   1.0864707E-04   8.9173436E+05   -1.8595917E+00
   1.0914881E-04   8.8412755E+05   -1.8591260E+00
   1.0965287E-04   8.7658751E+05   -1.8586593E+00
   1.1015926E-04   8.6911364E+05   -1.8581917E+00
   1.1066799E-04   8.6170536E+05   -1.8577231E+00
   1.1117906E-04   8.5436206E+05   -1.8572536E+00
   1.1169250E-04   8.4708319E+05   -1.8567832E+00
   1.1220831E-04   8.3986814E+05   -1.8563119E+00
   1.1272650E-04   8.3271636E+05   -1.8558396E+00
   1.1324708E-04   8.2562728E+05   -1.8553664E+00
   1.1377007E-04   8.1860034E+05   -1.8548923E+00
   1.1429547E-04   8.1163498E+05   -1.8544173E+00
   1.1482330E-04   8.0473065E+05   -1.8539414E+00
   1.1535356E-04   7.9788681E+05   -1.8534645E+00
   1.1588628E-04   7.9110290E+05   -1.8529868E+00
   1.1642145E-04   7.8437841E+05   -1.8525081E+00
   1.1695910E-04   7.7771279E+05   -1.8520285E+00
   1.1749923E-04   7.7110552E+05   -1.8515480E+00
   1.1804185E-04   7.6455607E+05   -1.8510667E+00
   1.1858698E-04   7.5806394E+05   -1.8505844E+00
   1.1913463E-04   7.5162861E+05   -1.8501012E+00
   1.1968481E-04   7.4524957E+05   -1.8496172E+00
   1.2023752E-04   7.3892631E+05   -1.8491322E+00
   1.2079279E-04   7.3265835E+05   -1.8486464E+00
   1.2135063E-04   7.2644518E+05   -1.8481597E+00
   1.2191104E-04   7.2028632E+05   -1.8476720E+00
   1.2247403E-04   7.1418128E+05   -1.8471836E+00
   1.2303963E-04   7.0812959E+05   -1.8466942E+00
   1.2360784E-04   7.0213075E+05   -1.8462040E+00
   1.2417868E-04   6.9618431E+05   -1.8457129E+00
   1.2475215E-04   6.9028979E+05   -1.8452209E+00
   1.2532826E-04   6.8444673E+05   -1.8447281E+00
   1.2590704E-04   6.7865468E+05   -1.8442344E+00
   1.2648850E-04   6.7291317E+05   -1.8437398E+00
   1.2707263E-04   6.6722175E+05   -1.8432444E+00
   1.2765947E-04   6.6157999E+05   -1.8427482E+00
   1.2824901E-04   6.5598743E+05   -1.8422510E+00
   1.2884128E-04   6.5044364E+05   -1.8417531E+00
   1.2943628E-04   6.4494818E+05   -1.8412543E+00
   1.3003403E-04   6.3950062E+05   -1.8407547E+00
   1.3063454E-04   6.3410054E+05   -1.8402542E+00
   1.3123783E-04   6.2874750E+05   -1.8397529E+00
   1.3184390E-04   6.2344110E+05   -1.8392507E+00
   1.3245277E-04   6.1818091E+05   -1.8387478E+00
   1.3306445E-04   6.1296653E+05   -1.8382440E+00
   1.3367895E-04   6.0779754E+05   -1.8377394E+00
   1.3429630E-04   6.0267354E+05   -1.8372339E+00
   1.3491649E-04   5.9759413E+05   -1.8367277E+00
   1.3553955E-04   5.9255892E+05   -1.8362207E+00
   1.3616548E-04   5.8756750E+05   -1.8357128E+00
   1.3679431E-04   5.8261950E+05   -1.8352041E+00
   1.3742604E-04   5.7771452E+05   -1.8346947E+00
   1.3806069E-04   5.7285218E+05   -1.8341844E+00
   1.3869827E-04   5.6803209E+05   -1.8336734E+00
   1.3933879E-04   5.6325390E+05   -1.8331616E+00
   1.3998227E-04   5.5851721E+05   -1.8326489E+00
   1.4062872E-04   5.5382167E+05   -1.8321355E+00
   1.4127816E-04   5.4916690E+05   -1.8316214E+00
   1.4193060E-04   5.4455255E+05   -1.8311064E+00
   1.4258605E-04   5.3997824E+05   -1.8305907E+00
   1.4324453E-04   5.3544364E+05   -1.8300742E+00
   1.4390605E-04   5.3094838E+05   -1.8295569E+00
   1.4457062E-04   5.2649212E+05   -1.8290389E+00
   1.4523826E-04   5.2207451E+05   -1.8285201E+00
   1.4590899E-04   5.1769520E+05   -1.8280006E+00
   1.4658281E-04   5.1335386E+05   -1.8274804E+00
   1.4725974E-04   5.0905014E+05   -1.8269593E+00
   1.4793981E-04   5.0478372E+05   -1.8264376E+00
   1.4862301E-04   5.0055426E+05   -1.8259151E+00
   1.4930936E-04   4.9636143E+05   -1.8253919E+00
   1.4999889E-04   4.9220491E+05   -1.8248679E+00
   1.5069160E-04   4.8808437E+05   -1.8243433E+00
   1.5138751E-04   4.8399950E+05   -1.8238179E+00
   1.5208663E-04   4.7994998E+05   -1.8232918E+00
   1.5278899E-04   4.7593550E+05   -1.8227650E+00
   1.5349458E-04   4.7195574E+05   -1.8222374E+00
   1.5420343E-04   4.6801040E+05   -1.8217092E+00
   1.5491556E-04   4.6409917E+05   -1.8211803E+00
   1.5563098E-04   4.6022175E+05   -1.8206507E+00
   1.5634970E-04   4.5637784E+05   -1.8201204E+00
   1.5707174E-04   4.5256714E+05   -1.8195894E+00
   1.5779711E-04   4.4878936E+05   -1.8190577E+00
   1.5852584E-04   4.4504420E+05   -1.8185253E+00
   1.5925792E-04   4.4133138E+05   -1.8179923E+00
   1.5999339E-04   4.3765061E+05   -1.8174586E+00
   1.6073226E-04   4.3400161E+05   -1.8169242E+00
   1.6147454E-04   4.3038409E+05   -1.8163892E+00
   1.6222024E-04   4.2679778E+05   -1.8158535E+00
   1.6296939E-04   4.2324239E+05   -1.8153172E+00
   1.6372200E-04   4.1971767E+05   -1.8147802E+00
   1.6447809E-04   4.1622332E+05   -1.8142426E+00
   1.6523767E-04   4.1275909E+05   -1.8137044E+00
   1.6600075E-04   4.0932471E+05   -1.8131655E+00
   1.6676736E-04   4.0591992E+05   -1.8126260E+00
   1.6753751E-04   4.0254444E+05   -1.8120858E+00
   1.6831122E-04   3.9919803E+05   -1.8115451E+00
   1.6908849E-04   3.9588043E+05   -1.8110037E+00
   1.6986936E-04   3.9259137E+05   -1.8104617E+00
   1.7065384E-04   3.8933062E+05   -1.8099192E+00
   1.7144193E-04   3.8609791E+05   -1.8093760E+00
   1.7223367E-04   3.8289301E+05   -1.8088322E+00
   1.7302906E-04   3.7971566E+05   -1.8082878E+00
   1.7382813E-04   3.7656562E+05   -1.8077429E+00
   1.7463089E-04   3.7344265E+05   -1.8071974E+00
   1.7543735E-04   3.7034651E+05   -1.8066513E+00
   1.7624754E-04   3.6727697E+05   -1.8061046E+00
   1.7706147E-04   3.6423379E+05   -1.8055573E+00
   1.7787916E-04   3.6121673E+05   -1.8050095E+00
   1.7870062E-04   3.5822557E+05   -1.8044612E+00
   1.7952588E-04   3.5526007E+05   -1.8039122E+00
   1.8035495E-04   3.5232002E+05   -1.8033628E+00
   1.8118785E-04   3.4940518E+05   -1.8028128E+00
   1.8202459E-04   3.4651534E+05   -1.8022623E+00
   1.8286520E-04   3.4365027E+05   -1.8017112E+00
   1.8370969E-04   3.4080975E+05   -1.8011596E+00
   1.8455808E-04   3.3799358E+05   -1.8006075E+00
   1.8541039E-04   3.3520152E+05   -1.8000549E+00
   1.8626663E-04   3.3243338E+05   -1.7995017E+00
   1.8712683E-04   3.2968894E+05   -1.7989481E+00
   1.8799100E-04   3.2696799E+05   -1.7983939E+00
   1.8885917E-04   3.2427032E+05   -1.7978393E+00
   1.8973134E-04   3.2159573E+05   -1.7972842E+00
   1.9060754E-04   3.1894402E+05   -1.7967286E+00
   1.9148778E-04   3.1631499E+05   -1.7961725E+00
   1.9237209E-04   3.1370843E+05   -1.7956159E+00
   1.9326049E-04   3.1112414E+05   -1.7950589E+00
   1.9415299E-04   3.0856194E+05   -1.7945014E+00
   1.9504960E-04   3.0602162E+05   -1.7939434E+00
   1.9595036E-04   3.0350300E+05   -1.7933850E+00
   1.9685528E-04   3.0100589E+05   -1.7928262E+00
   1.9776438E-04   2.9853008E+05   -1.7922669E+00
   1.9867768E-04   2.9607541E+05   -1.7917071E+00
   1.9959519E-04   2.9364167E+05   -1.7911470E+00
   2.0051694E-04   2.9122870E+05   -1.7905864E+00
   2.0144295E-04   2.8883629E+05   -1.7900254E+00
   2.0237324E-04   2.8646428E+05   -1.7894640E+00
   2.0330782E-04   2.8411249E+05   -1.7889021E+00
   2.0424671E-04   2.8178073E+05   -1.7883399E+00
   2.0518995E-04   2.7946884E+05   -1.7877773E+00
   2.0613754E-04   2.7717663E+05   -1.7872143E+00
   2.0708950E-04   2.7490393E+05   -1.7866508E+00
   2.0804586E-04   2.7265058E+05   -1.7860871E+00
   2.0900664E-04   2.7041640E+05   -1.7855229E+00
   2.0997185E-04   2.6820123E+05   -1.7849584E+00
   2.1094152E-04   2.6600490E+05   -1.7843935E+00
   2.1191567E-04   2.6382723E+05   -1.7838282E+00
   2.1289432E-04   2.6166808E+05   -1.7832626E+00
   2.1387749E-04   2.5952727E+05   -1.7826966E+00
   2.1486520E-04   2.5740465E+05   -1.7821303E+00
   2.1585747E-04   2.5530006E+05   -1.7815637E+00
   2.1685432E-04   2.5321334E+05   -1.7809967E+00
   2.1785578E-04   2.5114432E+05   -1.7804294E+00
   2.1886186E-04   2.4909287E+05   -1.7798618E+00
   2.1987259E-04   2.4705882E+05   -1.7792939E+00
   2.2088798E-04   2.4504202E+05   -1.7787257E+00
   2.2190807E-04   2.4304232E+05   -1.7781572E+00
   2.2293286E-04   2.4105957E+05   -1.7775883E+00
   2.2396239E-04   2.3909362E+05   -1.7770192E+00
   2.2499667E-04   2.3714433E+05   -1.7764498E+00
   2.2603573E-04   2.3521154E+05   -1.7758801E+00
   2.2707958E-04   2.3329513E+05   -1.7753102E+00
   2.2812826E-04   2.3139493E+05   -1.7747400E+00
   2.2918178E-04   2.2951081E+05   -1.7741695E+00
   2.3024017E-04   2.2764264E+05   -1.7735988E+00
   2.3130344E-04   2.2579026E+05   -1.7730278E+00
   2.3237162E-04   2.2395355E+05   -1.7724566E+00
   2.3344474E-04   2.2213236E+05   -1.7718851E+00
   2.3452281E-04   2.2032657E+05   -1.7713134E+00
   2.3560586E-04   2.1853603E+05   -1.7707415E+00
   2.3669392E-04   2.1676061E+05   -1.7701694E+00
   2.3778699E-04   2.1500018E+05   -1.7695970E+00
   2.3888512E-04   2.1325461E+05   -1.7690245E+00
   2.3998831E-04   2.1152377E+05   -1.7684517E+00
   2.4109661E-04   2.0980754E+05   -1.7678788E+00
   2.4221001E-04   2.0810577E+05   -1.7673057E+00
   2.4332857E-04   2.0641836E+05   -1.7667323E+00
   2.4445228E-04   2.0474517E+05   -1.7661588E+00
   2.4558119E-04   2.0308608E+05   -1.7655852E+00
   2.4671531E-04   2.0144096E+05   -1.7650113E+00
   2.4785467E-04   1.9980970E+05   -1.7644373E+00
   2.4899928E-04   1.9819218E+05   -1.7638632E+00
   2.5014919E-04   1.9658827E+05   -1.7632889E+00
   2.5130440E-04   1.9499785E+05   -1.7627145E+00
   2.5246495E-04   1.9342082E+05   -1.7621399E+00
   2.5363086E-04   1.9185704E+05   -1.7615652E+00
   2.5480216E-04   1.9030641E+05   -1.7609904E+00
   2.5597886E-04   1.8876882E+05   -1.7604154E+00
   2.5716100E-04   1.8724414E+05   -1.7598404E+00
   2.5834859E-04   1.8573227E+05   -1.7592652E+00
   2.5954168E-04   1.8423310E+05   -1.7586900E+00
   2.6074027E-04   1.8274651E+05   -1.7581146E+00
   2.6194439E-04   1.8127240E+05   -1.7575392E+00
   2.6315408E-04   1.7981065E+05   -1.7569637E+00
   2.6436935E-04   1.7836117E+05   -1.7563881E+00
   2.6559024E-04   1.7692384E+05   -1.7558124E+00
   2.6681676E-04   1.7549856E+05   -1.7552367E+00
   2.6804895E-04   1.7408522E+05   -1.7546609E+00
   2.6928683E-04   1.7268372E+05   -1.7540851E+00
   2.7053042E-04   1.7129396E+05   -1.7535092E+00
   2.7177976E-04   1.6991583E+05   -1.7529333E+00
   2.7303487E-04   1.6854924E+05   -1.7523574E+00
   2.7429577E-04   1.6719409E+05   -1.7517814E+00
   2.7556250E-04   1.6585027E+05   -1.7512055E+00
   2.7683507E-04   1.6451768E+05   -1.7506295E+00
   2.7811353E-04   1.6319624E+05   -1.7500535E+00
   2.7939788E-04   1.6188584E+05   -1.7494775E+00
   2.8068817E-04   1.6058639E+05   -1.7489015E+00
   2.8198442E-04   1.5929780E+05   -1.7483255E+00
   2.8328665E-04   1.5801996E+05   -1.7477495E+00
   2.8459490E-04   1.5675279E+05   -1.7471736E+00
   2.8590919E-04   1.5549619E+05   -1.7465976E+00
   2.8722955E-04   1.5425008E+05   -1.7460218E+00
   2.8855600E-04   1.5301435E+05   -1.7454459E+00
   2.8988859E-04   1.5178893E+05   -1.7448701E+00
   2.9122732E-04   1.5057373E+05   -1.7442944E+00
   2.9257224E-04   1.4936865E+05   -1.7437187E+00
   2.9392337E-04   1.4817360E+05   -1.7431431E+00
   2.9528074E-04   1.4698851E+05   -1.7425676E+00
   2.9664438E-04   1.4581328E+05   -1.7419921E+00
   2.9801431E-04   1.4464783E+05   -1.7414167E+00
   2.9939057E-04   1.4349208E+05   -1.7408414E+00
   3.0077319E-04   1.4234594E+05   -1.7402663E+00
   3.0216219E-04   1.4120933E+05   -1.7396912E+00
   3.0355761E-04   1.4008216E+05   -1.7391162E+00
   3.0495947E-04   1.3896436E+05   -1.7385413E+00
   3.0636780E-04   1.3785585E+05   -1.7379666E+00
   3.0778264E-04   1.3675654E+05   -1.7373920E+00
   3.0920401E-04   1.3566635E+05   -1.7368175E+00
   3.1063195E-04   1.3458521E+05   -1.7362431E+00
   3.1206648E-04   1.3351304E+05   -1.7356689E+00
   3.1350764E-04   1.3244977E+05   -1.7350949E+00
   3.1495545E-04   1.3139530E+05   -1.7345210E+00
   3.1640994E-04   1.3034958E+05   -1.7339473E+00
   3.1787116E-04   1.2931252E+05   -1.7333737E+00
   3.1933912E-04   1.2828406E+05   -1.7328003E+00
   3.2081386E-04   1.2726410E+05   -1.7322271E+00
   3.2229541E-04   1.2625259E+05   -1.7316541E+00
   3.2378381E-04   1.2524945E+05   -1.7310813E+00
   3.2527908E-04   1.2425461E+05   -1.7305087E+00
   3.2678125E-04   1.2326800E+05   -1.7299363E+00
   3.2829036E-04   1.2228954E+05   -1.7293641E+00
   3.2980644E-04   1.2131917E+05   -1.7287921E+00
   3.3132952E-04   1.2035681E+05   -1.7282203E+00
   3.3285963E-04   1.1940241E+05   -1.7276488E+00
   3.3439681E-04   1.1845588E+05   -1.7270775E+00
   3.3594109E-04   1.1751717E+05   -1.7265064E+00
   3.3749250E-04   1.1658620E+05   -1.7259356E+00
   3.3905108E-04   1.1566291E+05   -1.7253650E+00
   3.4061685E-04   1.1474724E+05   -1.7247947E+00
   3.4218986E-04   1.1383911E+05   -1.7242247E+00
   3.4377013E-04   1.1293847E+05   -1.7236549E+00
   3.4535769E-04   1.1204524E+05   -1.7230854E+00
   3.4695259E-04   1.1115938E+05   -1.7225162E+00
   3.4855485E-04   1.1028080E+05   -1.7219473E+00
   3.5016452E-04   1.0940946E+05   -1.7213786E+00
   3.5178161E-04   1.0854528E+05   -1.7208103E+00
   3.5340618E-04   1.0768822E+05   -1.7202423E+00
   3.5503824E-04   1.0683819E+05   -1.7196746E+00
   3.5667785E-04   1.0599516E+05   -1.7191072E+00
   3.5832502E-04   1.0515905E+05   -1.7185401E+00
   3.5997981E-04   1.0432982E+05   -1.7179733E+00
   3.6164223E-04   1.0350739E+05   -1.7174069E+00
   3.6331233E-04   1.0269171E+05   -1.7168408E+00
   3.6499015E-04   1.0188272E+05   -1.7162751E+00
   3.6667571E-04   1.0108037E+05   -1.7157097E+00
   3.6836906E-04   1.0028461E+05   -1.7151447E+00
   3.7007022E-04   9.9495361E+04   -1.7145800E+00
   3.7177925E-04   9.8712584E+04   -1.7140158E+00
   3.7349616E-04   9.7936220E+04   -1.7134518E+00
   3.7522101E-04   9.7166215E+04   -1.7128883E+00
   3.7695382E-04   9.6402513E+04   -1.7123251E+00
   3.7869463E-04   9.5645063E+04   -1.7117624E+00
   3.8044348E-04   9.4893810E+04   -1.7112000E+00
   3.8220041E-04   9.4148701E+04   -1.7106380E+00
   3.8396545E-04   9.3409685E+04   -1.7100765E+00
   3.8573864E-04   9.2676710E+04   -1.7095153E+00
   3.8752002E-04   9.1949723E+04   -1.7089546E+00
   3.8930963E-04   9.1228675E+04   -1.7083943E+00
   3.9110750E-04   9.0513515E+04   -1.7078344E+00
   3.9291368E-04   8.9804193E+04   -1.7072749E+00
   3.9472820E-04   8.9100659E+04   -1.7067159E+00
   3.9655109E-04   8.8402864E+04   -1.7061574E+00
   3.9838241E-04   8.7710759E+04   -1.7055993E+00
   4.0022218E-04   8.7024297E+04   -1.7050416E+00
   4.0207045E-04   8.6343429E+04   -1.7044844E+00
   4.0392725E-04   8.5668108E+04   -1.7039277E+00
   4.0579263E-04   8.4998287E+04   -1.7033714E+00
   4.0766662E-04   8.4333919E+04   -1.7028157E+00
   4.0954927E-04   8.3674958E+04   -1.7022604E+00
   4.1144061E-04   8.3021358E+04   -1.7017055E+00
   4.1334068E-04   8.2373074E+04   -1.7011512E+00
   4.1524953E-04   8.1730061E+04   -1.7005974E+00
   4.1716720E-04   8.1092274E+04   -1.7000441E+00
   4.1909372E-04   8.0459670E+04   -1.6994913E+00
   4.2102914E-04   7.9832203E+04   -1.6989390E+00
   4.2297350E-04   7.9209831E+04   -1.6983872E+00
   4.2492683E-04   7.8592511E+04   -1.6978360E+00
   4.2688919E-04   7.7980200E+04   -1.6972852E+00
   4.2886061E-04   7.7372856E+04   -1.6967351E+00
   4.3084113E-04   7.6770437E+04   -1.6961854E+00
   4.3283080E-04   7.6172901E+04   -1.6956363E+00
   4.3482966E-04   7.5580206E+04   -1.6950878E+00
   4.3683775E-04   7.4992313E+04   -1.6945397E+00
   4.3885511E-04   7.4409181E+04   -1.6939923E+00
   4.4088179E-04   7.3830769E+04   -1.6934454E+00
   4.4291783E-04   7.3257038E+04   -1.6928991E+00
   4.4496327E-04   7.2687948E+04   -1.6923534E+00
   4.4701816E-04   7.2123460E+04   -1.6918082E+00
   4.4908253E-04   7.1563535E+04   -1.6912636E+00
   4.5115644E-04   7.1008136E+04   -1.6907197E+00
   4.5323993E-04   7.0457224E+04   -1.6901763E+00
   4.5533304E-04   6.9910760E+04   -1.6896335E+00
   4.5743582E-04   6.9368709E+04   -1.6890913E+00
   4.5954830E-04   6.8831032E+04   -1.6885497E+00
   4.6167054E-04   6.8297693E+04   -1.6880087E+00
   4.6380259E-04   6.7768655E+04   -1.6874684E+00
   4.6594448E-04   6.7243883E+04   -1.6869286E+00
   4.6809626E-04   6.6723340E+04   -1.6863895E+00
   4.7025797E-04   6.6206991E+04   -1.6858511E+00
   4.7242967E-04   6.5694801E+04   -1.6853132E+00
   4.7461140E-04   6.5186734E+04   -1.6847760E+00
   4.7680321E-04   6.4682757E+04   -1.6842394E+00
   4.7900514E-04   6.4182835E+04   -1.6837035E+00
   4.8121723E-04   6.3686934E+04   -1.6831683E+00
   4.8343954E-04   6.3195020E+04   -1.6826337E+00
   4.8567212E-04   6.2707060E+04   -1.6820998E+00
   4.8791500E-04   6.2223021E+04   -1.6815665E+00
   4.9016825E-04   6.1742869E+04   -1.6810339E+00
   4.9243189E-04   6.1266573E+04   -1.6805020E+00
   4.9470600E-04   6.0794101E+04   -1.6799707E+00
   4.9699060E-04   6.0325419E+04   -1.6794402E+00
   4.9928575E-04   5.9860497E+04   -1.6789103E+00
   5.0159151E-04   5.9399302E+04   -1.6783811E+00
   5.0390791E-04   5.8941805E+04   -1.6778526E+00
   5.0623501E-04   5.8487974E+04   -1.6773249E+00
   5.0857286E-04   5.8037778E+04   -1.6767978E+00
   5.1092150E-04   5.7591187E+04   -1.6762714E+00
   5.1328099E-04   5.7148171E+04   -1.6757458E+00
   5.1565137E-04   5.6708700E+04   -1.6752208E+00
   5.1803270E-04   5.6272745E+04   -1.6746966E+00
   5.2042503E-04   5.5840276E+04   -1.6741732E+00
   5.2282841E-04   5.5411264E+04   -1.6736504E+00
   5.2524289E-04   5.4985681E+04   -1.6731284E+00
   5.2766851E-04   5.4563497E+04   -1.6726071E+00
   5.3010534E-04   5.4144685E+04   -1.6720866E+00
   5.3255342E-04   5.3729216E+04   -1.6715668E+00
   5.3501281E-04   5.3317063E+04   -1.6710477E+00
   5.3748356E-04   5.2908198E+04   -1.6705294E+00
   5.3996571E-04   5.2502593E+04   -1.6700119E+00
   5.4245933E-04   5.2100222E+04   -1.6694951E+00
   5.4496446E-04   5.1701058E+04   -1.6689791E+00
   5.4748117E-04   5.1305074E+04   -1.6684639E+00
   5.5000949E-04   5.0912244E+04   -1.6679494E+00
   5.5254949E-04   5.0522541E+04   -1.6674357E+00
   5.5510123E-04   5.0135940E+04   -1.6669228E+00
   5.5766474E-04   4.9752414E+04   -1.6664107E+00
   5.6024010E-04   4.9371939E+04   -1.6658994E+00
   5.6282734E-04   4.8994488E+04   -1.6653888E+00
   5.6542654E-04   4.8620038E+04   -1.6648791E+00
   5.6803774E-04   4.8248563E+04   -1.6643701E+00
   5.7066099E-04   4.7880037E+04   -1.6638620E+00
   5.7329637E-04   4.7514438E+04   -1.6633546E+00
   5.7594391E-04   4.7151741E+04   -1.6628481E+00
   5.7860368E-04   4.6791922E+04   -1.6623423E+00
   5.8127573E-04   4.6434956E+04   -1.6618374E+00
   5.8396012E-04   4.6080821E+04   -1.6613333E+00
   5.8665691E-04   4.5729492E+04   -1.6608301E+00
   5.8936616E-04   4.5380948E+04   -1.6603276E+00
   5.9208791E-04   4.5035164E+04   -1.6598260E+00
   5.9482223E-04   4.4692118E+04   -1.6593252E+00
   5.9756919E-04   4.4351787E+04   -1.6588252E+00
   6.0032882E-04   4.4014150E+04   -1.6583261E+00
   6.0310120E-04   4.3679183E+04   -1.6578279E+00
   6.0588639E-04   4.3346864E+04   -1.6573304E+00
   6.0868443E-04   4.3017173E+04   -1.6568339E+00
   6.1149540E-04   4.2690086E+04   -1.6563381E+00
   6.1431935E-04   4.2365584E+04   -1.6558432E+00
   6.1715634E-04   4.2043644E+04   -1.6553492E+00
   6.2000644E-04   4.1724245E+04   -1.6548561E+00
   6.2286969E-04   4.1407367E+04   -1.6543638E+00
