#        a       HoverH0(a)       dlogHdloga_of_a(a)
   1.0000000E-04   1.0264200E+06   -1.8719464E+00
   1.0046181E-04   1.0176063E+06   -1.8715070E+00
   1.0092575E-04   1.0088703E+06   -1.8710667E+00
   1.0139184E-04   1.0002113E+06   -1.8706253E+00
   1.0186008E-04   9.9162868E+05   -1.8701829E+00
   1.0233048E-04   9.8312171E+05   -1.8697396E+00
   1.0280305E-04   9.7468971E+05   -1.8692953E+00
   1.0327781E-04   9.6633201E+05   -1.8688500E+00
   1.0375475E-04   9.5804794E+05   -1.8684037E+00
   1.0423390E-04   9.4983684E+05   -1.8679564E+00
   1.0471527E-04   9.4169807E+05   -1.8675082E+00
   1.0519885E-04   9.3363095E+05   -1.8670590E+00
   1.0568467E-04   9.2563487E+05   -1.8666089E+00
   1.0617274E-04   9.1770917E+05   -1.8661577E+00
   1.0666305E-04   9.0985323E+05   -1.8657056E+00
   1.0715563E-04   9.0206642E+05   -1.8652526E+00
   1.0765049E-04   8.9434812E+05   -1.8647986E+00
   1.0814763E-04   8.8669772E+05   -1.8643436E+00
   1.0864707E-04   8.7911461E+05   -1.8638876E+00
   1.0914881E-04   8.7159818E+05   -1.8634307E+00
   1.0965287E-04   8.6414784E+05   -1.8629728E+00
   1.1015926E-04   8.5676299E+05   -1.8625140E+00
   1.1066799E-04   8.4944304E+05   -1.8620543E+00
   1.1117906E-04   8.4218743E+05   -1.8615935E+00
   1.1169250E-04   8.3499556E+05   -1.8611319E+00
   1.1220831E-04   8.2786687E+05   -1.8606692E+00
   1.1272650E-04   8.2080079E+05   -1.8602057E+00
   1.1324708E-04   8.1379676E+05   -1.8597412E+00
   1.1377007E-04   8.0685423E+05   -1.8592757E+00
   1.1429547E-04   7.9997264E+05   -1.8588094E+00
   1.1482330E-04   7.9315145E+05   -1.8583420E+00
   1.1535356E-04   7.8639012E+05   -1.8578738E+00
   1.1588628E-04   7.7968811E+05   -1.8574046E+00
   1.1642145E-04   7.7304489E+05   -1.8569345E+00
   1.1695910E-04   7.6645994E+05   -1.8564634E+00
   1.1749923E-04   7.5993273E+05   -1.8559915E+00
   1.1804185E-04   7.5346274E+05   -1.8555186E+00
   1.1858698E-04   7.4704947E+05   -1.8550448E+00
   1.1913463E-04   7.4069240E+05   -1.8545700E+00
   1.1968481E-04   7.3439104E+05   -1.8540944E+00
   1.2023752E-04   7.2814488E+05   -1.8536178E+00
   1.2079279E-04   7.2195344E+05   -1.8531404E+00
   1.2135063E-04   7.1581622E+05   -1.8526620E+00
   1.2191104E-04   7.0973273E+05   -1.8521827E+00
   1.2247403E-04   7.0370251E+05   -1.8517025E+00
   1.2303963E-04   6.9772506E+05   -1.8512214E+00
   1.2360784E-04   6.9179992E+05   -1.8507394E+00
   1.2417868E-04   6.8592663E+05   -1.8502566E+00
   1.2475215E-04   6.8010471E+05   -1.8497728E+00
   1.2532826E-04   6.7433371E+05   -1.8492881E+00
   1.2590704E-04   6.6861317E+05   -1.8488026E+00
   1.2648850E-04   6.6294265E+05   -1.8483161E+00
   1.2707263E-04   6.5732169E+05   -1.8478288E+00
   1.2765947E-04   6.5174986E+05   -1.8473406E+00
   1.2824901E-04   6.4622671E+05   -1.8468515E+00
   1.2884128E-04   6.4075182E+05   -1.8463616E+00
   1.2943628E-04   6.3532474E+05   -1.8458707E+00
   1.3003403E-04   6.2994506E+05   -1.8453790E+00
   1.3063454E-04   6.2461234E+05   -1.8448865E+00
   1.3123783E-04   6.1932618E+05   -1.8443931E+00
   1.3184390E-04   6.1408614E+05   -1.8438988E+00
   1.3245277E-04   6.0889184E+05   -1.8434036E+00
   1.3306445E-04   6.0374284E+05   -1.8429077E+00
   1.3367895E-04   5.9863876E+05   -1.8424108E+00
   1.3429630E-04   5.9357919E+05   -1.8419131E+00
   1.3491649E-04   5.8856373E+05   -1.8414146E+00
   1.3553955E-04   5.8359199E+05   -1.8409152E+00
   1.3616548E-04   5.7866358E+05   -1.8404150E+00
   1.3679431E-04   5.7377812E+05   -1.8399140E+00
   1.3742604E-04   5.6893521E+05   -1.8394121E+00
   1.3806069E-04   5.6413449E+05   -1.8389094E+00
   1.3869827E-04   5.5937557E+05   -1.8384059E+00
   1.3933879E-04   5.5465809E+05   -1.8379015E+00
   1.3998227E-04   5.4998167E+05   -1.8373964E+00
   1.4062872E-04   5.4534595E+05   -1.8368904E+00
   1.4127816E-04   5.4075056E+05   -1.8363836E+00
   1.4193060E-04   5.3619515E+05   -1.8358760E+00
   1.4258605E-04   5.3167936E+05   -1.8353676E+00
   1.4324453E-04   5.2720284E+05   -1.8348584E+00
   1.4390605E-04   5.2276523E+05   -1.8343484E+00
   1.4457062E-04   5.1836620E+05   -1.8338376E+00
   1.4523826E-04   5.1400540E+05   -1.8333260E+00
   1.4590899E-04   5.0968248E+05   -1.8328136E+00
   1.4658281E-04   5.0539711E+05   -1.8323005E+00
   1.4725974E-04   5.0114896E+05   -1.8317866E+00
   1.4793981E-04   4.9693770E+05   -1.8312718E+00
   1.4862301E-04   4.9276300E+05   -1.8307564E+00
   1.4930936E-04   4.8862452E+05   -1.8302401E+00
   1.4999889E-04   4.8452196E+05   -1.8297231E+00
   1.5069160E-04   4.8045499E+05   -1.8292053E+00
   1.5138751E-04   4.7642329E+05   -1.8286868E+00
   1.5208663E-04   4.7242655E+05   -1.8281675E+00
   1.5278899E-04   4.6846446E+05   -1.8276475E+00
   1.5349458E-04   4.6453672E+05   -1.8271267E+00
   1.5420343E-04   4.6064302E+05   -1.8266052E+00
   1.5491556E-04   4.5678305E+05   -1.8260830E+00
   1.5563098E-04   4.5295651E+05   -1.8255600E+00
   1.5634970E-04   4.4916312E+05   -1.8250362E+00
   1.5707174E-04   4.4540256E+05   -1.8245118E+00
   1.5779711E-04   4.4167456E+05   -1.8239866E+00
   1.5852584E-04   4.3797883E+05   -1.8234608E+00
   1.5925792E-04   4.3431507E+05   -1.8229342E+00
   1.5999339E-04   4.3068300E+05   -1.8224069E+00
   1.6073226E-04   4.2708235E+05   -1.8218789E+00
   1.6147454E-04   4.2351283E+05   -1.8213502E+00
   1.6222024E-04   4.1997417E+05   -1.8208208E+00
   1.6296939E-04   4.1646609E+05   -1.8202907E+00
   1.6372200E-04   4.1298832E+05   -1.8197599E+00
   1.6447809E-04   4.0954060E+05   -1.8192284E+00
   1.6523767E-04   4.0612266E+05   -1.8186963E+00
   1.6600075E-04   4.0273423E+05   -1.8181635E+00
   1.6676736E-04   3.9937505E+05   -1.8176300E+00
   1.6753751E-04   3.9604486E+05   -1.8170958E+00
   1.6831122E-04   3.9274341E+05   -1.8165610E+00
   1.6908849E-04   3.8947044E+05   -1.8160256E+00
   1.6986936E-04   3.8622570E+05   -1.8154894E+00
   1.7065384E-04   3.8300894E+05   -1.8149527E+00
   1.7144193E-04   3.7981991E+05   -1.8144153E+00
   1.7223367E-04   3.7665837E+05   -1.8138772E+00
   1.7302906E-04   3.7352407E+05   -1.8133385E+00
   1.7382813E-04   3.7041677E+05   -1.8127992E+00
   1.7463089E-04   3.6733624E+05   -1.8122593E+00
   1.7543735E-04   3.6428222E+05   -1.8117187E+00
   1.7624754E-04   3.6125451E+05   -1.8111775E+00
   1.7706147E-04   3.5825284E+05   -1.8106358E+00
   1.7787916E-04   3.5527701E+05   -1.8100934E+00
   1.7870062E-04   3.5232678E+05   -1.8095504E+00
   1.7952588E-04   3.4940192E+05   -1.8090068E+00
   1.8035495E-04   3.4650221E+05   -1.8084626E+00
   1.8118785E-04   3.4362742E+05   -1.8079178E+00
   1.8202459E-04   3.4077734E+05   -1.8073725E+00
   1.8286520E-04   3.3795176E+05   -1.8068266E+00
   1.8370969E-04   3.3515044E+05   -1.8062801E+00
   1.8455808E-04   3.3237318E+05   -1.8057330E+00
   1.8541039E-04   3.2961977E+05   -1.8051854E+00
   1.8626663E-04   3.2688999E+05   -1.8046372E+00
   1.8712683E-04   3.2418364E+05   -1.8040884E+00
   1.8799100E-04   3.2150050E+05   -1.8035392E+00
   1.8885917E-04   3.1884039E+05   -1.8029893E+00
   1.8973134E-04   3.1620308E+05   -1.8024390E+00
   1.9060754E-04   3.1358838E+05   -1.8018881E+00
   1.9148778E-04   3.1099610E+05   -1.8013366E+00
   1.9237209E-04   3.0842602E+05   -1.8007847E+00
   1.9326049E-04   3.0587797E+05   -1.8002322E+00
   1.9415299E-04   3.0335173E+05   -1.7996792E+00
   1.9504960E-04   3.0084713E+05   -1.7991258E+00
   1.9595036E-04   2.9836397E+05   -1.7985718E+00
   1.9685528E-04   2.9590206E+05   -1.7980173E+00
   1.9776438E-04   2.9346122E+05   -1.7974623E+00
   1.9867768E-04   2.9104125E+05   -1.7969069E+00
   1.9959519E-04   2.8864198E+05   -1.7963509E+00
   2.0051694E-04   2.8626322E+05   -1.7957945E+00
   2.0144295E-04   2.8390479E+05   -1.7952376E+00
   2.0237324E-04   2.8156652E+05   -1.7946803E+00
   2.0330782E-04   2.7924822E+05   -1.7941225E+00
   2.0424671E-04   2.7694972E+05   -1.7935642E+00
   2.0518995E-04   2.7467084E+05   -1.7930055E+00
   2.0613754E-04   2.7241142E+05   -1.7924463E+00
   2.0708950E-04   2.7017129E+05   -1.7918867E+00
   2.0804586E-04   2.6795026E+05   -1.7913267E+00
   2.0900664E-04   2.6574818E+05   -1.7907662E+00
   2.0997185E-04   2.6356488E+05   -1.7902054E+00
   2.1094152E-04   2.6140019E+05   -1.7896441E+00
   2.1191567E-04   2.5925395E+05   -1.7890824E+00
   2.1289432E-04   2.5712600E+05   -1.7885203E+00
   2.1387749E-04   2.5501617E+05   -1.7879578E+00
   2.1486520E-04   2.5292431E+05   -1.7873949E+00
   2.1585747E-04   2.5085027E+05   -1.7868316E+00
   2.1685432E-04   2.4879387E+05   -1.7862679E+00
   2.1785578E-04   2.4675498E+05   -1.7857038E+00
   2.1886186E-04   2.4473343E+05   -1.7851394E+00
   2.1987259E-04   2.4272907E+05   -1.7845746E+00
   2.2088798E-04   2.4074175E+05   -1.7840095E+00
   2.2190807E-04   2.3877133E+05   -1.7834440E+00
   2.2293286E-04   2.3681766E+05   -1.7828781E+00
   2.2396239E-04   2.3488058E+05   -1.7823119E+00
   2.2499667E-04   2.3295995E+05   -1.7817454E+00
   2.2603573E-04   2.3105563E+05   -1.7811785E+00
   2.2707958E-04   2.2916748E+05   -1.7806114E+00
   2.2812826E-04   2.2729535E+05   -1.7800438E+00
   2.2918178E-04   2.2543910E+05   -1.7794760E+00
   2.3024017E-04   2.2359860E+05   -1.7789079E+00
   2.3130344E-04   2.2177371E+05   -1.7783395E+00
   2.3237162E-04   2.1996428E+05   -1.7777707E+00
   2.3344474E-04   2.1817019E+05   -1.7772017E+00
   2.3452281E-04   2.1639130E+05   -1.7766324E+00
   2.3560586E-04   2.1462748E+05   -1.7760628E+00
   2.3669392E-04   2.1287860E+05   -1.7754929E+00
   2.3778699E-04   2.1114452E+05   -1.7749228E+00
   2.3888512E-04   2.0942511E+05   -1.7743524E+00
   2.3998831E-04   2.0772026E+05   -1.7737817E+00
   2.4109661E-04   2.0602982E+05   -1.7732108E+00
   2.4221001E-04   2.0435368E+05   -1.7726397E+00
   2.4332857E-04   2.0269171E+05   -1.7720683E+00
   2.4445228E-04   2.0104378E+05   -1.7714967E+00
   2.4558119E-04   1.9940978E+05   -1.7709248E+00
   2.4671531E-04   1.9778957E+05   -1.7703528E+00
   2.4785467E-04   1.9618305E+05   -1.7697805E+00
   2.4899928E-04   1.9459010E+05   -1.7692080E+00
   2.5014919E-04   1.9301058E+05   -1.7686353E+00
   2.5130440E-04   1.9144439E+05   -1.7680624E+00
   2.5246495E-04   1.8989142E+05   -1.7674893E+00
   2.5363086E-04   1.8835153E+05   -1.7669161E+00
   2.5480216E-04   1.8682463E+05   -1.7663426E+00
   2.5597886E-04   1.8531060E+05   -1.7657690E+00
   2.5716100E-04   1.8380932E+05   -1.7651952E+00
   2.5834859E-04   1.8232068E+05   -1.7646212E+00
   2.5954168E-04   1.8084458E+05   -1.7640471E+00
   2.6074027E-04   1.7938091E+05   -1.7634729E+00
   2.6194439E-04   1.7792955E+05   -1.7628985E+00
   2.6315408E-04   1.7649041E+05   -1.7623240E+00
   2.6436935E-04   1.7506336E+05   -1.7617493E+00
   2.6559024E-04   1.7364832E+05   -1.7611745E+00
   2.6681676E-04   1.7224517E+05   -1.7605996E+00
   2.6804895E-04   1.7085381E+05   -1.7600246E+00
   2.6928683E-04   1.6947413E+05   -1.7594494E+00
   2.7053042E-04   1.6810605E+05   -1.7588742E+00
   2.7177976E-04   1.6674945E+05   -1.7582989E+00
   2.7303487E-04   1.6540424E+05   -1.7577235E+00
   2.7429577E-04   1.6407031E+05   -1.7571480E+00
   2.7556250E-04   1.6274757E+05   -1.7565724E+00
   2.7683507E-04   1.6143593E+05   -1.7559968E+00
   2.7811353E-04   1.6013528E+05   -1.7554211E+00
   2.7939788E-04   1.5884553E+05   -1.7548453E+00
   2.8068817E-04   1.5756659E+05   -1.7542695E+00
   2.8198442E-04   1.5629836E+05   -1.7536936E+00
   2.8328665E-04   1.5504074E+05   -1.7531177E+00
   2.8459490E-04   1.5379366E+05   -1.7525418E+00
   2.8590919E-04   1.5255701E+05   -1.7519658E+00
   2.8722955E-04   1.5133071E+05   -1.7513899E+00
   2.8855600E-04   1.5011466E+05   -1.7508139E+00
   2.8988859E-04   1.4890878E+05   -1.7502379E+00
   2.9122732E-04   1.4771298E+05   -1.7496619E+00
   2.9257224E-04   1.4652717E+05   -1.7490858E+00
   2.9392337E-04   1.4535126E+05   -1.7485098E+00
   2.9528074E-04   1.4418518E+05   -1.7479339E+00
   2.9664438E-04   1.4302883E+05   -1.7473579E+00
   2.9801431E-04   1.4188213E+05   -1.7467820E+00
   2.9939057E-04   1.4074499E+05   -1.7462061E+00
   3.0077319E-04   1.3961734E+05   -1.7456302E+00
   3.0216219E-04   1.3849910E+05   -1.7450544E+00
   3.0355761E-04   1.3739017E+05   -1.7444786E+00
   3.0495947E-04   1.3629048E+05   -1.7439029E+00
   3.0636780E-04   1.3519996E+05   -1.7433273E+00
   3.0778264E-04   1.3411852E+05   -1.7427517E+00
   3.0920401E-04   1.3304607E+05   -1.7421762E+00
   3.1063195E-04   1.3198256E+05   -1.7416008E+00
   3.1206648E-04   1.3092789E+05   -1.7410255E+00
   3.1350764E-04   1.2988200E+05   -1.7404503E+00
   3.1495545E-04   1.2884480E+05   -1.7398751E+00
   3.1640994E-04   1.2781622E+05   -1.7393001E+00
   3.1787116E-04   1.2679619E+05   -1.7387252E+00
   3.1933912E-04   1.2578464E+05   -1.7381504E+00
   3.2081386E-04   1.2478148E+05   -1.7375758E+00
   3.2229541E-04   1.2378665E+05   -1.7370012E+00
   3.2378381E-04   1.2280008E+05   -1.7364268E+00
   3.2527908E-04   1.2182169E+05   -1.7358526E+00
   3.2678125E-04   1.2085142E+05   -1.7352785E+00
   3.2829036E-04   1.1988920E+05   -1.7347045E+00
   3.2980644E-04   1.1893495E+05   -1.7341307E+00
   3.3132952E-04   1.1798860E+05   -1.7335571E+00
   3.3285963E-04   1.1705010E+05   -1.7329837E+00
   3.3439681E-04   1.1611937E+05   -1.7324104E+00
   3.3594109E-04   1.1519634E+05   -1.7318373E+00
   3.3749250E-04   1.1428095E+05   -1.7312644E+00
   3.3905108E-04   1.1337313E+05   -1.7306917E+00
   3.4061685E-04   1.1247283E+05   -1.7301192E+00
   3.4218986E-04   1.1157996E+05   -1.7295470E+00
   3.4377013E-04   1.1069448E+05   -1.7289749E+00
   3.4535769E-04   1.0981631E+05   -1.7284030E+00
   3.4695259E-04   1.0894540E+05   -1.7278314E+00
   3.4855485E-04   1.0808168E+05   -1.7272600E+00
   3.5016452E-04   1.0722508E+05   -1.7266889E+00
   3.5178161E-04   1.0637556E+05   -1.7261180E+00
   3.5340618E-04   1.0553304E+05   -1.7255473E+00
   3.5503824E-04   1.0469748E+05   -1.7249769E+00
   3.5667785E-04   1.0386880E+05   -1.7244068E+00
   3.5832502E-04   1.0304695E+05   -1.7238369E+00
   3.5997981E-04   1.0223187E+05   -1.7232673E+00
   3.6164223E-04   1.0142351E+05   -1.7226980E+00
   3.6331233E-04   1.0062180E+05   -1.7221290E+00
   3.6499015E-04   9.9826688E+04   -1.7215603E+00
   3.6667571E-04   9.9038120E+04   -1.7209918E+00
   3.6836906E-04   9.8256038E+04   -1.7204237E+00
   3.7007022E-04   9.7480388E+04   -1.7198559E+00
   3.7177925E-04   9.6711113E+04   -1.7192884E+00
   3.7349616E-04   9.5948161E+04   -1.7187212E+00
   3.7522101E-04   9.5191475E+04   -1.7181543E+00
   3.7695382E-04   9.4441004E+04   -1.7175878E+00
   3.7869463E-04   9.3696695E+04   -1.7170216E+00
   3.8044348E-04   9.2958493E+04   -1.7164557E+00
   3.8220041E-04   9.2226348E+04   -1.7158902E+00
   3.8396545E-04   9.1500208E+04   -1.7153251E+00
   3.8573864E-04   9.0780022E+04   -1.7147603E+00
   3.8752002E-04   9.0065738E+04   -1.7141959E+00
   3.8930963E-04   8.9357306E+04   -1.7136318E+00
   3.9110750E-04   8.8654677E+04   -1.7130682E+00
   3.9291368E-04   8.7957802E+04   -1.7125049E+00
   3.9472820E-04   8.7266630E+04   -1.7119420E+00
   3.9655109E-04   8.6581115E+04   -1.7113795E+00
   3.9838241E-04   8.5901206E+04   -1.7108174E+00
   4.0022218E-04   8.5226858E+04   -1.7102556E+00
   4.0207045E-04   8.4558023E+04   -1.7096944E+00
   4.0392725E-04   8.3894653E+04   -1.7091335E+00
   4.0579263E-04   8.3236702E+04   -1.7085730E+00
   4.0766662E-04   8.2584125E+04   -1.7080130E+00
   4.0954927E-04   8.1936875E+04   -1.7074534E+00
   4.1144061E-04   8.1294907E+04   -1.7068942E+00
   4.1334068E-04   8.0658177E+04   -1.7063355E+00
   4.1524953E-04   8.0026640E+04   -1.7057773E+00
   4.1716720E-04   7.9400252E+04   -1.7052195E+00
   4.1909372E-04   7.8778969E+04   -1.7046621E+00
   4.2102914E-04   7.8162748E+04   -1.7041052E+00
   4.2297350E-04   7.7551546E+04   -1.7035488E+00
   4.2492683E-04   7.6945321E+04   -1.7029929E+00
   4.2688919E-04   7.6344030E+04   -1.7024374E+00
   4.2886061E-04   7.5747632E+04   -1.7018824E+00
   4.3084113E-04   7.5156085E+04   -1.7013279E+00
   4.3283080E-04   7.4569348E+04   -1.7007739E+00
   4.3482966E-04   7.3987380E+04   -1.7002205E+00
   4.3683775E-04   7.3410141E+04   -1.6996675E+00
   4.3885511E-04   7.2837592E+04   -1.6991150E+00
   4.4088179E-04   7.2269691E+04   -1.6985630E+00
   4.4291783E-04   7.1706401E+04   -1.6980116E+00
   4.4496327E-04   7.1147682E+04   -1.6974607E+00
   4.4701816E-04   7.0593495E+04   -1.6969103E+00
   4.4908253E-04   7.0043803E+04   -1.6963605E+00
   4.5115644E-04   6.9498567E+04   -1.6958112E+00
   4.5323993E-04   6.8957749E+04   -1.6952625E+00
   4.5533304E-04   6.8421313E+04   -1.6947143E+00
   4.5743582E-04   6.7889222E+04   -1.6941667E+00
   4.5954830E-04   6.7361438E+04   -1.6936196E+00
   4.6167054E-04   6.6837926E+04   -1.6930731E+00
   4.6380259E-04   6.6318649E+04   -1.6925271E+00
   4.6594448E-04   6.5803572E+04   -1.6919818E+00
   4.6809626E-04   6.5292659E+04   -1.6914370E+00
   4.7025797E-04   6.4785876E+04   -1.6908928E+00
   4.7242967E-04   6.4283187E+04   -1.6903492E+00
   4.7461140E-04   6.3784559E+04   -1.6898062E+00
   4.7680321E-04   6.3289956E+04   -1.6892638E+00
   4.7900514E-04   6.2799346E+04   -1.6887221E+00
   4.8121723E-04   6.2312694E+04   -1.6881809E+00
   4.8343954E-04   6.1829967E+04   -1.6876403E+00
   4.8567212E-04   6.1351133E+04   -1.6871004E+00
   4.8791500E-04   6.0876159E+04   -1.6865610E+00
   4.9016825E-04   6.0405011E+04   -1.6860224E+00
   4.9243189E-04   5.9937659E+04   -1.6854843E+00
   4.9470600E-04   5.9474070E+04   -1.6849469E+00
   4.9699060E-04   5.9014213E+04   -1.6844101E+00
   4.9928575E-04   5.8558056E+04   -1.6838740E+00
   5.0159151E-04   5.8105568E+04   -1.6833385E+00
   5.0390791E-04   5.7656719E+04   -1.6828037E+00
   5.0623501E-04   5.7211478E+04   -1.6822695E+00
   5.0857286E-04   5.6769815E+04   -1.6817360E+00
   5.1092150E-04   5.6331700E+04   -1.6812032E+00
   5.1328099E-04   5.5897103E+04   -1.6806710E+00
   5.1565137E-04   5.5465995E+04   -1.6801396E+00
   5.1803270E-04   5.5038347E+04   -1.6796088E+00
   5.2042503E-04   5.4614130E+04   -1.6790787E+00
   5.2282841E-04   5.4193314E+04   -1.6785493E+00
   5.2524289E-04   5.3775872E+04   -1.6780205E+00
   5.2766851E-04   5.3361775E+04   -1.6774925E+00
   5.3010534E-04   5.2950996E+04   -1.6769652E+00
   5.3255342E-04   5.2543506E+04   -1.6764386E+00
   5.3501281E-04   5.2139279E+04   -1.6759127E+00
   5.3748356E-04   5.1738287E+04   -1.6753876E+00
   5.3996571E-04   5.1340503E+04   -1.6748631E+00
   5.4245933E-04   5.0945900E+04   -1.6743394E+00
   5.4496446E-04   5.0554452E+04   -1.6738164E+00
   5.4748117E-04   5.0166133E+04   -1.6732941E+00
   5.5000949E-04   4.9780916E+04   -1.6727726E+00
   5.5254949E-04   4.9398776E+04   -1.6722518E+00
   5.5510123E-04   4.9019687E+04   -1.6717317E+00
   5.5766474E-04   4.8643623E+04   -1.6712124E+00
   5.6024010E-04   4.8270560E+04   -1.6706939E+00
   5.6282734E-04   4.7900473E+04   -1.6701761E+00
   5.6542654E-04   4.7533336E+04   -1.6696591E+00
   5.6803774E-04   4.7169125E+04   -1.6691428E+00
   5.7066099E-04   4.6807816E+04   -1.6686273E+00
   5.7329637E-04   4.6449385E+04   -1.6681126E+00
   5.7594391E-04   4.6093808E+04   -1.6675986E+00
   5.7860368E-04   4.5741061E+04   -1.6670855E+00
   5.8127573E-04   4.5391122E+04   -1.6665731E+00
   5.8396012E-04   4.5043965E+04   -1.6660615E+00
   5.8665691E-04   4.4699569E+04   -1.6655506E+00
   5.8936616E-04   4.4357910E+04   -1.6650406E+00
   5.9208791E-04   4.4018966E+04   -1.6645314E+00
   5.9482223E-04   4.3682715E+04   -1.6640230E+00
   5.9756919E-04   4.3349133E+04   -1.6635154E+00
   6.0032882E-04   4.3018200E+04   -1.6630085E+00
   6.0310120E-04   4.2689892E+04   -1.6625025E+00
   6.0588639E-04   4.2364188E+04   -1.6619973E+00
   6.0868443E-04   4.2041068E+04   -1.6614930E+00
   6.1149540E-04   4.1720509E+04   -1.6609894E+00
   6.1431935E-04   4.1402490E+04   -1.6604867E+00
   6.1715634E-04   4.1086990E+04   -1.6599848E+00
   6.2000644E-04   4.0773989E+04   -1.6594837E+00
   6.2286969E-04   4.0463465E+04   -1.6589835E+00
