#        a       HoverH0(a)       dlogHdloga_of_a(a)
   1.0000000E-04   1.1366084E+06   -1.8679412E+00
   1.0046181E-04   1.1268693E+06   -1.8674929E+00
   1.0092575E-04   1.1172160E+06   -1.8670437E+00
   1.0139184E-04   1.1076477E+06   -1.8665935E+00
   1.0186008E-04   1.0981636E+06   -1.8661423E+00
   1.0233048E-04   1.0887629E+06   -1.8656902E+00
   1.0280305E-04   1.0794450E+06   -1.8652371E+00
   1.0327781E-04   1.0702091E+06   -1.8647830E+00
   1.0375475E-04   1.0610545E+06   -1.8643280E+00
   1.0423390E-04   1.0519803E+06   -1.8638720E+00
   1.0471527E-04   1.0429859E+06   -1.8634151E+00
   1.0519885E-04   1.0340707E+06   -1.8629572E+00
   1.0568467E-04   1.0252338E+06   -1.8624983E+00
   1.0617274E-04   1.0164745E+06   -1.8620385E+00
   1.0666305E-04   1.0077923E+06   -1.8615778E+00
   1.0715563E-04   9.9918628E+05   -1.8611161E+00
   1.0765049E-04   9.9065590E+05   -1.8606534E+00
   1.0814763E-04   9.8220045E+05   -1.8601899E+00
   1.0864707E-04   9.7381924E+05   -1.8597253E+00
   1.0914881E-04   9.6551162E+05   -1.8592598E+00
   1.0965287E-04   9.5727693E+05   -1.8587934E+00
   1.1015926E-04   9.4911451E+05   -1.8583261E+00
   1.1066799E-04   9.4102372E+05   -1.8578578E+00
   1.1117906E-04   9.3300392E+05   -1.8573886E+00
   1.1169250E-04   9.2505446E+05   -1.8569184E+00
   1.1220831E-04   9.1717472E+05   -1.8564474E+00
   1.1272650E-04   9.0936408E+05   -1.8559754E+00
   1.1324708E-04   9.0162192E+05   -1.8555024E+00
   1.1377007E-04   8.9394762E+05   -1.8550286E+00
   1.1429547E-04   8.8634059E+05   -1.8545538E+00
   1.1482330E-04   8.7880021E+05   -1.8540782E+00
   1.1535356E-04   8.7132588E+05   -1.8536016E+00
   1.1588628E-04   8.6391703E+05   -1.8531241E+00
   1.1642145E-04   8.5657306E+05   -1.8526457E+00
   1.1695910E-04   8.4929340E+05   -1.8521664E+00
   1.1749923E-04   8.4207746E+05   -1.8516861E+00
   1.1804185E-04   8.3492468E+05   -1.8512050E+00
   1.1858698E-04   8.2783449E+05   -1.8507230E+00
   1.1913463E-04   8.2080634E+05   -1.8502401E+00
   1.1968481E-04   8.1383967E+05   -1.8497563E+00
   1.2023752E-04   8.0693393E+05   -1.8492716E+00
   1.2079279E-04   8.0008857E+05   -1.8487860E+00
   1.2135063E-04   7.9330307E+05   -1.8482995E+00
   1.2191104E-04   7.8657687E+05   -1.8478122E+00
   1.2247403E-04   7.7990946E+05   -1.8473240E+00
   1.2303963E-04   7.7330031E+05   -1.8468349E+00
   1.2360784E-04   7.6674889E+05   -1.8463449E+00
   1.2417868E-04   7.6025469E+05   -1.8458540E+00
   1.2475215E-04   7.5381721E+05   -1.8453623E+00
   1.2532826E-04   7.4743592E+05   -1.8448697E+00
   1.2590704E-04   7.4111034E+05   -1.8443763E+00
   1.2648850E-04   7.3483997E+05   -1.8438820E+00
   1.2707263E-04   7.2862431E+05   -1.8433868E+00
   1.2765947E-04   7.2246287E+05   -1.8428908E+00
   1.2824901E-04   7.1635518E+05   -1.8423939E+00
   1.2884128E-04   7.1030075E+05   -1.8418962E+00
   1.2943628E-04   7.0429911E+05   -1.8413976E+00
   1.3003403E-04   6.9834978E+05   -1.8408982E+00
   1.3063454E-04   6.9245230E+05   -1.8403980E+00
   1.3123783E-04   6.8660621E+05   -1.8398969E+00
   1.3184390E-04   6.8081105E+05   -1.8393950E+00
   1.3245277E-04   6.7506636E+05   -1.8388923E+00
   1.3306445E-04   6.6937170E+05   -1.8383888E+00
   1.3367895E-04   6.6372662E+05   -1.8378844E+00
   1.3429630E-04   6.5813067E+05   -1.8373792E+00
   1.3491649E-04   6.5258343E+05   -1.8368732E+00
   1.3553955E-04   6.4708445E+05   -1.8363664E+00
   1.3616548E-04   6.4163331E+05   -1.8358588E+00
   1.3679431E-04   6.3622958E+05   -1.8353503E+00
   1.3742604E-04   6.3087284E+05   -1.8348411E+00
   1.3806069E-04   6.2556267E+05   -1.8343311E+00
   1.3869827E-04   6.2029865E+05   -1.8338203E+00
   1.3933879E-04   6.1508038E+05   -1.8333086E+00
   1.3998227E-04   6.0990744E+05   -1.8327962E+00
   1.4062872E-04   6.0477944E+05   -1.8322831E+00
   1.4127816E-04   5.9969598E+05   -1.8317691E+00
   1.4193060E-04   5.9465665E+05   -1.8312544E+00
   1.4258605E-04   5.8966106E+05   -1.8307389E+00
   1.4324453E-04   5.8470884E+05   -1.8302226E+00
   1.4390605E-04   5.7979958E+05   -1.8297056E+00
   1.4457062E-04   5.7493292E+05   -1.8291878E+00
   1.4523826E-04   5.7010847E+05   -1.8286692E+00
   1.4590899E-04   5.6532585E+05   -1.8281499E+00
   1.4658281E-04   5.6058469E+05   -1.8276299E+00
   1.4725974E-04   5.5588463E+05   -1.8271091E+00
   1.4793981E-04   5.5122530E+05   -1.8265875E+00
   1.4862301E-04   5.4660634E+05   -1.8260652E+00
   1.4930936E-04   5.4202738E+05   -1.8255422E+00
   1.4999889E-04   5.3748808E+05   -1.8250185E+00
   1.5069160E-04   5.3298809E+05   -1.8244940E+00
   1.5138751E-04   5.2852704E+05   -1.8239689E+00
   1.5208663E-04   5.2410461E+05   -1.8234430E+00
   1.5278899E-04   5.1972043E+05   -1.8229163E+00
   1.5349458E-04   5.1537419E+05   -1.8223890E+00
   1.5420343E-04   5.1106553E+05   -1.8218610E+00
   1.5491556E-04   5.0679413E+05   -1.8213323E+00
   1.5563098E-04   5.0255965E+05   -1.8208028E+00
   1.5634970E-04   4.9836177E+05   -1.8202727E+00
   1.5707174E-04   4.9420017E+05   -1.8197419E+00
   1.5779711E-04   4.9007451E+05   -1.8192105E+00
   1.5852584E-04   4.8598449E+05   -1.8186783E+00
   1.5925792E-04   4.8192978E+05   -1.8181455E+00
   1.5999339E-04   4.7791007E+05   -1.8176120E+00
   1.6073226E-04   4.7392506E+05   -1.8170778E+00
   1.6147454E-04   4.6997444E+05   -1.8165430E+00
   1.6222024E-04   4.6605789E+05   -1.8160075E+00
   1.6296939E-04   4.6217513E+05   -1.8154713E+00
   1.6372200E-04   4.5832585E+05   -1.8149345E+00
   1.6447809E-04   4.5450975E+05   -1.8143971E+00
   1.6523767E-04   4.5072654E+05   -1.8138590E+00
   1.6600075E-04   4.4697594E+05   -1.8133203E+00
   1.6676736E-04   4.4325764E+05   -1.8127810E+00
   1.6753751E-04   4.3957136E+05   -1.8122410E+00
   1.6831122E-04   4.3591683E+05   -1.8117005E+00
   1.6908849E-04   4.3229376E+05   -1.8111593E+00
   1.6986936E-04   4.2870187E+05   -1.8106175E+00
   1.7065384E-04   4.2514088E+05   -1.8100751E+00
   1.7144193E-04   4.2161053E+05   -1.8095321E+00
   1.7223367E-04   4.1811054E+05   -1.8089884E+00
   1.7302906E-04   4.1464065E+05   -1.8084443E+00
   1.7382813E-04   4.1120059E+05   -1.8078995E+00
   1.7463089E-04   4.0779009E+05   -1.8073541E+00
   1.7543735E-04   4.0440889E+05   -1.8068082E+00
   1.7624754E-04   4.0105674E+05   -1.8062616E+00
   1.7706147E-04   3.9773338E+05   -1.8057146E+00
   1.7787916E-04   3.9443854E+05   -1.8051669E+00
   1.7870062E-04   3.9117200E+05   -1.8046187E+00
   1.7952588E-04   3.8793348E+05   -1.8040700E+00
   1.8035495E-04   3.8472275E+05   -1.8035207E+00
   1.8118785E-04   3.8153956E+05   -1.8029708E+00
   1.8202459E-04   3.7838366E+05   -1.8024204E+00
   1.8286520E-04   3.7525482E+05   -1.8018695E+00
   1.8370969E-04   3.7215280E+05   -1.8013181E+00
   1.8455808E-04   3.6907736E+05   -1.8007661E+00
   1.8541039E-04   3.6602827E+05   -1.8002136E+00
   1.8626663E-04   3.6300529E+05   -1.7996606E+00
   1.8712683E-04   3.6000819E+05   -1.7991071E+00
   1.8799100E-04   3.5703675E+05   -1.7985531E+00
   1.8885917E-04   3.5409074E+05   -1.7979986E+00
   1.8973134E-04   3.5116994E+05   -1.7974437E+00
   1.9060754E-04   3.4827412E+05   -1.7968882E+00
   1.9148778E-04   3.4540306E+05   -1.7963322E+00
   1.9237209E-04   3.4255655E+05   -1.7957758E+00
   1.9326049E-04   3.3973437E+05   -1.7952189E+00
   1.9415299E-04   3.3693630E+05   -1.7946615E+00
   1.9504960E-04   3.3416214E+05   -1.7941037E+00
   1.9595036E-04   3.3141168E+05   -1.7935454E+00
   1.9685528E-04   3.2868469E+05   -1.7929867E+00
   1.9776438E-04   3.2598099E+05   -1.7924276E+00
   1.9867768E-04   3.2330036E+05   -1.7918679E+00
   1.9959519E-04   3.2064260E+05   -1.7913079E+00
   2.0051694E-04   3.1800750E+05   -1.7907474E+00
   2.0144295E-04   3.1539488E+05   -1.7901866E+00
   2.0237324E-04   3.1280453E+05   -1.7896253E+00
   2.0330782E-04   3.1023626E+05   -1.7890635E+00
   2.0424671E-04   3.0768987E+05   -1.7885014E+00
   2.0518995E-04   3.0516518E+05   -1.7879389E+00
   2.0613754E-04   3.0266198E+05   -1.7873760E+00
   2.0708950E-04   3.0018010E+05   -1.7868127E+00
   2.0804586E-04   2.9771934E+05   -1.7862490E+00
   2.0900664E-04   2.9527952E+05   -1.7856850E+00
   2.0997185E-04   2.9286046E+05   -1.7851205E+00
   2.1094152E-04   2.9046197E+05   -1.7845557E+00
   2.1191567E-04   2.8808387E+05   -1.7839906E+00
   2.1289432E-04   2.8572599E+05   -1.7834251E+00
   2.1387749E-04   2.8338814E+05   -1.7828592E+00
   2.1486520E-04   2.8107016E+05   -1.7822930E+00
   2.1585747E-04   2.7877186E+05   -1.7817265E+00
   2.1685432E-04   2.7649308E+05   -1.7811596E+00
   2.1785578E-04   2.7423364E+05   -1.7805924E+00
   2.1886186E-04   2.7199338E+05   -1.7800249E+00
   2.1987259E-04   2.6977212E+05   -1.7794571E+00
   2.2088798E-04   2.6756971E+05   -1.7788889E+00
   2.2190807E-04   2.6538597E+05   -1.7783205E+00
   2.2293286E-04   2.6322074E+05   -1.7777517E+00
   2.2396239E-04   2.6107386E+05   -1.7771827E+00
   2.2499667E-04   2.5894517E+05   -1.7766134E+00
   2.2603573E-04   2.5683451E+05   -1.7760438E+00
   2.2707958E-04   2.5474173E+05   -1.7754739E+00
   2.2812826E-04   2.5266666E+05   -1.7749038E+00
   2.2918178E-04   2.5060915E+05   -1.7743334E+00
   2.3024017E-04   2.4856905E+05   -1.7737627E+00
   2.3130344E-04   2.4654621E+05   -1.7731918E+00
   2.3237162E-04   2.4454047E+05   -1.7726207E+00
   2.3344474E-04   2.4255168E+05   -1.7720493E+00
   2.3452281E-04   2.4057971E+05   -1.7714777E+00
   2.3560586E-04   2.3862439E+05   -1.7709058E+00
   2.3669392E-04   2.3668560E+05   -1.7703337E+00
   2.3778699E-04   2.3476317E+05   -1.7697614E+00
   2.3888512E-04   2.3285697E+05   -1.7691890E+00
   2.3998831E-04   2.3096686E+05   -1.7686163E+00
   2.4109661E-04   2.2909269E+05   -1.7680434E+00
   2.4221001E-04   2.2723434E+05   -1.7674703E+00
   2.4332857E-04   2.2539165E+05   -1.7668970E+00
   2.4445228E-04   2.2356449E+05   -1.7663236E+00
   2.4558119E-04   2.2175274E+05   -1.7657499E+00
   2.4671531E-04   2.1995625E+05   -1.7651761E+00
   2.4785467E-04   2.1817488E+05   -1.7646022E+00
   2.4899928E-04   2.1640852E+05   -1.7640281E+00
   2.5014919E-04   2.1465703E+05   -1.7634538E+00
   2.5130440E-04   2.1292027E+05   -1.7628794E+00
   2.5246495E-04   2.1119813E+05   -1.7623049E+00
   2.5363086E-04   2.0949047E+05   -1.7617303E+00
   2.5480216E-04   2.0779717E+05   -1.7611555E+00
   2.5597886E-04   2.0611810E+05   -1.7605806E+00
   2.5716100E-04   2.0445314E+05   -1.7600055E+00
   2.5834859E-04   2.0280216E+05   -1.7594304E+00
   2.5954168E-04   2.0116505E+05   -1.7588552E+00
   2.6074027E-04   1.9954169E+05   -1.7582799E+00
   2.6194439E-04   1.9793195E+05   -1.7577045E+00
   2.6315408E-04   1.9633571E+05   -1.7571290E+00
   2.6436935E-04   1.9475287E+05   -1.7565534E+00
   2.6559024E-04   1.9318330E+05   -1.7559778E+00
   2.6681676E-04   1.9162689E+05   -1.7554021E+00
   2.6804895E-04   1.9008352E+05   -1.7548263E+00
   2.6928683E-04   1.8855308E+05   -1.7542505E+00
   2.7053042E-04   1.8703546E+05   -1.7536746E+00
   2.7177976E-04   1.8553054E+05   -1.7530987E+00
   2.7303487E-04   1.8403823E+05   -1.7525228E+00
   2.7429577E-04   1.8255840E+05   -1.7519469E+00
   2.7556250E-04   1.8109095E+05   -1.7513709E+00
   2.7683507E-04   1.7963577E+05   -1.7507949E+00
   2.7811353E-04   1.7819276E+05   -1.7502189E+00
   2.7939788E-04   1.7676181E+05   -1.7496429E+00
   2.8068817E-04   1.7534282E+05   -1.7490669E+00
   2.8198442E-04   1.7393568E+05   -1.7484909E+00
   2.8328665E-04   1.7254029E+05   -1.7479149E+00
   2.8459490E-04   1.7115655E+05   -1.7473390E+00
   2.8590919E-04   1.6978436E+05   -1.7467630E+00
   2.8722955E-04   1.6842361E+05   -1.7461871E+00
   2.8855600E-04   1.6707422E+05   -1.7456113E+00
   2.8988859E-04   1.6573607E+05   -1.7450355E+00
   2.9122732E-04   1.6440908E+05   -1.7444597E+00
   2.9257224E-04   1.6309315E+05   -1.7438840E+00
   2.9392337E-04   1.6178818E+05   -1.7433084E+00
   2.9528074E-04   1.6049407E+05   -1.7427328E+00
   2.9664438E-04   1.5921074E+05   -1.7421574E+00
   2.9801431E-04   1.5793809E+05   -1.7415820E+00
   2.9939057E-04   1.5667603E+05   -1.7410066E+00
   3.0077319E-04   1.5542446E+05   -1.7404314E+00
   3.0216219E-04   1.5418330E+05   -1.7398563E+00
   3.0355761E-04   1.5295246E+05   -1.7392813E+00
   3.0495947E-04   1.5173184E+05   -1.7387064E+00
   3.0636780E-04   1.5052137E+05   -1.7381316E+00
   3.0778264E-04   1.4932094E+05   -1.7375570E+00
   3.0920401E-04   1.4813049E+05   -1.7369825E+00
   3.1063195E-04   1.4694991E+05   -1.7364081E+00
   3.1206648E-04   1.4577913E+05   -1.7358338E+00
   3.1350764E-04   1.4461805E+05   -1.7352597E+00
   3.1495545E-04   1.4346661E+05   -1.7346858E+00
   3.1640994E-04   1.4232471E+05   -1.7341120E+00
   3.1787116E-04   1.4119227E+05   -1.7335384E+00
   3.1933912E-04   1.4006921E+05   -1.7329650E+00
   3.2081386E-04   1.3895545E+05   -1.7323917E+00
   3.2229541E-04   1.3785091E+05   -1.7318187E+00
   3.2378381E-04   1.3675551E+05   -1.7312458E+00
   3.2527908E-04   1.3566918E+05   -1.7306731E+00
   3.2678125E-04   1.3459183E+05   -1.7301006E+00
   3.2829036E-04   1.3352338E+05   -1.7295284E+00
   3.2980644E-04   1.3246377E+05   -1.7289563E+00
   3.3132952E-04   1.3141291E+05   -1.7283845E+00
   3.3285963E-04   1.3037074E+05   -1.7278129E+00
   3.3439681E-04   1.2933716E+05   -1.7272415E+00
   3.3594109E-04   1.2831212E+05   -1.7266704E+00
   3.3749250E-04   1.2729554E+05   -1.7260995E+00
   3.3905108E-04   1.2628735E+05   -1.7255288E+00
   3.4061685E-04   1.2528747E+05   -1.7249585E+00
   3.4218986E-04   1.2429583E+05   -1.7243883E+00
   3.4377013E-04   1.2331237E+05   -1.7238185E+00
   3.4535769E-04   1.2233700E+05   -1.7232489E+00
   3.4695259E-04   1.2136967E+05   -1.7226796E+00
   3.4855485E-04   1.2041031E+05   -1.7221106E+00
   3.5016452E-04   1.1945884E+05   -1.7215419E+00
   3.5178161E-04   1.1851520E+05   -1.7209735E+00
   3.5340618E-04   1.1757932E+05   -1.7204054E+00
   3.5503824E-04   1.1665114E+05   -1.7198376E+00
   3.5667785E-04   1.1573059E+05   -1.7192701E+00
   3.5832502E-04   1.1481760E+05   -1.7187029E+00
   3.5997981E-04   1.1391212E+05   -1.7181361E+00
   3.6164223E-04   1.1301406E+05   -1.7175695E+00
   3.6331233E-04   1.1212339E+05   -1.7170034E+00
   3.6499015E-04   1.1124002E+05   -1.7164375E+00
   3.6667571E-04   1.1036389E+05   -1.7158721E+00
   3.6836906E-04   1.0949496E+05   -1.7153069E+00
   3.7007022E-04   1.0863315E+05   -1.7147422E+00
   3.7177925E-04   1.0777840E+05   -1.7141778E+00
   3.7349616E-04   1.0693065E+05   -1.7136137E+00
   3.7522101E-04   1.0608985E+05   -1.7130501E+00
   3.7695382E-04   1.0525593E+05   -1.7124868E+00
   3.7869463E-04   1.0442884E+05   -1.7119239E+00
   3.8044348E-04   1.0360852E+05   -1.7113614E+00
   3.8220041E-04   1.0279491E+05   -1.7107994E+00
   3.8396545E-04   1.0198795E+05   -1.7102377E+00
   3.8573864E-04   1.0118758E+05   -1.7096764E+00
   3.8752002E-04   1.0039376E+05   -1.7091156E+00
   3.8930963E-04   9.9606422E+04   -1.7085551E+00
   3.9110750E-04   9.8825513E+04   -1.7079951E+00
   3.9291368E-04   9.8050980E+04   -1.7074356E+00
   3.9472820E-04   9.7282768E+04   -1.7068764E+00
   3.9655109E-04   9.6520823E+04   -1.7063177E+00
   3.9838241E-04   9.5765093E+04   -1.7057595E+00
   4.0022218E-04   9.5015523E+04   -1.7052017E+00
   4.0207045E-04   9.4272063E+04   -1.7046444E+00
   4.0392725E-04   9.3534661E+04   -1.7040875E+00
   4.0579263E-04   9.2803265E+04   -1.7035311E+00
   4.0766662E-04   9.2077823E+04   -1.7029752E+00
   4.0954927E-04   9.1358287E+04   -1.7024198E+00
   4.1144061E-04   9.0644605E+04   -1.7018648E+00
   4.1334068E-04   8.9936728E+04   -1.7013104E+00
   4.1524953E-04   8.9234607E+04   -1.7007564E+00
   4.1716720E-04   8.8538193E+04   -1.7002029E+00
   4.1909372E-04   8.7847438E+04   -1.6996500E+00
   4.2102914E-04   8.7162294E+04   -1.6990975E+00
   4.2297350E-04   8.6482713E+04   -1.6985456E+00
   4.2492683E-04   8.5808650E+04   -1.6979942E+00
   4.2688919E-04   8.5140056E+04   -1.6974433E+00
   4.2886061E-04   8.4476886E+04   -1.6968930E+00
   4.3084113E-04   8.3819095E+04   -1.6963432E+00
   4.3283080E-04   8.3166635E+04   -1.6957939E+00
   4.3482966E-04   8.2519464E+04   -1.6952452E+00
   4.3683775E-04   8.1877535E+04   -1.6946970E+00
   4.3885511E-04   8.1240805E+04   -1.6941494E+00
   4.4088179E-04   8.0609230E+04   -1.6936024E+00
   4.4291783E-04   7.9982766E+04   -1.6930559E+00
   4.4496327E-04   7.9361370E+04   -1.6925100E+00
   4.4701816E-04   7.8745001E+04   -1.6919647E+00
   4.4908253E-04   7.8133614E+04   -1.6914200E+00
   4.5115644E-04   7.7527169E+04   -1.6908758E+00
   4.5323993E-04   7.6925624E+04   -1.6903322E+00
   4.5533304E-04   7.6328937E+04   -1.6897893E+00
   4.5743582E-04   7.5737068E+04   -1.6892469E+00
   4.5954830E-04   7.5149976E+04   -1.6887051E+00
   4.6167054E-04   7.4567621E+04   -1.6881640E+00
   4.6380259E-04   7.3989963E+04   -1.6876235E+00
   4.6594448E-04   7.3416963E+04   -1.6870835E+00
   4.6809626E-04   7.2848582E+04   -1.6865443E+00
   4.7025797E-04   7.2284780E+04   -1.6860056E+00
   4.7242967E-04   7.1725520E+04   -1.6854676E+00
   4.7461140E-04   7.1170763E+04   -1.6849302E+00
   4.7680321E-04   7.0620471E+04   -1.6843934E+00
   4.7900514E-04   7.0074608E+04   -1.6838573E+00
   4.8121723E-04   6.9533135E+04   -1.6833219E+00
   4.8343954E-04   6.8996017E+04   -1.6827871E+00
   4.8567212E-04   6.8463216E+04   -1.6822530E+00
   4.8791500E-04   6.7934697E+04   -1.6817195E+00
   4.9016825E-04   6.7410423E+04   -1.6811867E+00
   4.9243189E-04   6.6890360E+04   -1.6806546E+00
   4.9470600E-04   6.6374471E+04   -1.6801232E+00
   4.9699060E-04   6.5862722E+04   -1.6795924E+00
   4.9928575E-04   6.5355079E+04   -1.6790624E+00
   5.0159151E-04   6.4851506E+04   -1.6785330E+00
   5.0390791E-04   6.4351971E+04   -1.6780043E+00
   5.0623501E-04   6.3856438E+04   -1.6774763E+00
   5.0857286E-04   6.3364876E+04   -1.6769490E+00
   5.1092150E-04   6.2877250E+04   -1.6764225E+00
   5.1328099E-04   6.2393528E+04   -1.6758966E+00
   5.1565137E-04   6.1913677E+04   -1.6753715E+00
   5.1803270E-04   6.1437665E+04   -1.6748471E+00
   5.2042503E-04   6.0965461E+04   -1.6743234E+00
   5.2282841E-04   6.0497031E+04   -1.6738004E+00
   5.2524289E-04   6.0032345E+04   -1.6732782E+00
   5.2766851E-04   5.9571372E+04   -1.6727567E+00
   5.3010534E-04   5.9114080E+04   -1.6722359E+00
   5.3255342E-04   5.8660439E+04   -1.6717159E+00
   5.3501281E-04   5.8210419E+04   -1.6711967E+00
   5.3748356E-04   5.7763989E+04   -1.6706782E+00
   5.3996571E-04   5.7321120E+04   -1.6701604E+00
   5.4245933E-04   5.6881782E+04   -1.6696434E+00
   5.4496446E-04   5.6445946E+04   -1.6691272E+00
   5.4748117E-04   5.6013582E+04   -1.6686117E+00
   5.5000949E-04   5.5584662E+04   -1.6680970E+00
   5.5254949E-04   5.5159157E+04   -1.6675831E+00
   5.5510123E-04   5.4737039E+04   -1.6670700E+00
   5.5766474E-04   5.4318279E+04   -1.6665576E+00
   5.6024010E-04   5.3902850E+04   -1.6660461E+00
   5.6282734E-04   5.3490725E+04   -1.6655353E+00
   5.6542654E-04   5.3081875E+04   -1.6650253E+00
   5.6803774E-04   5.2676274E+04   -1.6645161E+00
   5.7066099E-04   5.2273895E+04   -1.6640078E+00
   5.7329637E-04   5.1874711E+04   -1.6635002E+00
   5.7594391E-04   5.1478695E+04   -1.6629934E+00
   5.7860368E-04   5.1085822E+04   -1.6624874E+00
   5.8127573E-04   5.0696065E+04   -1.6619823E+00
   5.8396012E-04   5.0309399E+04   -1.6614780E+00
   5.8665691E-04   4.9925798E+04   -1.6609745E+00
   5.8936616E-04   4.9545237E+04   -1.6604718E+00
   5.9208791E-04   4.9167690E+04   -1.6599699E+00
   5.9482223E-04   4.8793133E+04   -1.6594689E+00
   5.9756919E-04   4.8421542E+04   -1.6589687E+00
   6.0032882E-04   4.8052890E+04   -1.6584693E+00
   6.0310120E-04   4.7687155E+04   -1.6579708E+00
   6.0588639E-04   4.7324312E+04   -1.6574732E+00
   6.0868443E-04   4.6964338E+04   -1.6569763E+00
   6.1149540E-04   4.6607208E+04   -1.6564804E+00
   6.1431935E-04   4.6252900E+04   -1.6559852E+00
   6.1715634E-04   4.5901390E+04   -1.6554910E+00
   6.2000644E-04   4.5552655E+04   -1.6549976E+00
   6.2286969E-04   4.5206672E+04   -1.6545050E+00
