#        a       HoverH0(a)       dlogHdloga_of_a(a)
   1.0000000E-04   1.1316869E+06   -1.8701816E+00
   1.0046181E-04   1.1219784E+06   -1.8697382E+00
   1.0092575E-04   1.1123555E+06   -1.8692939E+00
   1.0139184E-04   1.1028173E+06   -1.8688486E+00
   1.0186008E-04   1.0933632E+06   -1.8684023E+00
   1.0233048E-04   1.0839924E+06   -1.8679551E+00
   1.0280305E-04   1.0747041E+06   -1.8675069E+00
   1.0327781E-04   1.0654976E+06   -1.8670577E+00
   1.0375475E-04   1.0563722E+06   -1.8666075E+00
   1.0423390E-04   1.0473270E+06   -1.8661564E+00
   1.0471527E-04   1.0383615E+06   -1.8657043E+00
   1.0519885E-04   1.0294749E+06   -1.8652512E+00
   1.0568467E-04   1.0206665E+06   -1.8647972E+00
   1.0617274E-04   1.0119355E+06   -1.8643422E+00
   1.0666305E-04   1.0032814E+06   -1.8638862E+00
   1.0715563E-04   9.9470332E+05   -1.8634293E+00
   1.0765049E-04   9.8620070E+05   -1.8629715E+00
   1.0814763E-04   9.7777281E+05   -1.8625126E+00
   1.0864707E-04   9.6941900E+05   -1.8620529E+00
   1.0914881E-04   9.6113861E+05   -1.8615921E+00
   1.0965287E-04   9.5293096E+05   -1.8611305E+00
   1.1015926E-04   9.4479541E+05   -1.8606678E+00
   1.1066799E-04   9.3673132E+05   -1.8602043E+00
   1.1117906E-04   9.2873805E+05   -1.8597398E+00
   1.1169250E-04   9.2081495E+05   -1.8592743E+00
   1.1220831E-04   9.1296141E+05   -1.8588079E+00
   1.1272650E-04   9.0517679E+05   -1.8583406E+00
   1.1324708E-04   8.9746049E+05   -1.8578724E+00
   1.1377007E-04   8.8981189E+05   -1.8574032E+00
   1.1429547E-04   8.8223038E+05   -1.8569331E+00
   1.1482330E-04   8.7471537E+05   -1.8564620E+00
   1.1535356E-04   8.6726626E+05   -1.8559901E+00
   1.1588628E-04   8.5988245E+05   -1.8555172E+00
   1.1642145E-04   8.5256337E+05   -1.8550433E+00
   1.1695910E-04   8.4530843E+05   -1.8545686E+00
   1.1749923E-04   8.3811707E+05   -1.8540930E+00
   1.1804185E-04   8.3098870E+05   -1.8536164E+00
   1.1858698E-04   8.2392278E+05   -1.8531389E+00
   1.1913463E-04   8.1691873E+05   -1.8526606E+00
   1.1968481E-04   8.0997602E+05   -1.8521813E+00
   1.2023752E-04   8.0309408E+05   -1.8517011E+00
   1.2079279E-04   7.9627238E+05   -1.8512200E+00
   1.2135063E-04   7.8951038E+05   -1.8507380E+00
   1.2191104E-04   7.8280754E+05   -1.8502551E+00
   1.2247403E-04   7.7616333E+05   -1.8497713E+00
   1.2303963E-04   7.6957723E+05   -1.8492867E+00
   1.2360784E-04   7.6304873E+05   -1.8488011E+00
   1.2417868E-04   7.5657730E+05   -1.8483147E+00
   1.2475215E-04   7.5016244E+05   -1.8478273E+00
   1.2532826E-04   7.4380365E+05   -1.8473391E+00
   1.2590704E-04   7.3750041E+05   -1.8468500E+00
   1.2648850E-04   7.3125224E+05   -1.8463601E+00
   1.2707263E-04   7.2505864E+05   -1.8458693E+00
   1.2765947E-04   7.1891912E+05   -1.8453776E+00
   1.2824901E-04   7.1283321E+05   -1.8448850E+00
   1.2884128E-04   7.0680043E+05   -1.8443916E+00
   1.2943628E-04   7.0082030E+05   -1.8438973E+00
   1.3003403E-04   6.9489235E+05   -1.8434022E+00
   1.3063454E-04   6.8901611E+05   -1.8429062E+00
   1.3123783E-04   6.8319113E+05   -1.8424093E+00
   1.3184390E-04   6.7741694E+05   -1.8419117E+00
   1.3245277E-04   6.7169310E+05   -1.8414131E+00
   1.3306445E-04   6.6601915E+05   -1.8409138E+00
   1.3367895E-04   6.6039465E+05   -1.8404135E+00
   1.3429630E-04   6.5481916E+05   -1.8399125E+00
   1.3491649E-04   6.4929224E+05   -1.8394106E+00
   1.3553955E-04   6.4381346E+05   -1.8389079E+00
   1.3616548E-04   6.3838240E+05   -1.8384044E+00
   1.3679431E-04   6.3299862E+05   -1.8379000E+00
   1.3742604E-04   6.2766170E+05   -1.8373949E+00
   1.3806069E-04   6.2237123E+05   -1.8368889E+00
   1.3869827E-04   6.1712679E+05   -1.8363821E+00
   1.3933879E-04   6.1192797E+05   -1.8358745E+00
   1.3998227E-04   6.0677437E+05   -1.8353661E+00
   1.4062872E-04   6.0166558E+05   -1.8348569E+00
   1.4127816E-04   5.9660121E+05   -1.8343469E+00
   1.4193060E-04   5.9158085E+05   -1.8338361E+00
   1.4258605E-04   5.8660413E+05   -1.8333245E+00
   1.4324453E-04   5.8167064E+05   -1.8328121E+00
   1.4390605E-04   5.7678001E+05   -1.8322990E+00
   1.4457062E-04   5.7193185E+05   -1.8317850E+00
   1.4523826E-04   5.6712579E+05   -1.8312703E+00
   1.4590899E-04   5.6236144E+05   -1.8307549E+00
   1.4658281E-04   5.5763845E+05   -1.8302386E+00
   1.4725974E-04   5.5295644E+05   -1.8297216E+00
   1.4793981E-04   5.4831505E+05   -1.8292038E+00
   1.4862301E-04   5.4371391E+05   -1.8286853E+00
   1.4930936E-04   5.3915268E+05   -1.8281660E+00
   1.4999889E-04   5.3463099E+05   -1.8276460E+00
   1.5069160E-04   5.3014849E+05   -1.8271252E+00
   1.5138751E-04   5.2570483E+05   -1.8266037E+00
   1.5208663E-04   5.2129968E+05   -1.8260814E+00
   1.5278899E-04   5.1693268E+05   -1.8255584E+00
   1.5349458E-04   5.1260350E+05   -1.8250347E+00
   1.5420343E-04   5.0831181E+05   -1.8245103E+00
   1.5491556E-04   5.0405727E+05   -1.8239851E+00
   1.5563098E-04   4.9983954E+05   -1.8234592E+00
   1.5634970E-04   4.9565831E+05   -1.8229326E+00
   1.5707174E-04   4.9151325E+05   -1.8224053E+00
   1.5779711E-04   4.8740404E+05   -1.8218773E+00
   1.5852584E-04   4.8333036E+05   -1.8213486E+00
   1.5925792E-04   4.7929190E+05   -1.8208192E+00
   1.5999339E-04   4.7528834E+05   -1.8202891E+00
   1.6073226E-04   4.7131937E+05   -1.8197584E+00
   1.6147454E-04   4.6738469E+05   -1.8192269E+00
   1.6222024E-04   4.6348399E+05   -1.8186948E+00
   1.6296939E-04   4.5961698E+05   -1.8181619E+00
   1.6372200E-04   4.5578335E+05   -1.8176285E+00
   1.6447809E-04   4.5198281E+05   -1.8170943E+00
   1.6523767E-04   4.4821506E+05   -1.8165595E+00
   1.6600075E-04   4.4447982E+05   -1.8160240E+00
   1.6676736E-04   4.4077679E+05   -1.8154879E+00
   1.6753751E-04   4.3710569E+05   -1.8149511E+00
   1.6831122E-04   4.3346624E+05   -1.8144137E+00
   1.6908849E-04   4.2985816E+05   -1.8138757E+00
   1.6986936E-04   4.2628117E+05   -1.8133370E+00
   1.7065384E-04   4.2273499E+05   -1.8127977E+00
   1.7144193E-04   4.1921936E+05   -1.8122577E+00
   1.7223367E-04   4.1573400E+05   -1.8117172E+00
   1.7302906E-04   4.1227864E+05   -1.8111760E+00
   1.7382813E-04   4.0885302E+05   -1.8106342E+00
   1.7463089E-04   4.0545688E+05   -1.8100918E+00
   1.7543735E-04   4.0208996E+05   -1.8095488E+00
   1.7624754E-04   3.9875199E+05   -1.8090052E+00
   1.7706147E-04   3.9544272E+05   -1.8084611E+00
   1.7787916E-04   3.9216190E+05   -1.8079163E+00
   1.7870062E-04   3.8890928E+05   -1.8073709E+00
   1.7952588E-04   3.8568460E+05   -1.8068250E+00
   1.8035495E-04   3.8248762E+05   -1.8062785E+00
   1.8118785E-04   3.7931810E+05   -1.8057315E+00
   1.8202459E-04   3.7617580E+05   -1.8051838E+00
   1.8286520E-04   3.7306046E+05   -1.8046356E+00
   1.8370969E-04   3.6997186E+05   -1.8040869E+00
   1.8455808E-04   3.6690976E+05   -1.8035376E+00
   1.8541039E-04   3.6387393E+05   -1.8029878E+00
   1.8626663E-04   3.6086412E+05   -1.8024374E+00
   1.8712683E-04   3.5788013E+05   -1.8018865E+00
   1.8799100E-04   3.5492170E+05   -1.8013351E+00
   1.8885917E-04   3.5198863E+05   -1.8007831E+00
   1.8973134E-04   3.4908069E+05   -1.8002307E+00
   1.9060754E-04   3.4619765E+05   -1.7996777E+00
   1.9148778E-04   3.4333929E+05   -1.7991242E+00
   1.9237209E-04   3.4050541E+05   -1.7985702E+00
   1.9326049E-04   3.3769578E+05   -1.7980157E+00
   1.9415299E-04   3.3491018E+05   -1.7974608E+00
   1.9504960E-04   3.3214842E+05   -1.7969053E+00
   1.9595036E-04   3.2941027E+05   -1.7963494E+00
   1.9685528E-04   3.2669554E+05   -1.7957930E+00
   1.9776438E-04   3.2400400E+05   -1.7952361E+00
   1.9867768E-04   3.2133547E+05   -1.7946787E+00
   1.9959519E-04   3.1868973E+05   -1.7941209E+00
   2.0051694E-04   3.1606659E+05   -1.7935626E+00
   2.0144295E-04   3.1346585E+05   -1.7930039E+00
   2.0237324E-04   3.1088731E+05   -1.7924448E+00
   2.0330782E-04   3.0833077E+05   -1.7918852E+00
   2.0424671E-04   3.0579604E+05   -1.7913252E+00
   2.0518995E-04   3.0328294E+05   -1.7907647E+00
   2.0613754E-04   3.0079126E+05   -1.7902038E+00
   2.0708950E-04   2.9832083E+05   -1.7896425E+00
   2.0804586E-04   2.9587146E+05   -1.7890808E+00
   2.0900664E-04   2.9344295E+05   -1.7885187E+00
   2.0997185E-04   2.9103513E+05   -1.7879562E+00
   2.1094152E-04   2.8864782E+05   -1.7873933E+00
   2.1191567E-04   2.8628083E+05   -1.7868300E+00
   2.1289432E-04   2.8393399E+05   -1.7862664E+00
   2.1387749E-04   2.8160712E+05   -1.7857023E+00
   2.1486520E-04   2.7930004E+05   -1.7851379E+00
   2.1585747E-04   2.7701259E+05   -1.7845731E+00
   2.1685432E-04   2.7474458E+05   -1.7840080E+00
   2.1785578E-04   2.7249586E+05   -1.7834425E+00
   2.1886186E-04   2.7026624E+05   -1.7828766E+00
   2.1987259E-04   2.6805557E+05   -1.7823104E+00
   2.2088798E-04   2.6586367E+05   -1.7817439E+00
   2.2190807E-04   2.6369038E+05   -1.7811770E+00
   2.2293286E-04   2.6153554E+05   -1.7806098E+00
   2.2396239E-04   2.5939899E+05   -1.7800423E+00
   2.2499667E-04   2.5728057E+05   -1.7794745E+00
   2.2603573E-04   2.5518012E+05   -1.7789064E+00
   2.2707958E-04   2.5309747E+05   -1.7783379E+00
   2.2812826E-04   2.5103248E+05   -1.7777692E+00
   2.2918178E-04   2.4898499E+05   -1.7772002E+00
   2.3024017E-04   2.4695485E+05   -1.7766309E+00
   2.3130344E-04   2.4494191E+05   -1.7760613E+00
   2.3237162E-04   2.4294601E+05   -1.7754914E+00
   2.3344474E-04   2.4096700E+05   -1.7749213E+00
   2.3452281E-04   2.3900475E+05   -1.7743509E+00
   2.3560586E-04   2.3705909E+05   -1.7737802E+00
   2.3669392E-04   2.3512990E+05   -1.7732093E+00
   2.3778699E-04   2.3321702E+05   -1.7726382E+00
   2.3888512E-04   2.3132031E+05   -1.7720668E+00
   2.3998831E-04   2.2943962E+05   -1.7714952E+00
   2.4109661E-04   2.2757483E+05   -1.7709233E+00
   2.4221001E-04   2.2572579E+05   -1.7703513E+00
   2.4332857E-04   2.2389237E+05   -1.7697790E+00
   2.4445228E-04   2.2207442E+05   -1.7692065E+00
   2.4558119E-04   2.2027181E+05   -1.7686338E+00
   2.4671531E-04   2.1848441E+05   -1.7680609E+00
   2.4785467E-04   2.1671209E+05   -1.7674878E+00
   2.4899928E-04   2.1495471E+05   -1.7669146E+00
   2.5014919E-04   2.1321215E+05   -1.7663411E+00
   2.5130440E-04   2.1148427E+05   -1.7657675E+00
   2.5246495E-04   2.0977095E+05   -1.7651937E+00
   2.5363086E-04   2.0807206E+05   -1.7646198E+00
   2.5480216E-04   2.0638747E+05   -1.7640457E+00
   2.5597886E-04   2.0471707E+05   -1.7634714E+00
   2.5716100E-04   2.0306072E+05   -1.7628970E+00
   2.5834859E-04   2.0141830E+05   -1.7623225E+00
   2.5954168E-04   1.9978970E+05   -1.7617478E+00
   2.6074027E-04   1.9817480E+05   -1.7611730E+00
   2.6194439E-04   1.9657346E+05   -1.7605981E+00
   2.6315408E-04   1.9498558E+05   -1.7600231E+00
   2.6436935E-04   1.9341104E+05   -1.7594480E+00
   2.6559024E-04   1.9184973E+05   -1.7588727E+00
   2.6681676E-04   1.9030152E+05   -1.7582974E+00
   2.6804895E-04   1.8876631E+05   -1.7577220E+00
   2.6928683E-04   1.8724398E+05   -1.7571465E+00
   2.7053042E-04   1.8573441E+05   -1.7565710E+00
   2.7177976E-04   1.8423751E+05   -1.7559953E+00
   2.7303487E-04   1.8275316E+05   -1.7554196E+00
   2.7429577E-04   1.8128124E+05   -1.7548439E+00
   2.7556250E-04   1.7982166E+05   -1.7542680E+00
   2.7683507E-04   1.7837430E+05   -1.7536922E+00
   2.7811353E-04   1.7693906E+05   -1.7531163E+00
   2.7939788E-04   1.7551584E+05   -1.7525404E+00
   2.8068817E-04   1.7410452E+05   -1.7519644E+00
   2.8198442E-04   1.7270501E+05   -1.7513884E+00
   2.8328665E-04   1.7131721E+05   -1.7508124E+00
   2.8459490E-04   1.6994101E+05   -1.7502364E+00
   2.8590919E-04   1.6857631E+05   -1.7496604E+00
   2.8722955E-04   1.6722302E+05   -1.7490844E+00
   2.8855600E-04   1.6588103E+05   -1.7485084E+00
   2.8988859E-04   1.6455024E+05   -1.7479324E+00
   2.9122732E-04   1.6323056E+05   -1.7473565E+00
   2.9257224E-04   1.6192190E+05   -1.7467806E+00
   2.9392337E-04   1.6062416E+05   -1.7462047E+00
   2.9528074E-04   1.5933724E+05   -1.7456288E+00
   2.9664438E-04   1.5806105E+05   -1.7450530E+00
   2.9801431E-04   1.5679550E+05   -1.7444772E+00
   2.9939057E-04   1.5554049E+05   -1.7439015E+00
   3.0077319E-04   1.5429594E+05   -1.7433259E+00
   3.0216219E-04   1.5306175E+05   -1.7427503E+00
   3.0355761E-04   1.5183783E+05   -1.7421748E+00
   3.0495947E-04   1.5062411E+05   -1.7415994E+00
   3.0636780E-04   1.4942048E+05   -1.7410241E+00
   3.0778264E-04   1.4822686E+05   -1.7404489E+00
   3.0920401E-04   1.4704316E+05   -1.7398738E+00
   3.1063195E-04   1.4586931E+05   -1.7392987E+00
   3.1206648E-04   1.4470521E+05   -1.7387238E+00
   3.1350764E-04   1.4355078E+05   -1.7381491E+00
   3.1495545E-04   1.4240593E+05   -1.7375744E+00
   3.1640994E-04   1.4127060E+05   -1.7369999E+00
   3.1787116E-04   1.4014468E+05   -1.7364255E+00
   3.1933912E-04   1.3902810E+05   -1.7358512E+00
   3.2081386E-04   1.3792079E+05   -1.7352771E+00
   3.2229541E-04   1.3682266E+05   -1.7347032E+00
   3.2378381E-04   1.3573363E+05   -1.7341294E+00
   3.2527908E-04   1.3465362E+05   -1.7335558E+00
   3.2678125E-04   1.3358256E+05   -1.7329823E+00
   3.2829036E-04   1.3252037E+05   -1.7324091E+00
   3.2980644E-04   1.3146697E+05   -1.7318360E+00
   3.3132952E-04   1.3042229E+05   -1.7312631E+00
   3.3285963E-04   1.2938625E+05   -1.7306904E+00
   3.3439681E-04   1.2835879E+05   -1.7301179E+00
   3.3594109E-04   1.2733981E+05   -1.7295456E+00
   3.3749250E-04   1.2632926E+05   -1.7289736E+00
   3.3905108E-04   1.2532706E+05   -1.7284017E+00
   3.4061685E-04   1.2433314E+05   -1.7278301E+00
   3.4218986E-04   1.2334742E+05   -1.7272587E+00
   3.4377013E-04   1.2236984E+05   -1.7266876E+00
   3.4535769E-04   1.2140033E+05   -1.7261167E+00
   3.4695259E-04   1.2043882E+05   -1.7255461E+00
   3.4855485E-04   1.1948523E+05   -1.7249757E+00
   3.5016452E-04   1.1853951E+05   -1.7244055E+00
   3.5178161E-04   1.1760158E+05   -1.7238357E+00
   3.5340618E-04   1.1667138E+05   -1.7232661E+00
   3.5503824E-04   1.1574884E+05   -1.7226968E+00
   3.5667785E-04   1.1483390E+05   -1.7221278E+00
   3.5832502E-04   1.1392648E+05   -1.7215590E+00
   3.5997981E-04   1.1302654E+05   -1.7209906E+00
   3.6164223E-04   1.1213399E+05   -1.7204225E+00
   3.6331233E-04   1.1124879E+05   -1.7198546E+00
   3.6499015E-04   1.1037086E+05   -1.7192871E+00
   3.6667571E-04   1.0950015E+05   -1.7187199E+00
   3.6836906E-04   1.0863658E+05   -1.7181531E+00
   3.7007022E-04   1.0778012E+05   -1.7175866E+00
   3.7177925E-04   1.0693068E+05   -1.7170204E+00
   3.7349616E-04   1.0608821E+05   -1.7164545E+00
   3.7522101E-04   1.0525266E+05   -1.7158890E+00
   3.7695382E-04   1.0442395E+05   -1.7153239E+00
   3.7869463E-04   1.0360205E+05   -1.7147591E+00
   3.8044348E-04   1.0278688E+05   -1.7141947E+00
   3.8220041E-04   1.0197839E+05   -1.7136306E+00
   3.8396545E-04   1.0117652E+05   -1.7130670E+00
   3.8573864E-04   1.0038121E+05   -1.7125037E+00
   3.8752002E-04   9.9592418E+04   -1.7119408E+00
   3.8930963E-04   9.8810079E+04   -1.7113783E+00
   3.9110750E-04   9.8034139E+04   -1.7108162E+00
   3.9291368E-04   9.7264545E+04   -1.7102545E+00
   3.9472820E-04   9.6501241E+04   -1.7096932E+00
   3.9655109E-04   9.5744175E+04   -1.7091323E+00
   3.9838241E-04   9.4993294E+04   -1.7085719E+00
   4.0022218E-04   9.4248545E+04   -1.7080119E+00
   4.0207045E-04   9.3509876E+04   -1.7074523E+00
   4.0392725E-04   9.2777236E+04   -1.7068931E+00
   4.0579263E-04   9.2050573E+04   -1.7063344E+00
   4.0766662E-04   9.1329836E+04   -1.7057761E+00
   4.0954927E-04   9.0614976E+04   -1.7052183E+00
   4.1144061E-04   8.9905941E+04   -1.7046610E+00
   4.1334068E-04   8.9202684E+04   -1.7041041E+00
   4.1524953E-04   8.8505155E+04   -1.7035477E+00
   4.1716720E-04   8.7813305E+04   -1.7029918E+00
   4.1909372E-04   8.7127086E+04   -1.7024363E+00
   4.2102914E-04   8.6446451E+04   -1.7018813E+00
   4.2297350E-04   8.5771353E+04   -1.7013269E+00
   4.2492683E-04   8.5101743E+04   -1.7007729E+00
   4.2688919E-04   8.4437577E+04   -1.7002194E+00
   4.2886061E-04   8.3778808E+04   -1.6996664E+00
   4.3084113E-04   8.3125390E+04   -1.6991140E+00
   4.3283080E-04   8.2477279E+04   -1.6985620E+00
   4.3482966E-04   8.1834428E+04   -1.6980106E+00
   4.3683775E-04   8.1196794E+04   -1.6974597E+00
   4.3885511E-04   8.0564333E+04   -1.6969093E+00
   4.4088179E-04   7.9937001E+04   -1.6963595E+00
   4.4291783E-04   7.9314754E+04   -1.6958102E+00
   4.4496327E-04   7.8697551E+04   -1.6952615E+00
   4.4701816E-04   7.8085347E+04   -1.6947133E+00
   4.4908253E-04   7.7478101E+04   -1.6941657E+00
   4.5115644E-04   7.6875772E+04   -1.6936186E+00
   4.5323993E-04   7.6278318E+04   -1.6930721E+00
   4.5533304E-04   7.5685697E+04   -1.6925262E+00
   4.5743582E-04   7.5097869E+04   -1.6919808E+00
   4.5954830E-04   7.4514794E+04   -1.6914361E+00
   4.6167054E-04   7.3936432E+04   -1.6908919E+00
   4.6380259E-04   7.3362742E+04   -1.6903483E+00
   4.6594448E-04   7.2793686E+04   -1.6898053E+00
   4.6809626E-04   7.2229225E+04   -1.6892629E+00
   4.7025797E-04   7.1669319E+04   -1.6887211E+00
   4.7242967E-04   7.1113931E+04   -1.6881800E+00
   4.7461140E-04   7.0563023E+04   -1.6876394E+00
   4.7680321E-04   7.0016557E+04   -1.6870995E+00
   4.7900514E-04   6.9474496E+04   -1.6865601E+00
   4.8121723E-04   6.8936803E+04   -1.6860215E+00
   4.8343954E-04   6.8403440E+04   -1.6854834E+00
   4.8567212E-04   6.7874373E+04   -1.6849460E+00
   4.8791500E-04   6.7349564E+04   -1.6844092E+00
   4.9016825E-04   6.6828979E+04   -1.6838731E+00
   4.9243189E-04   6.6312581E+04   -1.6833376E+00
   4.9470600E-04   6.5800335E+04   -1.6828028E+00
   4.9699060E-04   6.5292207E+04   -1.6822687E+00
   4.9928575E-04   6.4788163E+04   -1.6817352E+00
   5.0159151E-04   6.4288167E+04   -1.6812024E+00
   5.0390791E-04   6.3792187E+04   -1.6806702E+00
   5.0623501E-04   6.3300188E+04   -1.6801387E+00
   5.0857286E-04   6.2812137E+04   -1.6796080E+00
   5.1092150E-04   6.2328002E+04   -1.6790779E+00
   5.1328099E-04   6.1847749E+04   -1.6785485E+00
   5.1565137E-04   6.1371347E+04   -1.6780198E+00
   5.1803270E-04   6.0898762E+04   -1.6774918E+00
   5.2042503E-04   6.0429963E+04   -1.6769644E+00
   5.2282841E-04   5.9964919E+04   -1.6764379E+00
   5.2524289E-04   5.9503597E+04   -1.6759120E+00
   5.2766851E-04   5.9045968E+04   -1.6753868E+00
   5.3010534E-04   5.8592000E+04   -1.6748624E+00
   5.3255342E-04   5.8141663E+04   -1.6743386E+00
   5.3501281E-04   5.7694925E+04   -1.6738156E+00
   5.3748356E-04   5.7251759E+04   -1.6732934E+00
   5.3996571E-04   5.6812133E+04   -1.6727719E+00
   5.4245933E-04   5.6376018E+04   -1.6722511E+00
   5.4496446E-04   5.5943385E+04   -1.6717310E+00
   5.4748117E-04   5.5514206E+04   -1.6712117E+00
   5.5000949E-04   5.5088450E+04   -1.6706932E+00
   5.5254949E-04   5.4666090E+04   -1.6701754E+00
   5.5510123E-04   5.4247098E+04   -1.6696584E+00
   5.5766474E-04   5.3831445E+04   -1.6691421E+00
   5.6024010E-04   5.3419104E+04   -1.6686267E+00
   5.6282734E-04   5.3010047E+04   -1.6681119E+00
   5.6542654E-04   5.2604248E+04   -1.6675980E+00
   5.6803774E-04   5.2201678E+04   -1.6670848E+00
   5.7066099E-04   5.1802311E+04   -1.6665724E+00
   5.7329637E-04   5.1406121E+04   -1.6660609E+00
   5.7594391E-04   5.1013082E+04   -1.6655500E+00
   5.7860368E-04   5.0623166E+04   -1.6650400E+00
   5.8127573E-04   5.0236349E+04   -1.6645308E+00
   5.8396012E-04   4.9852604E+04   -1.6640224E+00
   5.8665691E-04   4.9471907E+04   -1.6635148E+00
   5.8936616E-04   4.9094231E+04   -1.6630080E+00
   5.9208791E-04   4.8719552E+04   -1.6625020E+00
   5.9482223E-04   4.8347846E+04   -1.6619968E+00
   5.9756919E-04   4.7979087E+04   -1.6614924E+00
   6.0032882E-04   4.7613251E+04   -1.6609889E+00
   6.0310120E-04   4.7250314E+04   -1.6604862E+00
   6.0588639E-04   4.6890252E+04   -1.6599843E+00
   6.0868443E-04   4.6533041E+04   -1.6594832E+00
   6.1149540E-04   4.6178658E+04   -1.6589830E+00
   6.1431935E-04   4.5827080E+04   -1.6584836E+00
   6.1715634E-04   4.5478283E+04   -1.6579851E+00
   6.2000644E-04   4.5132244E+04   -1.6574874E+00
   6.2286969E-04   4.4788941E+04   -1.6569905E+00
