#        a       HoverH0(a)       dlogHdloga_of_a(a)
   1.0000000E-04   1.2007956E+06   -1.8649992E+00
   1.0046181E-04   1.1905227E+06   -1.8645446E+00
   1.0092575E-04   1.1803402E+06   -1.8640891E+00
   1.0139184E-04   1.1702472E+06   -1.8636326E+00
   1.0186008E-04   1.1602429E+06   -1.8631752E+00
   1.0233048E-04   1.1503266E+06   -1.8627168E+00
   1.0280305E-04   1.1404975E+06   -1.8622575E+00
   1.0327781E-04   1.1307547E+06   -1.8617972E+00
   1.0375475E-04   1.1210976E+06   -1.8613359E+00
   1.0423390E-04   1.1115253E+06   -1.8608737E+00
   1.0471527E-04   1.1020371E+06   -1.8604106E+00
   1.0519885E-04   1.0926322E+06   -1.8599465E+00
   1.0568467E-04   1.0833099E+06   -1.8594815E+00
   1.0617274E-04   1.0740694E+06   -1.8590155E+00
   1.0666305E-04   1.0649100E+06   -1.8585486E+00
   1.0715563E-04   1.0558310E+06   -1.8580807E+00
   1.0765049E-04   1.0468317E+06   -1.8576120E+00
   1.0814763E-04   1.0379113E+06   -1.8571423E+00
   1.0864707E-04   1.0290692E+06   -1.8566716E+00
   1.0914881E-04   1.0203046E+06   -1.8562001E+00
   1.0965287E-04   1.0116169E+06   -1.8557276E+00
   1.1015926E-04   1.0030053E+06   -1.8552542E+00
   1.1066799E-04   9.9446922E+05   -1.8547799E+00
   1.1117906E-04   9.8600793E+05   -1.8543046E+00
   1.1169250E-04   9.7762077E+05   -1.8538285E+00
   1.1220831E-04   9.6930708E+05   -1.8533514E+00
   1.1272650E-04   9.6106620E+05   -1.8528734E+00
   1.1324708E-04   9.5289749E+05   -1.8523946E+00
   1.1377007E-04   9.4480029E+05   -1.8519148E+00
   1.1429547E-04   9.3677398E+05   -1.8514341E+00
   1.1482330E-04   9.2881791E+05   -1.8509525E+00
   1.1535356E-04   9.2093145E+05   -1.8504700E+00
   1.1588628E-04   9.1311399E+05   -1.8499866E+00
   1.1642145E-04   9.0536491E+05   -1.8495024E+00
   1.1695910E-04   8.9768360E+05   -1.8490172E+00
   1.1749923E-04   8.9006944E+05   -1.8485312E+00
   1.1804185E-04   8.8252185E+05   -1.8480442E+00
   1.1858698E-04   8.7504022E+05   -1.8475564E+00
   1.1913463E-04   8.6762397E+05   -1.8470677E+00
   1.1968481E-04   8.6027252E+05   -1.8465782E+00
   1.2023752E-04   8.5298528E+05   -1.8460877E+00
   1.2079279E-04   8.4576168E+05   -1.8455964E+00
   1.2135063E-04   8.3860116E+05   -1.8451042E+00
   1.2191104E-04   8.3150315E+05   -1.8446112E+00
   1.2247403E-04   8.2446709E+05   -1.8441173E+00
   1.2303963E-04   8.1749243E+05   -1.8436226E+00
   1.2360784E-04   8.1057862E+05   -1.8431269E+00
   1.2417868E-04   8.0372512E+05   -1.8426305E+00
   1.2475215E-04   7.9693140E+05   -1.8421332E+00
   1.2532826E-04   7.9019691E+05   -1.8416350E+00
   1.2590704E-04   7.8352113E+05   -1.8411360E+00
   1.2648850E-04   7.7690353E+05   -1.8406362E+00
   1.2707263E-04   7.7034361E+05   -1.8401355E+00
   1.2765947E-04   7.6384084E+05   -1.8396340E+00
   1.2824901E-04   7.5739471E+05   -1.8391317E+00
   1.2884128E-04   7.5100472E+05   -1.8386285E+00
   1.2943628E-04   7.4467037E+05   -1.8381245E+00
   1.3003403E-04   7.3839117E+05   -1.8376197E+00
   1.3063454E-04   7.3216661E+05   -1.8371141E+00
   1.3123783E-04   7.2599622E+05   -1.8366077E+00
   1.3184390E-04   7.1987952E+05   -1.8361005E+00
   1.3245277E-04   7.1381601E+05   -1.8355924E+00
   1.3306445E-04   7.0780524E+05   -1.8350836E+00
   1.3367895E-04   7.0184673E+05   -1.8345739E+00
   1.3429630E-04   6.9594001E+05   -1.8340635E+00
   1.3491649E-04   6.9008463E+05   -1.8335522E+00
   1.3553955E-04   6.8428013E+05   -1.8330402E+00
   1.3616548E-04   6.7852605E+05   -1.8325274E+00
   1.3679431E-04   6.7282195E+05   -1.8320138E+00
   1.3742604E-04   6.6716739E+05   -1.8314995E+00
   1.3806069E-04   6.6156191E+05   -1.8309843E+00
   1.3869827E-04   6.5600509E+05   -1.8304684E+00
   1.3933879E-04   6.5049649E+05   -1.8299518E+00
   1.3998227E-04   6.4503568E+05   -1.8294343E+00
   1.4062872E-04   6.3962225E+05   -1.8289161E+00
   1.4127816E-04   6.3425575E+05   -1.8283972E+00
   1.4193060E-04   6.2893579E+05   -1.8278775E+00
   1.4258605E-04   6.2366195E+05   -1.8273571E+00
   1.4324453E-04   6.1843381E+05   -1.8268359E+00
   1.4390605E-04   6.1325098E+05   -1.8263139E+00
   1.4457062E-04   6.0811304E+05   -1.8257913E+00
   1.4523826E-04   6.0301961E+05   -1.8252679E+00
   1.4590899E-04   5.9797027E+05   -1.8247438E+00
   1.4658281E-04   5.9296466E+05   -1.8242189E+00
   1.4725974E-04   5.8800236E+05   -1.8236934E+00
   1.4793981E-04   5.8308301E+05   -1.8231671E+00
   1.4862301E-04   5.7820621E+05   -1.8226401E+00
   1.4930936E-04   5.7337160E+05   -1.8221124E+00
   1.4999889E-04   5.6857880E+05   -1.8215840E+00
   1.5069160E-04   5.6382743E+05   -1.8210550E+00
   1.5138751E-04   5.5911713E+05   -1.8205252E+00
   1.5208663E-04   5.5444753E+05   -1.8199947E+00
   1.5278899E-04   5.4981828E+05   -1.8194635E+00
   1.5349458E-04   5.4522901E+05   -1.8189317E+00
   1.5420343E-04   5.4067938E+05   -1.8183992E+00
   1.5491556E-04   5.3616903E+05   -1.8178660E+00
   1.5563098E-04   5.3169761E+05   -1.8173322E+00
   1.5634970E-04   5.2726478E+05   -1.8167976E+00
   1.5707174E-04   5.2287019E+05   -1.8162625E+00
   1.5779711E-04   5.1851351E+05   -1.8157266E+00
   1.5852584E-04   5.1419440E+05   -1.8151902E+00
   1.5925792E-04   5.0991253E+05   -1.8146530E+00
   1.5999339E-04   5.0566757E+05   -1.8141153E+00
   1.6073226E-04   5.0145919E+05   -1.8135769E+00
   1.6147454E-04   4.9728707E+05   -1.8130378E+00
   1.6222024E-04   4.9315088E+05   -1.8124982E+00
   1.6296939E-04   4.8905032E+05   -1.8119579E+00
   1.6372200E-04   4.8498506E+05   -1.8114170E+00
   1.6447809E-04   4.8095479E+05   -1.8108755E+00
   1.6523767E-04   4.7695920E+05   -1.8103334E+00
   1.6600075E-04   4.7299799E+05   -1.8097907E+00
   1.6676736E-04   4.6907086E+05   -1.8092473E+00
   1.6753751E-04   4.6517749E+05   -1.8087034E+00
   1.6831122E-04   4.6131759E+05   -1.8081589E+00
   1.6908849E-04   4.5749088E+05   -1.8076138E+00
   1.6986936E-04   4.5369704E+05   -1.8070682E+00
   1.7065384E-04   4.4993580E+05   -1.8065219E+00
   1.7144193E-04   4.4620686E+05   -1.8059751E+00
   1.7223367E-04   4.4250994E+05   -1.8054277E+00
   1.7302906E-04   4.3884476E+05   -1.8048798E+00
   1.7382813E-04   4.3521104E+05   -1.8043313E+00
   1.7463089E-04   4.3160850E+05   -1.8037823E+00
   1.7543735E-04   4.2803686E+05   -1.8032327E+00
   1.7624754E-04   4.2449585E+05   -1.8026826E+00
   1.7706147E-04   4.2098520E+05   -1.8021319E+00
   1.7787916E-04   4.1750465E+05   -1.8015807E+00
   1.7870062E-04   4.1405392E+05   -1.8010290E+00
   1.7952588E-04   4.1063276E+05   -1.8004768E+00
   1.8035495E-04   4.0724090E+05   -1.7999240E+00
   1.8118785E-04   4.0387809E+05   -1.7993708E+00
   1.8202459E-04   4.0054407E+05   -1.7988170E+00
   1.8286520E-04   3.9723859E+05   -1.7982627E+00
   1.8370969E-04   3.9396139E+05   -1.7977080E+00
   1.8455808E-04   3.9071223E+05   -1.7971528E+00
   1.8541039E-04   3.8749085E+05   -1.7965970E+00
   1.8626663E-04   3.8429702E+05   -1.7960408E+00
   1.8712683E-04   3.8113049E+05   -1.7954842E+00
   1.8799100E-04   3.7799103E+05   -1.7949270E+00
   1.8885917E-04   3.7487838E+05   -1.7943694E+00
   1.8973134E-04   3.7179233E+05   -1.7938114E+00
   1.9060754E-04   3.6873262E+05   -1.7932528E+00
   1.9148778E-04   3.6569904E+05   -1.7926939E+00
   1.9237209E-04   3.6269135E+05   -1.7921345E+00
   1.9326049E-04   3.5970933E+05   -1.7915747E+00
   1.9415299E-04   3.5675274E+05   -1.7910144E+00
   1.9504960E-04   3.5382137E+05   -1.7904537E+00
   1.9595036E-04   3.5091499E+05   -1.7898926E+00
   1.9685528E-04   3.4803339E+05   -1.7893311E+00
   1.9776438E-04   3.4517634E+05   -1.7887692E+00
   1.9867768E-04   3.4234363E+05   -1.7882069E+00
   1.9959519E-04   3.3953505E+05   -1.7876441E+00
   2.0051694E-04   3.3675038E+05   -1.7870810E+00
   2.0144295E-04   3.3398942E+05   -1.7865175E+00
   2.0237324E-04   3.3125196E+05   -1.7859537E+00
   2.0330782E-04   3.2853778E+05   -1.7853894E+00
   2.0424671E-04   3.2584670E+05   -1.7848248E+00
   2.0518995E-04   3.2317849E+05   -1.7842598E+00
   2.0613754E-04   3.2053297E+05   -1.7836945E+00
   2.0708950E-04   3.1790994E+05   -1.7831288E+00
   2.0804586E-04   3.1530919E+05   -1.7825627E+00
   2.0900664E-04   3.1273054E+05   -1.7819964E+00
   2.0997185E-04   3.1017378E+05   -1.7814296E+00
   2.1094152E-04   3.0763873E+05   -1.7808626E+00
   2.1191567E-04   3.0512519E+05   -1.7802952E+00
   2.1289432E-04   3.0263299E+05   -1.7797276E+00
   2.1387749E-04   3.0016192E+05   -1.7791596E+00
   2.1486520E-04   2.9771181E+05   -1.7785913E+00
   2.1585747E-04   2.9528248E+05   -1.7780227E+00
   2.1685432E-04   2.9287373E+05   -1.7774538E+00
   2.1785578E-04   2.9048539E+05   -1.7768846E+00
   2.1886186E-04   2.8811729E+05   -1.7763152E+00
   2.1987259E-04   2.8576924E+05   -1.7757454E+00
   2.2088798E-04   2.8344108E+05   -1.7751754E+00
   2.2190807E-04   2.8113262E+05   -1.7746051E+00
   2.2293286E-04   2.7884369E+05   -1.7740346E+00
   2.2396239E-04   2.7657412E+05   -1.7734638E+00
   2.2499667E-04   2.7432375E+05   -1.7728928E+00
   2.2603573E-04   2.7209241E+05   -1.7723215E+00
   2.2707958E-04   2.6987993E+05   -1.7717500E+00
   2.2812826E-04   2.6768614E+05   -1.7711783E+00
   2.2918178E-04   2.6551088E+05   -1.7706063E+00
   2.3024017E-04   2.6335400E+05   -1.7700341E+00
   2.3130344E-04   2.6121532E+05   -1.7694617E+00
   2.3237162E-04   2.5909470E+05   -1.7688891E+00
   2.3344474E-04   2.5699197E+05   -1.7683163E+00
   2.3452281E-04   2.5490698E+05   -1.7677433E+00
   2.3560586E-04   2.5283957E+05   -1.7671702E+00
   2.3669392E-04   2.5078959E+05   -1.7665968E+00
   2.3778699E-04   2.4875689E+05   -1.7660233E+00
   2.3888512E-04   2.4674132E+05   -1.7654496E+00
   2.3998831E-04   2.4474272E+05   -1.7648757E+00
   2.4109661E-04   2.4276096E+05   -1.7643017E+00
   2.4221001E-04   2.4079588E+05   -1.7637275E+00
   2.4332857E-04   2.3884734E+05   -1.7631532E+00
   2.4445228E-04   2.3691519E+05   -1.7625787E+00
   2.4558119E-04   2.3499930E+05   -1.7620041E+00
   2.4671531E-04   2.3309951E+05   -1.7614294E+00
   2.4785467E-04   2.3121570E+05   -1.7608545E+00
   2.4899928E-04   2.2934772E+05   -1.7602796E+00
   2.5014919E-04   2.2749543E+05   -1.7597045E+00
   2.5130440E-04   2.2565870E+05   -1.7591293E+00
   2.5246495E-04   2.2383740E+05   -1.7585540E+00
   2.5363086E-04   2.2203138E+05   -1.7579787E+00
   2.5480216E-04   2.2024052E+05   -1.7574032E+00
   2.5597886E-04   2.1846468E+05   -1.7568277E+00
   2.5716100E-04   2.1670373E+05   -1.7562521E+00
   2.5834859E-04   2.1495755E+05   -1.7556764E+00
   2.5954168E-04   2.1322600E+05   -1.7551007E+00
   2.6074027E-04   2.1150897E+05   -1.7545249E+00
   2.6194439E-04   2.0980632E+05   -1.7539491E+00
   2.6315408E-04   2.0811792E+05   -1.7533732E+00
   2.6436935E-04   2.0644366E+05   -1.7527973E+00
   2.6559024E-04   2.0478342E+05   -1.7522214E+00
   2.6681676E-04   2.0313706E+05   -1.7516454E+00
   2.6804895E-04   2.0150448E+05   -1.7510694E+00
   2.6928683E-04   1.9988554E+05   -1.7504934E+00
   2.7053042E-04   1.9828014E+05   -1.7499174E+00
   2.7177976E-04   1.9668816E+05   -1.7493414E+00
   2.7303487E-04   1.9510947E+05   -1.7487654E+00
   2.7429577E-04   1.9354397E+05   -1.7481895E+00
   2.7556250E-04   1.9199154E+05   -1.7476135E+00
   2.7683507E-04   1.9045207E+05   -1.7470376E+00
   2.7811353E-04   1.8892544E+05   -1.7464617E+00
   2.7939788E-04   1.8741155E+05   -1.7458858E+00
   2.8068817E-04   1.8591029E+05   -1.7453100E+00
   2.8198442E-04   1.8442153E+05   -1.7447342E+00
   2.8328665E-04   1.8294519E+05   -1.7441585E+00
   2.8459490E-04   1.8148114E+05   -1.7435828E+00
   2.8590919E-04   1.8002929E+05   -1.7430072E+00
   2.8722955E-04   1.7858953E+05   -1.7424317E+00
   2.8855600E-04   1.7716175E+05   -1.7418563E+00
   2.8988859E-04   1.7574585E+05   -1.7412809E+00
   2.9122732E-04   1.7434173E+05   -1.7407057E+00
   2.9257224E-04   1.7294929E+05   -1.7401305E+00
   2.9392337E-04   1.7156842E+05   -1.7395554E+00
   2.9528074E-04   1.7019903E+05   -1.7389805E+00
   2.9664438E-04   1.6884101E+05   -1.7384057E+00
   2.9801431E-04   1.6749427E+05   -1.7378309E+00
   2.9939057E-04   1.6615872E+05   -1.7372564E+00
   3.0077319E-04   1.6483425E+05   -1.7366819E+00
   3.0216219E-04   1.6352078E+05   -1.7361076E+00
   3.0355761E-04   1.6221819E+05   -1.7355335E+00
   3.0495947E-04   1.6092641E+05   -1.7349594E+00
   3.0636780E-04   1.5964534E+05   -1.7343856E+00
   3.0778264E-04   1.5837489E+05   -1.7338119E+00
   3.0920401E-04   1.5711496E+05   -1.7332384E+00
   3.1063195E-04   1.5586546E+05   -1.7326651E+00
   3.1206648E-04   1.5462632E+05   -1.7320919E+00
   3.1350764E-04   1.5339742E+05   -1.7315190E+00
   3.1495545E-04   1.5217870E+05   -1.7309462E+00
   3.1640994E-04   1.5097006E+05   -1.7303736E+00
   3.1787116E-04   1.4977141E+05   -1.7298012E+00
   3.1933912E-04   1.4858267E+05   -1.7292291E+00
   3.2081386E-04   1.4740375E+05   -1.7286572E+00
   3.2229541E-04   1.4623457E+05   -1.7280855E+00
   3.2378381E-04   1.4507505E+05   -1.7275140E+00
   3.2527908E-04   1.4392510E+05   -1.7269427E+00
   3.2678125E-04   1.4278465E+05   -1.7263717E+00
   3.2829036E-04   1.4165360E+05   -1.7258010E+00
   3.2980644E-04   1.4053188E+05   -1.7252305E+00
   3.3132952E-04   1.3941941E+05   -1.7246603E+00
   3.3285963E-04   1.3831611E+05   -1.7240903E+00
   3.3439681E-04   1.3722190E+05   -1.7235206E+00
   3.3594109E-04   1.3613670E+05   -1.7229512E+00
   3.3749250E-04   1.3506044E+05   -1.7223820E+00
   3.3905108E-04   1.3399304E+05   -1.7218132E+00
   3.4061685E-04   1.3293443E+05   -1.7212446E+00
   3.4218986E-04   1.3188452E+05   -1.7206764E+00
   3.4377013E-04   1.3084325E+05   -1.7201084E+00
   3.4535769E-04   1.2981054E+05   -1.7195408E+00
   3.4695259E-04   1.2878632E+05   -1.7189735E+00
   3.4855485E-04   1.2777051E+05   -1.7184065E+00
   3.5016452E-04   1.2676304E+05   -1.7178398E+00
   3.5178161E-04   1.2576385E+05   -1.7172735E+00
   3.5340618E-04   1.2477286E+05   -1.7167075E+00
   3.5503824E-04   1.2379000E+05   -1.7161418E+00
   3.5667785E-04   1.2281520E+05   -1.7155765E+00
   3.5832502E-04   1.2184840E+05   -1.7150116E+00
   3.5997981E-04   1.2088952E+05   -1.7144470E+00
   3.6164223E-04   1.1993850E+05   -1.7138828E+00
   3.6331233E-04   1.1899527E+05   -1.7133190E+00
   3.6499015E-04   1.1805976E+05   -1.7127556E+00
   3.6667571E-04   1.1713191E+05   -1.7121925E+00
   3.6836906E-04   1.1621166E+05   -1.7116298E+00
   3.7007022E-04   1.1529893E+05   -1.7110676E+00
   3.7177925E-04   1.1439367E+05   -1.7105057E+00
   3.7349616E-04   1.1349581E+05   -1.7099442E+00
   3.7522101E-04   1.1260529E+05   -1.7093832E+00
   3.7695382E-04   1.1172205E+05   -1.7088226E+00
   3.7869463E-04   1.1084602E+05   -1.7082624E+00
   3.8044348E-04   1.0997714E+05   -1.7077026E+00
   3.8220041E-04   1.0911535E+05   -1.7071433E+00
   3.8396545E-04   1.0826060E+05   -1.7065844E+00
   3.8573864E-04   1.0741282E+05   -1.7060259E+00
   3.8752002E-04   1.0657195E+05   -1.7054679E+00
   3.8930963E-04   1.0573794E+05   -1.7049104E+00
   3.9110750E-04   1.0491072E+05   -1.7043533E+00
   3.9291368E-04   1.0409024E+05   -1.7037967E+00
   3.9472820E-04   1.0327644E+05   -1.7032405E+00
   3.9655109E-04   1.0246927E+05   -1.7026849E+00
   3.9838241E-04   1.0166866E+05   -1.7021297E+00
   4.0022218E-04   1.0087457E+05   -1.7015750E+00
   4.0207045E-04   1.0008694E+05   -1.7010208E+00
   4.0392725E-04   9.9305711E+04   -1.7004671E+00
   4.0579263E-04   9.8530831E+04   -1.6999139E+00
   4.0766662E-04   9.7762246E+04   -1.6993613E+00
   4.0954927E-04   9.6999903E+04   -1.6988091E+00
   4.1144061E-04   9.6243749E+04   -1.6982575E+00
   4.1334068E-04   9.5493733E+04   -1.6977063E+00
   4.1524953E-04   9.4749802E+04   -1.6971557E+00
   4.1716720E-04   9.4011905E+04   -1.6966057E+00
   4.1909372E-04   9.3279990E+04   -1.6960562E+00
   4.2102914E-04   9.2554008E+04   -1.6955072E+00
   4.2297350E-04   9.1833909E+04   -1.6949588E+00
   4.2492683E-04   9.1119642E+04   -1.6944109E+00
   4.2688919E-04   9.0411159E+04   -1.6938636E+00
   4.2886061E-04   8.9708410E+04   -1.6933169E+00
   4.3084113E-04   8.9011348E+04   -1.6927707E+00
   4.3283080E-04   8.8319925E+04   -1.6922251E+00
   4.3482966E-04   8.7634092E+04   -1.6916801E+00
   4.3683775E-04   8.6953804E+04   -1.6911357E+00
   4.3885511E-04   8.6279013E+04   -1.6905918E+00
   4.4088179E-04   8.5609672E+04   -1.6900486E+00
   4.4291783E-04   8.4945737E+04   -1.6895059E+00
   4.4496327E-04   8.4287162E+04   -1.6889639E+00
   4.4701816E-04   8.3633901E+04   -1.6884225E+00
   4.4908253E-04   8.2985910E+04   -1.6878817E+00
   4.5115644E-04   8.2343145E+04   -1.6873415E+00
   4.5323993E-04   8.1705561E+04   -1.6868019E+00
   4.5533304E-04   8.1073116E+04   -1.6862629E+00
   4.5743582E-04   8.0445766E+04   -1.6857246E+00
   4.5954830E-04   7.9823469E+04   -1.6851869E+00
   4.6167054E-04   7.9206181E+04   -1.6846499E+00
   4.6380259E-04   7.8593861E+04   -1.6841135E+00
   4.6594448E-04   7.7986468E+04   -1.6835777E+00
   4.6809626E-04   7.7383959E+04   -1.6830426E+00
   4.7025797E-04   7.6786294E+04   -1.6825082E+00
   4.7242967E-04   7.6193433E+04   -1.6819744E+00
   4.7461140E-04   7.5605336E+04   -1.6814413E+00
   4.7680321E-04   7.5021961E+04   -1.6809089E+00
   4.7900514E-04   7.4443271E+04   -1.6803771E+00
   4.8121723E-04   7.3869225E+04   -1.6798461E+00
   4.8343954E-04   7.3299785E+04   -1.6793157E+00
   4.8567212E-04   7.2734912E+04   -1.6787860E+00
   4.8791500E-04   7.2174569E+04   -1.6782570E+00
   4.9016825E-04   7.1618716E+04   -1.6777287E+00
   4.9243189E-04   7.1067318E+04   -1.6772011E+00
   4.9470600E-04   7.0520336E+04   -1.6766742E+00
   4.9699060E-04   6.9977734E+04   -1.6761480E+00
   4.9928575E-04   6.9439475E+04   -1.6756225E+00
   5.0159151E-04   6.8905522E+04   -1.6750978E+00
   5.0390791E-04   6.8375841E+04   -1.6745737E+00
   5.0623501E-04   6.7850395E+04   -1.6740504E+00
   5.0857286E-04   6.7329150E+04   -1.6735279E+00
   5.1092150E-04   6.6812069E+04   -1.6730060E+00
   5.1328099E-04   6.6299119E+04   -1.6724849E+00
   5.1565137E-04   6.5790265E+04   -1.6719646E+00
   5.1803270E-04   6.5285473E+04   -1.6714450E+00
   5.2042503E-04   6.4784709E+04   -1.6709261E+00
   5.2282841E-04   6.4287940E+04   -1.6704080E+00
   5.2524289E-04   6.3795132E+04   -1.6698907E+00
   5.2766851E-04   6.3306252E+04   -1.6693741E+00
   5.3010534E-04   6.2821268E+04   -1.6688583E+00
   5.3255342E-04   6.2340148E+04   -1.6683432E+00
   5.3501281E-04   6.1862859E+04   -1.6678289E+00
   5.3748356E-04   6.1389370E+04   -1.6673154E+00
   5.3996571E-04   6.0919648E+04   -1.6668027E+00
   5.4245933E-04   6.0453664E+04   -1.6662908E+00
   5.4496446E-04   5.9991385E+04   -1.6657796E+00
   5.4748117E-04   5.9532782E+04   -1.6652693E+00
   5.5000949E-04   5.9077823E+04   -1.6647597E+00
   5.5254949E-04   5.8626478E+04   -1.6642510E+00
   5.5510123E-04   5.8178718E+04   -1.6637430E+00
   5.5766474E-04   5.7734513E+04   -1.6632359E+00
   5.6024010E-04   5.7293833E+04   -1.6627295E+00
   5.6282734E-04   5.6856649E+04   -1.6622240E+00
   5.6542654E-04   5.6422932E+04   -1.6617193E+00
   5.6803774E-04   5.5992654E+04   -1.6612154E+00
   5.7066099E-04   5.5565786E+04   -1.6607123E+00
   5.7329637E-04   5.5142301E+04   -1.6602101E+00
   5.7594391E-04   5.4722169E+04   -1.6597087E+00
   5.7860368E-04   5.4305364E+04   -1.6592081E+00
   5.8127573E-04   5.3891857E+04   -1.6587084E+00
   5.8396012E-04   5.3481622E+04   -1.6582095E+00
   5.8665691E-04   5.3074632E+04   -1.6577114E+00
   5.8936616E-04   5.2670860E+04   -1.6572142E+00
   5.9208791E-04   5.2270279E+04   -1.6567178E+00
   5.9482223E-04   5.1872864E+04   -1.6562223E+00
   5.9756919E-04   5.1478587E+04   -1.6557276E+00
   6.0032882E-04   5.1087423E+04   -1.6552338E+00
   6.0310120E-04   5.0699347E+04   -1.6547409E+00
   6.0588639E-04   5.0314334E+04   -1.6542488E+00
   6.0868443E-04   4.9932357E+04   -1.6537576E+00
   6.1149540E-04   4.9553391E+04   -1.6532672E+00
   6.1431935E-04   4.9177414E+04   -1.6527777E+00
   6.1715634E-04   4.8804399E+04   -1.6522891E+00
   6.2000644E-04   4.8434322E+04   -1.6518014E+00
   6.2286969E-04   4.8067159E+04   -1.6513146E+00
