#        a       HoverH0(a)       dlogHdloga_of_a(a)
   1.0000000E-04   1.1815841E+06   -1.8846847E+00
   1.0046181E-04   1.1713692E+06   -1.8842754E+00
   1.0092575E-04   1.1612448E+06   -1.8838651E+00
   1.0139184E-04   1.1512100E+06   -1.8834538E+00
   1.0186008E-04   1.1412642E+06   -1.8830414E+00
   1.0233048E-04   1.1314064E+06   -1.8826281E+00
   1.0280305E-04   1.1216359E+06   -1.8822137E+00
   1.0327781E-04   1.1119519E+06   -1.8817984E+00
   1.0375475E-04   1.1023537E+06   -1.8813820E+00
   1.0423390E-04   1.0928403E+06   -1.8809646E+00
   1.0471527E-04   1.0834112E+06   -1.8805462E+00
   1.0519885E-04   1.0740655E+06   -1.8801268E+00
   1.0568467E-04   1.0648025E+06   -1.8797063E+00
   1.0617274E-04   1.0556214E+06   -1.8792849E+00
   1.0666305E-04   1.0465215E+06   -1.8788625E+00
   1.0715563E-04   1.0375021E+06   -1.8784391E+00
   1.0765049E-04   1.0285624E+06   -1.8780146E+00
   1.0814763E-04   1.0197017E+06   -1.8775892E+00
   1.0864707E-04   1.0109194E+06   -1.8771627E+00
   1.0914881E-04   1.0022147E+06   -1.8767353E+00
   1.0965287E-04   9.9358685E+05   -1.8763069E+00
   1.1015926E-04   9.8503525E+05   -1.8758774E+00
   1.1066799E-04   9.7655919E+05   -1.8754470E+00
   1.1117906E-04   9.6815799E+05   -1.8750156E+00
   1.1169250E-04   9.5983097E+05   -1.8745831E+00
   1.1220831E-04   9.5157746E+05   -1.8741497E+00
   1.1272650E-04   9.4339682E+05   -1.8737153E+00
   1.1324708E-04   9.3528838E+05   -1.8732799E+00
   1.1377007E-04   9.2725149E+05   -1.8728435E+00
   1.1429547E-04   9.1928552E+05   -1.8724061E+00
   1.1482330E-04   9.1138982E+05   -1.8719677E+00
   1.1535356E-04   9.0356376E+05   -1.8715284E+00
   1.1588628E-04   8.9580672E+05   -1.8710880E+00
   1.1642145E-04   8.8811807E+05   -1.8706467E+00
   1.1695910E-04   8.8049721E+05   -1.8702044E+00
   1.1749923E-04   8.7294353E+05   -1.8697611E+00
   1.1804185E-04   8.6545641E+05   -1.8693168E+00
   1.1858698E-04   8.5803527E+05   -1.8688715E+00
   1.1913463E-04   8.5067951E+05   -1.8684253E+00
   1.1968481E-04   8.4338855E+05   -1.8679781E+00
   1.2023752E-04   8.3616180E+05   -1.8675299E+00
   1.2079279E-04   8.2899869E+05   -1.8670808E+00
   1.2135063E-04   8.2189865E+05   -1.8666307E+00
   1.2191104E-04   8.1486111E+05   -1.8661796E+00
   1.2247403E-04   8.0788551E+05   -1.8657275E+00
   1.2303963E-04   8.0097129E+05   -1.8652745E+00
   1.2360784E-04   7.9411790E+05   -1.8648205E+00
   1.2417868E-04   7.8732481E+05   -1.8643656E+00
   1.2475215E-04   7.8059146E+05   -1.8639096E+00
   1.2532826E-04   7.7391732E+05   -1.8634528E+00
   1.2590704E-04   7.6730187E+05   -1.8629950E+00
   1.2648850E-04   7.6074457E+05   -1.8625362E+00
   1.2707263E-04   7.5424490E+05   -1.8620765E+00
   1.2765947E-04   7.4780235E+05   -1.8616158E+00
   1.2824901E-04   7.4141641E+05   -1.8611541E+00
   1.2884128E-04   7.3508657E+05   -1.8606916E+00
   1.2943628E-04   7.2881232E+05   -1.8602280E+00
   1.3003403E-04   7.2259318E+05   -1.8597636E+00
   1.3063454E-04   7.1642863E+05   -1.8592982E+00
   1.3123783E-04   7.1031820E+05   -1.8588318E+00
   1.3184390E-04   7.0426140E+05   -1.8583646E+00
   1.3245277E-04   6.9825776E+05   -1.8578963E+00
   1.3306445E-04   6.9230678E+05   -1.8574272E+00
   1.3367895E-04   6.8640801E+05   -1.8569571E+00
   1.3429630E-04   6.8056097E+05   -1.8564861E+00
   1.3491649E-04   6.7476521E+05   -1.8560142E+00
   1.3553955E-04   6.6902026E+05   -1.8555413E+00
   1.3616548E-04   6.6332567E+05   -1.8550676E+00
   1.3679431E-04   6.5768099E+05   -1.8545929E+00
   1.3742604E-04   6.5208577E+05   -1.8541173E+00
   1.3806069E-04   6.4653957E+05   -1.8536407E+00
   1.3869827E-04   6.4104195E+05   -1.8531633E+00
   1.3933879E-04   6.3559248E+05   -1.8526850E+00
   1.3998227E-04   6.3019073E+05   -1.8522057E+00
   1.4062872E-04   6.2483626E+05   -1.8517256E+00
   1.4127816E-04   6.1952866E+05   -1.8512445E+00
   1.4193060E-04   6.1426750E+05   -1.8507626E+00
   1.4258605E-04   6.0905238E+05   -1.8502797E+00
   1.4324453E-04   6.0388288E+05   -1.8497960E+00
   1.4390605E-04   5.9875860E+05   -1.8493113E+00
   1.4457062E-04   5.9367912E+05   -1.8488258E+00
   1.4523826E-04   5.8864405E+05   -1.8483394E+00
   1.4590899E-04   5.8365300E+05   -1.8478521E+00
   1.4658281E-04   5.7870556E+05   -1.8473640E+00
   1.4725974E-04   5.7380135E+05   -1.8468749E+00
   1.4793981E-04   5.6893999E+05   -1.8463850E+00
   1.4862301E-04   5.6412109E+05   -1.8458942E+00
   1.4930936E-04   5.5934427E+05   -1.8454026E+00
   1.4999889E-04   5.5460915E+05   -1.8449100E+00
   1.5069160E-04   5.4991537E+05   -1.8444167E+00
   1.5138751E-04   5.4526256E+05   -1.8439224E+00
   1.5208663E-04   5.4065034E+05   -1.8434273E+00
   1.5278899E-04   5.3607836E+05   -1.8429314E+00
   1.5349458E-04   5.3154626E+05   -1.8424345E+00
   1.5420343E-04   5.2705368E+05   -1.8419369E+00
   1.5491556E-04   5.2260028E+05   -1.8414384E+00
   1.5563098E-04   5.1818569E+05   -1.8409391E+00
   1.5634970E-04   5.1380958E+05   -1.8404389E+00
   1.5707174E-04   5.0947160E+05   -1.8399379E+00
   1.5779711E-04   5.0517141E+05   -1.8394360E+00
   1.5852584E-04   5.0090868E+05   -1.8389334E+00
   1.5925792E-04   4.9668306E+05   -1.8384299E+00
   1.5999339E-04   4.9249424E+05   -1.8379256E+00
   1.6073226E-04   4.8834188E+05   -1.8374204E+00
   1.6147454E-04   4.8422566E+05   -1.8369145E+00
   1.6222024E-04   4.8014525E+05   -1.8364077E+00
   1.6296939E-04   4.7610034E+05   -1.8359001E+00
   1.6372200E-04   4.7209061E+05   -1.8353918E+00
   1.6447809E-04   4.6811575E+05   -1.8348826E+00
   1.6523767E-04   4.6417545E+05   -1.8343726E+00
   1.6600075E-04   4.6026939E+05   -1.8338619E+00
   1.6676736E-04   4.5639728E+05   -1.8333503E+00
   1.6753751E-04   4.5255881E+05   -1.8328380E+00
   1.6831122E-04   4.4875369E+05   -1.8323248E+00
   1.6908849E-04   4.4498161E+05   -1.8318109E+00
   1.6986936E-04   4.4124228E+05   -1.8312963E+00
   1.7065384E-04   4.3753541E+05   -1.8307808E+00
   1.7144193E-04   4.3386072E+05   -1.8302646E+00
   1.7223367E-04   4.3021791E+05   -1.8297476E+00
   1.7302906E-04   4.2660671E+05   -1.8292299E+00
   1.7382813E-04   4.2302683E+05   -1.8287114E+00
   1.7463089E-04   4.1947799E+05   -1.8281921E+00
   1.7543735E-04   4.1595992E+05   -1.8276721E+00
   1.7624754E-04   4.1247235E+05   -1.8271513E+00
   1.7706147E-04   4.0901499E+05   -1.8266299E+00
   1.7787916E-04   4.0558759E+05   -1.8261076E+00
   1.7870062E-04   4.0218988E+05   -1.8255847E+00
   1.7952588E-04   3.9882160E+05   -1.8250610E+00
   1.8035495E-04   3.9548248E+05   -1.8245366E+00
   1.8118785E-04   3.9217226E+05   -1.8240114E+00
   1.8202459E-04   3.8889069E+05   -1.8234856E+00
   1.8286520E-04   3.8563752E+05   -1.8229590E+00
   1.8370969E-04   3.8241249E+05   -1.8224317E+00
   1.8455808E-04   3.7921535E+05   -1.8219037E+00
   1.8541039E-04   3.7604586E+05   -1.8213751E+00
   1.8626663E-04   3.7290376E+05   -1.8208457E+00
   1.8712683E-04   3.6978883E+05   -1.8203156E+00
   1.8799100E-04   3.6670080E+05   -1.8197849E+00
   1.8885917E-04   3.6363946E+05   -1.8192534E+00
   1.8973134E-04   3.6060456E+05   -1.8187213E+00
   1.9060754E-04   3.5759586E+05   -1.8181885E+00
   1.9148778E-04   3.5461313E+05   -1.8176550E+00
   1.9237209E-04   3.5165615E+05   -1.8171209E+00
   1.9326049E-04   3.4872469E+05   -1.8165861E+00
   1.9415299E-04   3.4581851E+05   -1.8160507E+00
   1.9504960E-04   3.4293741E+05   -1.8155146E+00
   1.9595036E-04   3.4008114E+05   -1.8149778E+00
   1.9685528E-04   3.3724950E+05   -1.8144404E+00
   1.9776438E-04   3.3444227E+05   -1.8139024E+00
   1.9867768E-04   3.3165922E+05   -1.8133637E+00
   1.9959519E-04   3.2890016E+05   -1.8128244E+00
   2.0051694E-04   3.2616485E+05   -1.8122845E+00
   2.0144295E-04   3.2345310E+05   -1.8117440E+00
   2.0237324E-04   3.2076469E+05   -1.8112028E+00
   2.0330782E-04   3.1809942E+05   -1.8106611E+00
   2.0424671E-04   3.1545709E+05   -1.8101187E+00
   2.0518995E-04   3.1283748E+05   -1.8095757E+00
   2.0613754E-04   3.1024041E+05   -1.8090321E+00
   2.0708950E-04   3.0766567E+05   -1.8084880E+00
   2.0804586E-04   3.0511306E+05   -1.8079432E+00
   2.0900664E-04   3.0258239E+05   -1.8073979E+00
   2.0997185E-04   3.0007346E+05   -1.8068520E+00
   2.1094152E-04   2.9758609E+05   -1.8063055E+00
   2.1191567E-04   2.9512007E+05   -1.8057584E+00
   2.1289432E-04   2.9267524E+05   -1.8052108E+00
   2.1387749E-04   2.9025138E+05   -1.8046627E+00
   2.1486520E-04   2.8784833E+05   -1.8041139E+00
   2.1585747E-04   2.8546590E+05   -1.8035647E+00
   2.1685432E-04   2.8310390E+05   -1.8030148E+00
   2.1785578E-04   2.8076215E+05   -1.8024645E+00
   2.1886186E-04   2.7844048E+05   -1.8019136E+00
   2.1987259E-04   2.7613872E+05   -1.8013622E+00
   2.2088798E-04   2.7385667E+05   -1.8008102E+00
   2.2190807E-04   2.7159418E+05   -1.8002578E+00
   2.2293286E-04   2.6935107E+05   -1.7997048E+00
   2.2396239E-04   2.6712716E+05   -1.7991513E+00
   2.2499667E-04   2.6492229E+05   -1.7985974E+00
   2.2603573E-04   2.6273628E+05   -1.7980429E+00
   2.2707958E-04   2.6056899E+05   -1.7974879E+00
   2.2812826E-04   2.5842023E+05   -1.7969325E+00
   2.2918178E-04   2.5628984E+05   -1.7963766E+00
   2.3024017E-04   2.5417768E+05   -1.7958201E+00
   2.3130344E-04   2.5208356E+05   -1.7952633E+00
   2.3237162E-04   2.5000734E+05   -1.7947059E+00
   2.3344474E-04   2.4794886E+05   -1.7941481E+00
   2.3452281E-04   2.4590795E+05   -1.7935899E+00
   2.3560586E-04   2.4388448E+05   -1.7930312E+00
   2.3669392E-04   2.4187828E+05   -1.7924720E+00
   2.3778699E-04   2.3988920E+05   -1.7919124E+00
   2.3888512E-04   2.3791709E+05   -1.7913524E+00
   2.3998831E-04   2.3596180E+05   -1.7907919E+00
   2.4109661E-04   2.3402318E+05   -1.7902311E+00
   2.4221001E-04   2.3210109E+05   -1.7896698E+00
   2.4332857E-04   2.3019539E+05   -1.7891081E+00
   2.4445228E-04   2.2830592E+05   -1.7885460E+00
   2.4558119E-04   2.2643255E+05   -1.7879835E+00
   2.4671531E-04   2.2457513E+05   -1.7874206E+00
   2.4785467E-04   2.2273353E+05   -1.7868573E+00
   2.4899928E-04   2.2090760E+05   -1.7862936E+00
   2.5014919E-04   2.1909721E+05   -1.7857296E+00
   2.5130440E-04   2.1730222E+05   -1.7851652E+00
   2.5246495E-04   2.1552250E+05   -1.7846004E+00
   2.5363086E-04   2.1375791E+05   -1.7840352E+00
   2.5480216E-04   2.1200832E+05   -1.7834697E+00
   2.5597886E-04   2.1027360E+05   -1.7829039E+00
   2.5716100E-04   2.0855362E+05   -1.7823377E+00
   2.5834859E-04   2.0684824E+05   -1.7817711E+00
   2.5954168E-04   2.0515735E+05   -1.7812043E+00
   2.6074027E-04   2.0348081E+05   -1.7806371E+00
   2.6194439E-04   2.0181849E+05   -1.7800696E+00
   2.6315408E-04   2.0017029E+05   -1.7795017E+00
   2.6436935E-04   1.9853606E+05   -1.7789336E+00
   2.6559024E-04   1.9691569E+05   -1.7783652E+00
   2.6681676E-04   1.9530905E+05   -1.7777964E+00
   2.6804895E-04   1.9371604E+05   -1.7772274E+00
   2.6928683E-04   1.9213652E+05   -1.7766581E+00
   2.7053042E-04   1.9057038E+05   -1.7760885E+00
   2.7177976E-04   1.8901750E+05   -1.7755186E+00
   2.7303487E-04   1.8747776E+05   -1.7749485E+00
   2.7429577E-04   1.8595106E+05   -1.7743781E+00
   2.7556250E-04   1.8443728E+05   -1.7738074E+00
   2.7683507E-04   1.8293630E+05   -1.7732365E+00
   2.7811353E-04   1.8144801E+05   -1.7726653E+00
   2.7939788E-04   1.7997230E+05   -1.7720940E+00
   2.8068817E-04   1.7850907E+05   -1.7715223E+00
   2.8198442E-04   1.7705820E+05   -1.7709505E+00
   2.8328665E-04   1.7561958E+05   -1.7703784E+00
   2.8459490E-04   1.7419311E+05   -1.7698061E+00
   2.8590919E-04   1.7277869E+05   -1.7692336E+00
   2.8722955E-04   1.7137620E+05   -1.7686609E+00
   2.8855600E-04   1.6998554E+05   -1.7680880E+00
   2.8988859E-04   1.6860662E+05   -1.7675149E+00
   2.9122732E-04   1.6723932E+05   -1.7669416E+00
   2.9257224E-04   1.6588355E+05   -1.7663682E+00
   2.9392337E-04   1.6453920E+05   -1.7657945E+00
   2.9528074E-04   1.6320618E+05   -1.7652207E+00
   2.9664438E-04   1.6188439E+05   -1.7646468E+00
   2.9801431E-04   1.6057373E+05   -1.7640726E+00
   2.9939057E-04   1.5927410E+05   -1.7634984E+00
   3.0077319E-04   1.5798540E+05   -1.7629240E+00
   3.0216219E-04   1.5670755E+05   -1.7623494E+00
   3.0355761E-04   1.5544045E+05   -1.7617747E+00
   3.0495947E-04   1.5418400E+05   -1.7611999E+00
   3.0636780E-04   1.5293811E+05   -1.7606250E+00
   3.0778264E-04   1.5170269E+05   -1.7600500E+00
   3.0920401E-04   1.5047765E+05   -1.7594748E+00
   3.1063195E-04   1.4926290E+05   -1.7588996E+00
   3.1206648E-04   1.4805834E+05   -1.7583242E+00
   3.1350764E-04   1.4686390E+05   -1.7577488E+00
   3.1495545E-04   1.4567947E+05   -1.7571733E+00
   3.1640994E-04   1.4450499E+05   -1.7565977E+00
   3.1787116E-04   1.4334035E+05   -1.7560221E+00
   3.1933912E-04   1.4218548E+05   -1.7554463E+00
   3.2081386E-04   1.4104028E+05   -1.7548705E+00
   3.2229541E-04   1.3990468E+05   -1.7542947E+00
   3.2378381E-04   1.3877859E+05   -1.7537188E+00
   3.2527908E-04   1.3766193E+05   -1.7531429E+00
   3.2678125E-04   1.3655462E+05   -1.7525670E+00
   3.2829036E-04   1.3545657E+05   -1.7519910E+00
   3.2980644E-04   1.3436771E+05   -1.7514150E+00
   3.3132952E-04   1.3328796E+05   -1.7508389E+00
   3.3285963E-04   1.3221723E+05   -1.7502629E+00
   3.3439681E-04   1.3115546E+05   -1.7496869E+00
   3.3594109E-04   1.3010255E+05   -1.7491108E+00
   3.3749250E-04   1.2905844E+05   -1.7485348E+00
   3.3905108E-04   1.2802305E+05   -1.7479588E+00
   3.4061685E-04   1.2699631E+05   -1.7473828E+00
   3.4218986E-04   1.2597813E+05   -1.7468069E+00
   3.4377013E-04   1.2496845E+05   -1.7462309E+00
   3.4535769E-04   1.2396718E+05   -1.7456551E+00
   3.4695259E-04   1.2297427E+05   -1.7450792E+00
   3.4855485E-04   1.2198963E+05   -1.7445034E+00
   3.5016452E-04   1.2101320E+05   -1.7439277E+00
   3.5178161E-04   1.2004490E+05   -1.7433520E+00
   3.5340618E-04   1.1908467E+05   -1.7427764E+00
   3.5503824E-04   1.1813243E+05   -1.7422009E+00
   3.5667785E-04   1.1718811E+05   -1.7416255E+00
   3.5832502E-04   1.1625166E+05   -1.7410501E+00
   3.5997981E-04   1.1532299E+05   -1.7404749E+00
   3.6164223E-04   1.1440204E+05   -1.7398997E+00
   3.6331233E-04   1.1348875E+05   -1.7393246E+00
   3.6499015E-04   1.1258304E+05   -1.7387497E+00
   3.6667571E-04   1.1168486E+05   -1.7381749E+00
   3.6836906E-04   1.1079414E+05   -1.7376002E+00
   3.7007022E-04   1.0991082E+05   -1.7370256E+00
   3.7177925E-04   1.0903482E+05   -1.7364512E+00
   3.7349616E-04   1.0816610E+05   -1.7358769E+00
   3.7522101E-04   1.0730458E+05   -1.7353028E+00
   3.7695382E-04   1.0645020E+05   -1.7347288E+00
   3.7869463E-04   1.0560290E+05   -1.7341550E+00
   3.8044348E-04   1.0476263E+05   -1.7335813E+00
   3.8220041E-04   1.0392932E+05   -1.7330078E+00
   3.8396545E-04   1.0310290E+05   -1.7324345E+00
   3.8573864E-04   1.0228333E+05   -1.7318614E+00
   3.8752002E-04   1.0147054E+05   -1.7312885E+00
   3.8930963E-04   1.0066448E+05   -1.7307157E+00
   3.9110750E-04   9.9865080E+04   -1.7301432E+00
   3.9291368E-04   9.9072292E+04   -1.7295709E+00
   3.9472820E-04   9.8286056E+04   -1.7289988E+00
   3.9655109E-04   9.7506317E+04   -1.7284269E+00
   3.9838241E-04   9.6733019E+04   -1.7278552E+00
   4.0022218E-04   9.5966106E+04   -1.7272838E+00
   4.0207045E-04   9.5205525E+04   -1.7267126E+00
   4.0392725E-04   9.4451220E+04   -1.7261417E+00
   4.0579263E-04   9.3703137E+04   -1.7255710E+00
   4.0766662E-04   9.2961224E+04   -1.7250005E+00
   4.0954927E-04   9.2225428E+04   -1.7244303E+00
   4.1144061E-04   9.1495695E+04   -1.7238604E+00
   4.1334068E-04   9.0771975E+04   -1.7232908E+00
   4.1524953E-04   9.0054216E+04   -1.7227214E+00
   4.1716720E-04   8.9342367E+04   -1.7221524E+00
   4.1909372E-04   8.8636377E+04   -1.7215836E+00
   4.2102914E-04   8.7936196E+04   -1.7210151E+00
   4.2297350E-04   8.7241774E+04   -1.7204469E+00
   4.2492683E-04   8.6553063E+04   -1.7198791E+00
   4.2688919E-04   8.5870014E+04   -1.7193115E+00
   4.2886061E-04   8.5192577E+04   -1.7187443E+00
   4.3084113E-04   8.4520706E+04   -1.7181774E+00
   4.3283080E-04   8.3854352E+04   -1.7176108E+00
   4.3482966E-04   8.3193470E+04   -1.7170445E+00
   4.3683775E-04   8.2538010E+04   -1.7164786E+00
   4.3885511E-04   8.1887929E+04   -1.7159131E+00
   4.4088179E-04   8.1243179E+04   -1.7153479E+00
   4.4291783E-04   8.0603716E+04   -1.7147830E+00
   4.4496327E-04   7.9969494E+04   -1.7142186E+00
   4.4701816E-04   7.9340468E+04   -1.7136545E+00
   4.4908253E-04   7.8716595E+04   -1.7130907E+00
   4.5115644E-04   7.8097830E+04   -1.7125274E+00
   4.5323993E-04   7.7484130E+04   -1.7119644E+00
   4.5533304E-04   7.6875452E+04   -1.7114019E+00
   4.5743582E-04   7.6271753E+04   -1.7108397E+00
   4.5954830E-04   7.5672991E+04   -1.7102780E+00
   4.6167054E-04   7.5079124E+04   -1.7097166E+00
   4.6380259E-04   7.4490110E+04   -1.7091557E+00
   4.6594448E-04   7.3905907E+04   -1.7085952E+00
   4.6809626E-04   7.3326476E+04   -1.7080351E+00
   4.7025797E-04   7.2751775E+04   -1.7074754E+00
   4.7242967E-04   7.2181765E+04   -1.7069162E+00
   4.7461140E-04   7.1616404E+04   -1.7063575E+00
   4.7680321E-04   7.1055655E+04   -1.7057991E+00
   4.7900514E-04   7.0499478E+04   -1.7052413E+00
   4.8121723E-04   6.9947834E+04   -1.7046838E+00
   4.8343954E-04   6.9400685E+04   -1.7041269E+00
   4.8567212E-04   6.8857992E+04   -1.7035704E+00
   4.8791500E-04   6.8319718E+04   -1.7030144E+00
   4.9016825E-04   6.7785826E+04   -1.7024589E+00
   4.9243189E-04   6.7256277E+04   -1.7019039E+00
   4.9470600E-04   6.6731036E+04   -1.7013493E+00
   4.9699060E-04   6.6210066E+04   -1.7007953E+00
   4.9928575E-04   6.5693331E+04   -1.7002417E+00
   5.0159151E-04   6.5180795E+04   -1.6996887E+00
   5.0390791E-04   6.4672422E+04   -1.6991361E+00
   5.0623501E-04   6.4168178E+04   -1.6985841E+00
   5.0857286E-04   6.3668027E+04   -1.6980326E+00
   5.1092150E-04   6.3171935E+04   -1.6974817E+00
   5.1328099E-04   6.2679867E+04   -1.6969312E+00
   5.1565137E-04   6.2191790E+04   -1.6963813E+00
   5.1803270E-04   6.1707670E+04   -1.6958320E+00
   5.2042503E-04   6.1227473E+04   -1.6952832E+00
   5.2282841E-04   6.0751167E+04   -1.6947349E+00
   5.2524289E-04   6.0278718E+04   -1.6941872E+00
   5.2766851E-04   5.9810094E+04   -1.6936401E+00
   5.3010534E-04   5.9345263E+04   -1.6930935E+00
   5.3255342E-04   5.8884192E+04   -1.6925475E+00
   5.3501281E-04   5.8426851E+04   -1.6920021E+00
   5.3748356E-04   5.7973207E+04   -1.6914572E+00
   5.3996571E-04   5.7523230E+04   -1.6909130E+00
   5.4245933E-04   5.7076889E+04   -1.6903693E+00
   5.4496446E-04   5.6634152E+04   -1.6898262E+00
   5.4748117E-04   5.6194991E+04   -1.6892838E+00
   5.5000949E-04   5.5759374E+04   -1.6887419E+00
   5.5254949E-04   5.5327272E+04   -1.6882007E+00
   5.5510123E-04   5.4898656E+04   -1.6876600E+00
   5.5766474E-04   5.4473495E+04   -1.6871200E+00
   5.6024010E-04   5.4051762E+04   -1.6865806E+00
   5.6282734E-04   5.3633427E+04   -1.6860419E+00
   5.6542654E-04   5.3218461E+04   -1.6855037E+00
   5.6803774E-04   5.2806837E+04   -1.6849662E+00
   5.7066099E-04   5.2398526E+04   -1.6844294E+00
   5.7329637E-04   5.1993501E+04   -1.6838932E+00
   5.7594391E-04   5.1591735E+04   -1.6833576E+00
   5.7860368E-04   5.1193199E+04   -1.6828227E+00
   5.8127573E-04   5.0797867E+04   -1.6822885E+00
   5.8396012E-04   5.0405711E+04   -1.6817549E+00
   5.8665691E-04   5.0016706E+04   -1.6812220E+00
   5.8936616E-04   4.9630825E+04   -1.6806898E+00
   5.9208791E-04   4.9248042E+04   -1.6801582E+00
   5.9482223E-04   4.8868330E+04   -1.6796274E+00
   5.9756919E-04   4.8491665E+04   -1.6790972E+00
   6.0032882E-04   4.8118020E+04   -1.6785677E+00
   6.0310120E-04   4.7747371E+04   -1.6780389E+00
   6.0588639E-04   4.7379692E+04   -1.6775108E+00
   6.0868443E-04   4.7014959E+04   -1.6769834E+00
   6.1149540E-04   4.6653147E+04   -1.6764567E+00
   6.1431935E-04   4.6294232E+04   -1.6759308E+00
   6.1715634E-04   4.5938189E+04   -1.6754055E+00
   6.2000644E-04   4.5584995E+04   -1.6748810E+00
   6.2286969E-04   4.5234625E+04   -1.6743572E+00
