#        a       HoverH0(a)       dlogHdloga_of_a(a)
   1.0000000E-04   1.0481927E+06   -1.8809866E+00
   1.0046181E-04   1.0391487E+06   -1.8805682E+00
   1.0092575E-04   1.0301847E+06   -1.8801489E+00
   1.0139184E-04   1.0213000E+06   -1.8797285E+00
   1.0186008E-04   1.0124939E+06   -1.8793071E+00
   1.0233048E-04   1.0037657E+06   -1.8788848E+00
   1.0280305E-04   9.9511468E+05   -1.8784614E+00
   1.0327781E-04   9.8654013E+05   -1.8780370E+00
   1.0375475E-04   9.7804137E+05   -1.8776116E+00
   1.0423390E-04   9.6961774E+05   -1.8771852E+00
   1.0471527E-04   9.6126854E+05   -1.8767579E+00
   1.0519885E-04   9.5299312E+05   -1.8763295E+00
   1.0568467E-04   9.4479080E+05   -1.8759001E+00
   1.0617274E-04   9.3666094E+05   -1.8754697E+00
   1.0666305E-04   9.2860288E+05   -1.8750383E+00
   1.0715563E-04   9.2061597E+05   -1.8746059E+00
   1.0765049E-04   9.1269959E+05   -1.8741726E+00
   1.0814763E-04   9.0485308E+05   -1.8737382E+00
   1.0864707E-04   8.9707582E+05   -1.8733029E+00
   1.0914881E-04   8.8936720E+05   -1.8728665E+00
   1.0965287E-04   8.8172659E+05   -1.8724292E+00
   1.1015926E-04   8.7415339E+05   -1.8719909E+00
   1.1066799E-04   8.6664699E+05   -1.8715515E+00
   1.1117906E-04   8.5920678E+05   -1.8711113E+00
   1.1169250E-04   8.5183218E+05   -1.8706700E+00
   1.1220831E-04   8.4452259E+05   -1.8702277E+00
   1.1272650E-04   8.3727744E+05   -1.8697845E+00
   1.1324708E-04   8.3009614E+05   -1.8693402E+00
   1.1377007E-04   8.2297812E+05   -1.8688950E+00
   1.1429547E-04   8.1592281E+05   -1.8684489E+00
   1.1482330E-04   8.0892965E+05   -1.8680017E+00
   1.1535356E-04   8.0199809E+05   -1.8675536E+00
   1.1588628E-04   7.9512756E+05   -1.8671045E+00
   1.1642145E-04   7.8831752E+05   -1.8666544E+00
   1.1695910E-04   7.8156743E+05   -1.8662034E+00
   1.1749923E-04   7.7487675E+05   -1.8657514E+00
   1.1804185E-04   7.6824495E+05   -1.8652984E+00
   1.1858698E-04   7.6167150E+05   -1.8648445E+00
   1.1913463E-04   7.5515588E+05   -1.8643896E+00
   1.1968481E-04   7.4869756E+05   -1.8639337E+00
   1.2023752E-04   7.4229604E+05   -1.8634769E+00
   1.2079279E-04   7.3595080E+05   -1.8630191E+00
   1.2135063E-04   7.2966134E+05   -1.8625604E+00
   1.2191104E-04   7.2342717E+05   -1.8621007E+00
   1.2247403E-04   7.1724778E+05   -1.8616401E+00
   1.2303963E-04   7.1112268E+05   -1.8611785E+00
   1.2360784E-04   7.0505139E+05   -1.8607160E+00
   1.2417868E-04   6.9903343E+05   -1.8602525E+00
   1.2475215E-04   6.9306831E+05   -1.8597881E+00
   1.2532826E-04   6.8715557E+05   -1.8593228E+00
   1.2590704E-04   6.8129473E+05   -1.8588565E+00
   1.2648850E-04   6.7548533E+05   -1.8583893E+00
   1.2707263E-04   6.6972692E+05   -1.8579211E+00
   1.2765947E-04   6.6401902E+05   -1.8574520E+00
   1.2824901E-04   6.5836120E+05   -1.8569820E+00
   1.2884128E-04   6.5275301E+05   -1.8565110E+00
   1.2943628E-04   6.4719399E+05   -1.8560391E+00
   1.3003403E-04   6.4168371E+05   -1.8555663E+00
   1.3063454E-04   6.3622173E+05   -1.8550926E+00
   1.3123783E-04   6.3080762E+05   -1.8546180E+00
   1.3184390E-04   6.2544095E+05   -1.8541424E+00
   1.3245277E-04   6.2012130E+05   -1.8536660E+00
   1.3306445E-04   6.1484825E+05   -1.8531886E+00
   1.3367895E-04   6.0962138E+05   -1.8527103E+00
   1.3429630E-04   6.0444027E+05   -1.8522311E+00
   1.3491649E-04   5.9930453E+05   -1.8517510E+00
   1.3553955E-04   5.9421373E+05   -1.8512700E+00
   1.3616548E-04   5.8916749E+05   -1.8507881E+00
   1.3679431E-04   5.8416540E+05   -1.8503053E+00
   1.3742604E-04   5.7920707E+05   -1.8498216E+00
   1.3806069E-04   5.7429210E+05   -1.8493370E+00
   1.3869827E-04   5.6942012E+05   -1.8488515E+00
   1.3933879E-04   5.6459072E+05   -1.8483652E+00
   1.3998227E-04   5.5980355E+05   -1.8478779E+00
   1.4062872E-04   5.5505821E+05   -1.8473898E+00
   1.4127816E-04   5.5035433E+05   -1.8469008E+00
   1.4193060E-04   5.4569155E+05   -1.8464110E+00
   1.4258605E-04   5.4106950E+05   -1.8459202E+00
   1.4324453E-04   5.3648781E+05   -1.8454286E+00
   1.4390605E-04   5.3194612E+05   -1.8449361E+00
   1.4457062E-04   5.2744408E+05   -1.8444428E+00
   1.4523826E-04   5.2298133E+05   -1.8439486E+00
   1.4590899E-04   5.1855752E+05   -1.8434535E+00
   1.4658281E-04   5.1417231E+05   -1.8429576E+00
   1.4725974E-04   5.0982534E+05   -1.8424609E+00
   1.4793981E-04   5.0551629E+05   -1.8419633E+00
   1.4862301E-04   5.0124480E+05   -1.8414648E+00
   1.4930936E-04   4.9701055E+05   -1.8409655E+00
   1.4999889E-04   4.9281321E+05   -1.8404654E+00
   1.5069160E-04   4.8865243E+05   -1.8399644E+00
   1.5138751E-04   4.8452791E+05   -1.8394626E+00
   1.5208663E-04   4.8043931E+05   -1.8389600E+00
   1.5278899E-04   4.7638631E+05   -1.8384566E+00
   1.5349458E-04   4.7236861E+05   -1.8379523E+00
   1.5420343E-04   4.6838588E+05   -1.8374472E+00
   1.5491556E-04   4.6443781E+05   -1.8369413E+00
   1.5563098E-04   4.6052409E+05   -1.8364346E+00
   1.5634970E-04   4.5664442E+05   -1.8359271E+00
   1.5707174E-04   4.5279849E+05   -1.8354187E+00
   1.5779711E-04   4.4898601E+05   -1.8349096E+00
   1.5852584E-04   4.4520667E+05   -1.8343997E+00
   1.5925792E-04   4.4146018E+05   -1.8338890E+00
   1.5999339E-04   4.3774625E+05   -1.8333775E+00
   1.6073226E-04   4.3406459E+05   -1.8328652E+00
   1.6147454E-04   4.3041491E+05   -1.8323521E+00
   1.6222024E-04   4.2679693E+05   -1.8318382E+00
   1.6296939E-04   4.2321036E+05   -1.8313236E+00
   1.6372200E-04   4.1965493E+05   -1.8308082E+00
   1.6447809E-04   4.1613035E+05   -1.8302920E+00
   1.6523767E-04   4.1263636E+05   -1.8297751E+00
   1.6600075E-04   4.0917269E+05   -1.8292574E+00
   1.6676736E-04   4.0573905E+05   -1.8287389E+00
   1.6753751E-04   4.0233519E+05   -1.8282197E+00
   1.6831122E-04   3.9896084E+05   -1.8276997E+00
   1.6908849E-04   3.9561574E+05   -1.8271790E+00
   1.6986936E-04   3.9229963E+05   -1.8266576E+00
   1.7065384E-04   3.8901225E+05   -1.8261354E+00
   1.7144193E-04   3.8575335E+05   -1.8256125E+00
   1.7223367E-04   3.8252267E+05   -1.8250888E+00
   1.7302906E-04   3.7931996E+05   -1.8245644E+00
   1.7382813E-04   3.7614498E+05   -1.8240394E+00
   1.7463089E-04   3.7299748E+05   -1.8235135E+00
   1.7543735E-04   3.6987721E+05   -1.8229870E+00
   1.7624754E-04   3.6678393E+05   -1.8224598E+00
   1.7706147E-04   3.6371740E+05   -1.8219318E+00
   1.7787916E-04   3.6067740E+05   -1.8214032E+00
   1.7870062E-04   3.5766367E+05   -1.8208739E+00
   1.7952588E-04   3.5467599E+05   -1.8203438E+00
   1.8035495E-04   3.5171412E+05   -1.8198131E+00
   1.8118785E-04   3.4877785E+05   -1.8192817E+00
   1.8202459E-04   3.4586693E+05   -1.8187496E+00
   1.8286520E-04   3.4298115E+05   -1.8182169E+00
   1.8370969E-04   3.4012029E+05   -1.8176835E+00
   1.8455808E-04   3.3728411E+05   -1.8171494E+00
   1.8541039E-04   3.3447241E+05   -1.8166146E+00
   1.8626663E-04   3.3168497E+05   -1.8160792E+00
   1.8712683E-04   3.2892157E+05   -1.8155431E+00
   1.8799100E-04   3.2618200E+05   -1.8150064E+00
   1.8885917E-04   3.2346604E+05   -1.8144691E+00
   1.8973134E-04   3.2077350E+05   -1.8139311E+00
   1.9060754E-04   3.1810416E+05   -1.8133925E+00
   1.9148778E-04   3.1545781E+05   -1.8128532E+00
   1.9237209E-04   3.1283426E+05   -1.8123133E+00
   1.9326049E-04   3.1023329E+05   -1.8117728E+00
   1.9415299E-04   3.0765472E+05   -1.8112317E+00
   1.9504960E-04   3.0509835E+05   -1.8106900E+00
   1.9595036E-04   3.0256397E+05   -1.8101476E+00
   1.9685528E-04   3.0005139E+05   -1.8096047E+00
   1.9776438E-04   2.9756042E+05   -1.8090611E+00
   1.9867768E-04   2.9509087E+05   -1.8085170E+00
   1.9959519E-04   2.9264255E+05   -1.8079723E+00
   2.0051694E-04   2.9021528E+05   -1.8074270E+00
   2.0144295E-04   2.8780886E+05   -1.8068811E+00
   2.0237324E-04   2.8542311E+05   -1.8063347E+00
   2.0330782E-04   2.8305785E+05   -1.8057877E+00
   2.0424671E-04   2.8071290E+05   -1.8052401E+00
   2.0518995E-04   2.7838808E+05   -1.8046919E+00
   2.0613754E-04   2.7608320E+05   -1.8041432E+00
   2.0708950E-04   2.7379811E+05   -1.8035940E+00
   2.0804586E-04   2.7153262E+05   -1.8030442E+00
   2.0900664E-04   2.6928655E+05   -1.8024939E+00
   2.0997185E-04   2.6705974E+05   -1.8019430E+00
   2.1094152E-04   2.6485202E+05   -1.8013917E+00
   2.1191567E-04   2.6266321E+05   -1.8008397E+00
   2.1289432E-04   2.6049316E+05   -1.8002873E+00
   2.1387749E-04   2.5834169E+05   -1.7997344E+00
   2.1486520E-04   2.5620865E+05   -1.7991809E+00
   2.1585747E-04   2.5409386E+05   -1.7986270E+00
   2.1685432E-04   2.5199718E+05   -1.7980726E+00
   2.1785578E-04   2.4991843E+05   -1.7975176E+00
   2.1886186E-04   2.4785747E+05   -1.7969622E+00
   2.1987259E-04   2.4581413E+05   -1.7964063E+00
   2.2088798E-04   2.4378826E+05   -1.7958499E+00
   2.2190807E-04   2.4177971E+05   -1.7952931E+00
   2.2293286E-04   2.3978832E+05   -1.7947358E+00
   2.2396239E-04   2.3781395E+05   -1.7941780E+00
   2.2499667E-04   2.3585643E+05   -1.7936198E+00
   2.2603573E-04   2.3391564E+05   -1.7930611E+00
   2.2707958E-04   2.3199141E+05   -1.7925020E+00
   2.2812826E-04   2.3008360E+05   -1.7919424E+00
   2.2918178E-04   2.2819207E+05   -1.7913824E+00
   2.3024017E-04   2.2631667E+05   -1.7908220E+00
   2.3130344E-04   2.2445727E+05   -1.7902611E+00
   2.3237162E-04   2.2261371E+05   -1.7896999E+00
   2.3344474E-04   2.2078588E+05   -1.7891382E+00
   2.3452281E-04   2.1897361E+05   -1.7885761E+00
   2.3560586E-04   2.1717679E+05   -1.7880137E+00
   2.3669392E-04   2.1539527E+05   -1.7874508E+00
   2.3778699E-04   2.1362891E+05   -1.7868875E+00
   2.3888512E-04   2.1187759E+05   -1.7863239E+00
   2.3998831E-04   2.1014118E+05   -1.7857599E+00
   2.4109661E-04   2.0841953E+05   -1.7851955E+00
   2.4221001E-04   2.0671253E+05   -1.7846307E+00
   2.4332857E-04   2.0502004E+05   -1.7840656E+00
   2.4445228E-04   2.0334194E+05   -1.7835001E+00
   2.4558119E-04   2.0167810E+05   -1.7829343E+00
   2.4671531E-04   2.0002840E+05   -1.7823681E+00
   2.4785467E-04   1.9839271E+05   -1.7818016E+00
   2.4899928E-04   1.9677091E+05   -1.7812347E+00
   2.5014919E-04   1.9516288E+05   -1.7806676E+00
   2.5130440E-04   1.9356849E+05   -1.7801001E+00
   2.5246495E-04   1.9198763E+05   -1.7795323E+00
   2.5363086E-04   1.9042018E+05   -1.7789642E+00
   2.5480216E-04   1.8886602E+05   -1.7783957E+00
   2.5597886E-04   1.8732504E+05   -1.7778270E+00
   2.5716100E-04   1.8579712E+05   -1.7772580E+00
   2.5834859E-04   1.8428214E+05   -1.7766887E+00
   2.5954168E-04   1.8277999E+05   -1.7761191E+00
   2.6074027E-04   1.8129057E+05   -1.7755493E+00
   2.6194439E-04   1.7981375E+05   -1.7749792E+00
   2.6315408E-04   1.7834944E+05   -1.7744088E+00
   2.6436935E-04   1.7689751E+05   -1.7738382E+00
   2.6559024E-04   1.7545787E+05   -1.7732673E+00
   2.6681676E-04   1.7403040E+05   -1.7726961E+00
   2.6804895E-04   1.7261499E+05   -1.7721247E+00
   2.6928683E-04   1.7121155E+05   -1.7715531E+00
   2.7053042E-04   1.6981997E+05   -1.7709813E+00
   2.7177976E-04   1.6844014E+05   -1.7704092E+00
   2.7303487E-04   1.6707196E+05   -1.7698370E+00
   2.7429577E-04   1.6571534E+05   -1.7692645E+00
   2.7556250E-04   1.6437016E+05   -1.7686918E+00
   2.7683507E-04   1.6303633E+05   -1.7681189E+00
   2.7811353E-04   1.6171376E+05   -1.7675458E+00
   2.7939788E-04   1.6040233E+05   -1.7669726E+00
   2.8068817E-04   1.5910196E+05   -1.7663991E+00
   2.8198442E-04   1.5781255E+05   -1.7658255E+00
   2.8328665E-04   1.5653401E+05   -1.7652517E+00
   2.8459490E-04   1.5526623E+05   -1.7646778E+00
   2.8590919E-04   1.5400913E+05   -1.7641037E+00
   2.8722955E-04   1.5276261E+05   -1.7635294E+00
   2.8855600E-04   1.5152658E+05   -1.7629550E+00
   2.8988859E-04   1.5030095E+05   -1.7623805E+00
   2.9122732E-04   1.4908562E+05   -1.7618058E+00
   2.9257224E-04   1.4788052E+05   -1.7612310E+00
   2.9392337E-04   1.4668554E+05   -1.7606561E+00
   2.9528074E-04   1.4550061E+05   -1.7600811E+00
   2.9664438E-04   1.4432563E+05   -1.7595060E+00
   2.9801431E-04   1.4316052E+05   -1.7589307E+00
   2.9939057E-04   1.4200519E+05   -1.7583554E+00
   3.0077319E-04   1.4085956E+05   -1.7577800E+00
   3.0216219E-04   1.3972354E+05   -1.7572045E+00
   3.0355761E-04   1.3859706E+05   -1.7566289E+00
   3.0495947E-04   1.3748001E+05   -1.7560533E+00
   3.0636780E-04   1.3637233E+05   -1.7554775E+00
   3.0778264E-04   1.3527394E+05   -1.7549018E+00
   3.0920401E-04   1.3418475E+05   -1.7543260E+00
   3.1063195E-04   1.3310468E+05   -1.7537501E+00
   3.1206648E-04   1.3203366E+05   -1.7531742E+00
   3.1350764E-04   1.3097160E+05   -1.7525982E+00
   3.1495545E-04   1.2991842E+05   -1.7520222E+00
   3.1640994E-04   1.2887406E+05   -1.7514463E+00
   3.1787116E-04   1.2783844E+05   -1.7508702E+00
   3.1933912E-04   1.2681147E+05   -1.7502942E+00
   3.2081386E-04   1.2579309E+05   -1.7497182E+00
   3.2229541E-04   1.2478321E+05   -1.7491422E+00
   3.2378381E-04   1.2378178E+05   -1.7485662E+00
   3.2527908E-04   1.2278870E+05   -1.7479902E+00
   3.2678125E-04   1.2180392E+05   -1.7474142E+00
   3.2829036E-04   1.2082735E+05   -1.7468382E+00
   3.2980644E-04   1.1985893E+05   -1.7462623E+00
   3.3132952E-04   1.1889859E+05   -1.7456864E+00
   3.3285963E-04   1.1794626E+05   -1.7451106E+00
   3.3439681E-04   1.1700186E+05   -1.7445348E+00
   3.3594109E-04   1.1606534E+05   -1.7439591E+00
   3.3749250E-04   1.1513661E+05   -1.7433834E+00
   3.3905108E-04   1.1421562E+05   -1.7428078E+00
   3.4061685E-04   1.1330230E+05   -1.7422323E+00
   3.4218986E-04   1.1239658E+05   -1.7416569E+00
   3.4377013E-04   1.1149840E+05   -1.7410815E+00
   3.4535769E-04   1.1060768E+05   -1.7405063E+00
   3.4695259E-04   1.0972437E+05   -1.7399311E+00
   3.4855485E-04   1.0884841E+05   -1.7393560E+00
   3.5016452E-04   1.0797972E+05   -1.7387811E+00
   3.5178161E-04   1.0711825E+05   -1.7382063E+00
   3.5340618E-04   1.0626394E+05   -1.7376316E+00
   3.5503824E-04   1.0541671E+05   -1.7370570E+00
   3.5667785E-04   1.0457652E+05   -1.7364826E+00
   3.5832502E-04   1.0374330E+05   -1.7359083E+00
   3.5997981E-04   1.0291699E+05   -1.7353342E+00
   3.6164223E-04   1.0209754E+05   -1.7347602E+00
   3.6331233E-04   1.0128487E+05   -1.7341864E+00
   3.6499015E-04   1.0047894E+05   -1.7336127E+00
   3.6667571E-04   9.9679686E+04   -1.7330392E+00
   3.6836906E-04   9.8887050E+04   -1.7324659E+00
   3.7007022E-04   9.8100976E+04   -1.7318928E+00
   3.7177925E-04   9.7321408E+04   -1.7313199E+00
   3.7349616E-04   9.6548290E+04   -1.7307471E+00
   3.7522101E-04   9.5781565E+04   -1.7301746E+00
   3.7695382E-04   9.5021181E+04   -1.7296023E+00
   3.7869463E-04   9.4267081E+04   -1.7290302E+00
   3.8044348E-04   9.3519213E+04   -1.7284583E+00
   3.8220041E-04   9.2777522E+04   -1.7278866E+00
   3.8396545E-04   9.2041956E+04   -1.7273152E+00
   3.8573864E-04   9.1312462E+04   -1.7267440E+00
   3.8752002E-04   9.0588988E+04   -1.7261731E+00
   3.8930963E-04   8.9871483E+04   -1.7256024E+00
   3.9110750E-04   8.9159895E+04   -1.7250319E+00
   3.9291368E-04   8.8454173E+04   -1.7244617E+00
   3.9472820E-04   8.7754268E+04   -1.7238918E+00
   3.9655109E-04   8.7060130E+04   -1.7233222E+00
   3.9838241E-04   8.6371708E+04   -1.7227528E+00
   4.0022218E-04   8.5688956E+04   -1.7221837E+00
   4.0207045E-04   8.5011823E+04   -1.7216150E+00
   4.0392725E-04   8.4340262E+04   -1.7210465E+00
   4.0579263E-04   8.3674225E+04   -1.7204783E+00
   4.0766662E-04   8.3013666E+04   -1.7199104E+00
   4.0954927E-04   8.2358536E+04   -1.7193428E+00
   4.1144061E-04   8.1708790E+04   -1.7187756E+00
   4.1334068E-04   8.1064382E+04   -1.7182087E+00
   4.1524953E-04   8.0425266E+04   -1.7176421E+00
   4.1716720E-04   7.9791397E+04   -1.7170758E+00
   4.1909372E-04   7.9162731E+04   -1.7165099E+00
   4.2102914E-04   7.8539222E+04   -1.7159444E+00
   4.2297350E-04   7.7920827E+04   -1.7153792E+00
   4.2492683E-04   7.7307503E+04   -1.7148143E+00
   4.2688919E-04   7.6699206E+04   -1.7142498E+00
   4.2886061E-04   7.6095893E+04   -1.7136857E+00
   4.3084113E-04   7.5497521E+04   -1.7131220E+00
   4.3283080E-04   7.4904050E+04   -1.7125586E+00
   4.3482966E-04   7.4315437E+04   -1.7119957E+00
   4.3683775E-04   7.3731640E+04   -1.7114331E+00
   4.3885511E-04   7.3152619E+04   -1.7108709E+00
   4.4088179E-04   7.2578332E+04   -1.7103092E+00
   4.4291783E-04   7.2008741E+04   -1.7097478E+00
   4.4496327E-04   7.1443804E+04   -1.7091869E+00
   4.4701816E-04   7.0883483E+04   -1.7086264E+00
   4.4908253E-04   7.0327737E+04   -1.7080663E+00
   4.5115644E-04   6.9776529E+04   -1.7075066E+00
   4.5323993E-04   6.9229820E+04   -1.7069474E+00
   4.5533304E-04   6.8687571E+04   -1.7063886E+00
   4.5743582E-04   6.8149745E+04   -1.7058302E+00
   4.5954830E-04   6.7616304E+04   -1.7052724E+00
   4.6167054E-04   6.7087210E+04   -1.7047149E+00
   4.6380259E-04   6.6562428E+04   -1.7041580E+00
   4.6594448E-04   6.6041920E+04   -1.7036015E+00
   4.6809626E-04   6.5525650E+04   -1.7030455E+00
   4.7025797E-04   6.5013583E+04   -1.7024899E+00
   4.7242967E-04   6.4505682E+04   -1.7019349E+00
   4.7461140E-04   6.4001913E+04   -1.7013803E+00
   4.7680321E-04   6.3502240E+04   -1.7008263E+00
   4.7900514E-04   6.3006629E+04   -1.7002727E+00
   4.8121723E-04   6.2515046E+04   -1.6997196E+00
   4.8343954E-04   6.2027456E+04   -1.6991671E+00
   4.8567212E-04   6.1543825E+04   -1.6986151E+00
   4.8791500E-04   6.1064121E+04   -1.6980636E+00
   4.9016825E-04   6.0588309E+04   -1.6975126E+00
   4.9243189E-04   6.0116358E+04   -1.6969621E+00
   4.9470600E-04   5.9648234E+04   -1.6964122E+00
   4.9699060E-04   5.9183905E+04   -1.6958628E+00
   4.9928575E-04   5.8723339E+04   -1.6953140E+00
   5.0159151E-04   5.8266505E+04   -1.6947657E+00
   5.0390791E-04   5.7813370E+04   -1.6942180E+00
   5.0623501E-04   5.7363905E+04   -1.6936709E+00
   5.0857286E-04   5.6918076E+04   -1.6931243E+00
   5.1092150E-04   5.6475856E+04   -1.6925783E+00
   5.1328099E-04   5.6037211E+04   -1.6920328E+00
   5.1565137E-04   5.5602114E+04   -1.6914880E+00
   5.1803270E-04   5.5170533E+04   -1.6909437E+00
   5.2042503E-04   5.4742439E+04   -1.6904000E+00
   5.2282841E-04   5.4317803E+04   -1.6898569E+00
   5.2524289E-04   5.3896596E+04   -1.6893144E+00
   5.2766851E-04   5.3478788E+04   -1.6887726E+00
   5.3010534E-04   5.3064352E+04   -1.6882313E+00
   5.3255342E-04   5.2653259E+04   -1.6876906E+00
   5.3501281E-04   5.2245480E+04   -1.6871506E+00
   5.3748356E-04   5.1840989E+04   -1.6866112E+00
   5.3996571E-04   5.1439756E+04   -1.6860724E+00
   5.4245933E-04   5.1041756E+04   -1.6855342E+00
   5.4496446E-04   5.0646961E+04   -1.6849967E+00
   5.4748117E-04   5.0255344E+04   -1.6844599E+00
   5.5000949E-04   4.9866879E+04   -1.6839236E+00
   5.5254949E-04   4.9481538E+04   -1.6833881E+00
   5.5510123E-04   4.9099296E+04   -1.6828531E+00
   5.5766474E-04   4.8720127E+04   -1.6823189E+00
   5.6024010E-04   4.8344005E+04   -1.6817853E+00
   5.6282734E-04   4.7970904E+04   -1.6812524E+00
   5.6542654E-04   4.7600800E+04   -1.6807201E+00
   5.6803774E-04   4.7233666E+04   -1.6801886E+00
   5.7066099E-04   4.6869479E+04   -1.6796577E+00
   5.7329637E-04   4.6508214E+04   -1.6791275E+00
   5.7594391E-04   4.6149846E+04   -1.6785980E+00
   5.7860368E-04   4.5794352E+04   -1.6780691E+00
   5.8127573E-04   4.5441706E+04   -1.6775410E+00
   5.8396012E-04   4.5091885E+04   -1.6770136E+00
   5.8665691E-04   4.4744866E+04   -1.6764869E+00
   5.8936616E-04   4.4400626E+04   -1.6759609E+00
   5.9208791E-04   4.4059140E+04   -1.6754356E+00
   5.9482223E-04   4.3720387E+04   -1.6749111E+00
   5.9756919E-04   4.3384343E+04   -1.6743872E+00
   6.0032882E-04   4.3050985E+04   -1.6738641E+00
   6.0310120E-04   4.2720292E+04   -1.6733417E+00
   6.0588639E-04   4.2392241E+04   -1.6728201E+00
   6.0868443E-04   4.2066811E+04   -1.6722992E+00
   6.1149540E-04   4.1743978E+04   -1.6717791E+00
   6.1431935E-04   4.1423723E+04   -1.6712597E+00
   6.1715634E-04   4.1106022E+04   -1.6707410E+00
   6.2000644E-04   4.0790856E+04   -1.6702231E+00
   6.2286969E-04   4.0478203E+04   -1.6697060E+00
