#        a       HoverH0(a)       dlogHdloga_of_a(a)
   1.0000000E-04   1.2101337E+06   -1.8834529E+00
   1.0046181E-04   1.1996787E+06   -1.8830406E+00
   1.0092575E-04   1.1893164E+06   -1.8826272E+00
   1.0139184E-04   1.1790458E+06   -1.8822129E+00
   1.0186008E-04   1.1688662E+06   -1.8817975E+00
   1.0233048E-04   1.1587766E+06   -1.8813811E+00
   1.0280305E-04   1.1487764E+06   -1.8809637E+00
   1.0327781E-04   1.1388647E+06   -1.8805453E+00
   1.0375475E-04   1.1290406E+06   -1.8801259E+00
   1.0423390E-04   1.1193035E+06   -1.8797055E+00
   1.0471527E-04   1.1096525E+06   -1.8792841E+00
   1.0519885E-04   1.1000868E+06   -1.8788616E+00
   1.0568467E-04   1.0906057E+06   -1.8784382E+00
   1.0617274E-04   1.0812085E+06   -1.8780138E+00
   1.0666305E-04   1.0718943E+06   -1.8775883E+00
   1.0715563E-04   1.0626624E+06   -1.8771619E+00
   1.0765049E-04   1.0535122E+06   -1.8767344E+00
   1.0814763E-04   1.0444428E+06   -1.8763060E+00
   1.0864707E-04   1.0354535E+06   -1.8758765E+00
   1.0914881E-04   1.0265436E+06   -1.8754461E+00
   1.0965287E-04   1.0177124E+06   -1.8750147E+00
   1.1015926E-04   1.0089591E+06   -1.8745822E+00
   1.1066799E-04   1.0002832E+06   -1.8741488E+00
   1.1117906E-04   9.9168383E+05   -1.8737144E+00
   1.1169250E-04   9.8316036E+05   -1.8732790E+00
   1.1220831E-04   9.7471212E+05   -1.8728426E+00
   1.1272650E-04   9.6633841E+05   -1.8724052E+00
   1.1324708E-04   9.5803858E+05   -1.8719668E+00
   1.1377007E-04   9.4981195E+05   -1.8715275E+00
   1.1429547E-04   9.4165788E+05   -1.8710871E+00
   1.1482330E-04   9.3357570E+05   -1.8706458E+00
   1.1535356E-04   9.2556478E+05   -1.8702035E+00
   1.1588628E-04   9.1762447E+05   -1.8697602E+00
   1.1642145E-04   9.0975414E+05   -1.8693159E+00
   1.1695910E-04   9.0195316E+05   -1.8688706E+00
   1.1749923E-04   8.9422090E+05   -1.8684244E+00
   1.1804185E-04   8.8655676E+05   -1.8679772E+00
   1.1858698E-04   8.7896012E+05   -1.8675290E+00
   1.1913463E-04   8.7143037E+05   -1.8670799E+00
   1.1968481E-04   8.6396692E+05   -1.8666297E+00
   1.2023752E-04   8.5656917E+05   -1.8661786E+00
   1.2079279E-04   8.4923653E+05   -1.8657266E+00
   1.2135063E-04   8.4196842E+05   -1.8652736E+00
   1.2191104E-04   8.3476425E+05   -1.8648196E+00
   1.2247403E-04   8.2762346E+05   -1.8643646E+00
   1.2303963E-04   8.2054548E+05   -1.8639087E+00
   1.2360784E-04   8.1352973E+05   -1.8634519E+00
   1.2417868E-04   8.0657567E+05   -1.8629940E+00
   1.2475215E-04   7.9968275E+05   -1.8625353E+00
   1.2532826E-04   7.9285040E+05   -1.8620755E+00
   1.2590704E-04   7.8607810E+05   -1.8616148E+00
   1.2648850E-04   7.7936530E+05   -1.8611532E+00
   1.2707263E-04   7.7271147E+05   -1.8606906E+00
   1.2765947E-04   7.6611609E+05   -1.8602271E+00
   1.2824901E-04   7.5957862E+05   -1.8597626E+00
   1.2884128E-04   7.5309855E+05   -1.8592972E+00
   1.2943628E-04   7.4667537E+05   -1.8588309E+00
   1.3003403E-04   7.4030856E+05   -1.8583636E+00
   1.3063454E-04   7.3399762E+05   -1.8578954E+00
   1.3123783E-04   7.2774205E+05   -1.8574263E+00
   1.3184390E-04   7.2154136E+05   -1.8569562E+00
   1.3245277E-04   7.1539505E+05   -1.8564852E+00
   1.3306445E-04   7.0930264E+05   -1.8560132E+00
   1.3367895E-04   7.0326364E+05   -1.8555404E+00
   1.3429630E-04   6.9727758E+05   -1.8550666E+00
   1.3491649E-04   6.9134398E+05   -1.8545919E+00
   1.3553955E-04   6.8546238E+05   -1.8541163E+00
   1.3616548E-04   6.7963230E+05   -1.8536398E+00
   1.3679431E-04   6.7385329E+05   -1.8531624E+00
   1.3742604E-04   6.6812490E+05   -1.8526840E+00
   1.3806069E-04   6.6244666E+05   -1.8522048E+00
   1.3869827E-04   6.5681813E+05   -1.8517246E+00
   1.3933879E-04   6.5123887E+05   -1.8512436E+00
   1.3998227E-04   6.4570843E+05   -1.8507616E+00
   1.4062872E-04   6.4022638E+05   -1.8502788E+00
   1.4127816E-04   6.3479228E+05   -1.8497950E+00
   1.4193060E-04   6.2940571E+05   -1.8493104E+00
   1.4258605E-04   6.2406625E+05   -1.8488249E+00
   1.4324453E-04   6.1877346E+05   -1.8483385E+00
   1.4390605E-04   6.1352695E+05   -1.8478512E+00
   1.4457062E-04   6.0832628E+05   -1.8473630E+00
   1.4523826E-04   6.0317106E+05   -1.8468740E+00
   1.4590899E-04   5.9806087E+05   -1.8463840E+00
   1.4658281E-04   5.9299532E+05   -1.8458933E+00
   1.4725974E-04   5.8797400E+05   -1.8454016E+00
   1.4793981E-04   5.8299653E+05   -1.8449091E+00
   1.4862301E-04   5.7806250E+05   -1.8444157E+00
   1.4930936E-04   5.7317154E+05   -1.8439214E+00
   1.4999889E-04   5.6832325E+05   -1.8434263E+00
   1.5069160E-04   5.6351726E+05   -1.8429304E+00
   1.5138751E-04   5.5875319E+05   -1.8424336E+00
   1.5208663E-04   5.5403066E+05   -1.8419359E+00
   1.5278899E-04   5.4934931E+05   -1.8414374E+00
   1.5349458E-04   5.4470877E+05   -1.8409381E+00
   1.5420343E-04   5.4010867E+05   -1.8404379E+00
   1.5491556E-04   5.3554866E+05   -1.8399369E+00
   1.5563098E-04   5.3102837E+05   -1.8394351E+00
   1.5634970E-04   5.2654745E+05   -1.8389324E+00
   1.5707174E-04   5.2210555E+05   -1.8384289E+00
   1.5779711E-04   5.1770233E+05   -1.8379246E+00
   1.5852584E-04   5.1333744E+05   -1.8374194E+00
   1.5925792E-04   5.0901053E+05   -1.8369135E+00
   1.5999339E-04   5.0472127E+05   -1.8364067E+00
   1.6073226E-04   5.0046933E+05   -1.8358992E+00
   1.6147454E-04   4.9625436E+05   -1.8353908E+00
   1.6222024E-04   4.9207605E+05   -1.8348816E+00
   1.6296939E-04   4.8793407E+05   -1.8343716E+00
   1.6372200E-04   4.8382808E+05   -1.8338609E+00
   1.6447809E-04   4.7975778E+05   -1.8333493E+00
   1.6523767E-04   4.7572285E+05   -1.8328370E+00
   1.6600075E-04   4.7172296E+05   -1.8323239E+00
   1.6676736E-04   4.6775781E+05   -1.8318099E+00
   1.6753751E-04   4.6382709E+05   -1.8312953E+00
   1.6831122E-04   4.5993049E+05   -1.8307798E+00
   1.6908849E-04   4.5606771E+05   -1.8302636E+00
   1.6986936E-04   4.5223845E+05   -1.8297466E+00
   1.7065384E-04   4.4844241E+05   -1.8292289E+00
   1.7144193E-04   4.4467930E+05   -1.8287104E+00
   1.7223367E-04   4.4094881E+05   -1.8281911E+00
   1.7302906E-04   4.3725068E+05   -1.8276711E+00
   1.7382813E-04   4.3358459E+05   -1.8271504E+00
   1.7463089E-04   4.2995028E+05   -1.8266289E+00
   1.7543735E-04   4.2634745E+05   -1.8261066E+00
   1.7624754E-04   4.2277583E+05   -1.8255837E+00
   1.7706147E-04   4.1923515E+05   -1.8250600E+00
   1.7787916E-04   4.1572512E+05   -1.8245356E+00
   1.7870062E-04   4.1224547E+05   -1.8240104E+00
   1.7952588E-04   4.0879594E+05   -1.8234846E+00
   1.8035495E-04   4.0537625E+05   -1.8229580E+00
   1.8118785E-04   4.0198615E+05   -1.8224307E+00
   1.8202459E-04   3.9862537E+05   -1.8219028E+00
   1.8286520E-04   3.9529365E+05   -1.8213741E+00
   1.8370969E-04   3.9199073E+05   -1.8208447E+00
   1.8455808E-04   3.8871635E+05   -1.8203146E+00
   1.8541039E-04   3.8547028E+05   -1.8197839E+00
   1.8626663E-04   3.8225224E+05   -1.8192524E+00
   1.8712683E-04   3.7906200E+05   -1.8187203E+00
   1.8799100E-04   3.7589930E+05   -1.8181875E+00
   1.8885917E-04   3.7276391E+05   -1.8176541E+00
   1.8973134E-04   3.6965558E+05   -1.8171199E+00
   1.9060754E-04   3.6657407E+05   -1.8165851E+00
   1.9148778E-04   3.6351915E+05   -1.8160497E+00
   1.9237209E-04   3.6049057E+05   -1.8155136E+00
   1.9326049E-04   3.5748811E+05   -1.8149768E+00
   1.9415299E-04   3.5451153E+05   -1.8144394E+00
   1.9504960E-04   3.5156061E+05   -1.8139014E+00
   1.9595036E-04   3.4863512E+05   -1.8133627E+00
   1.9685528E-04   3.4573483E+05   -1.8128234E+00
   1.9776438E-04   3.4285952E+05   -1.8122835E+00
   1.9867768E-04   3.4000897E+05   -1.8117430E+00
   1.9959519E-04   3.3718296E+05   -1.8112018E+00
   2.0051694E-04   3.3438127E+05   -1.8106601E+00
   2.0144295E-04   3.3160369E+05   -1.8101177E+00
   2.0237324E-04   3.2885001E+05   -1.8095747E+00
   2.0330782E-04   3.2612000E+05   -1.8090311E+00
   2.0424671E-04   3.2341347E+05   -1.8084870E+00
   2.0518995E-04   3.2073021E+05   -1.8079422E+00
   2.0613754E-04   3.1807001E+05   -1.8073969E+00
   2.0708950E-04   3.1543267E+05   -1.8068510E+00
   2.0804586E-04   3.1281798E+05   -1.8063045E+00
   2.0900664E-04   3.1022574E+05   -1.8057574E+00
   2.0997185E-04   3.0765577E+05   -1.8052098E+00
   2.1094152E-04   3.0510785E+05   -1.8046617E+00
   2.1191567E-04   3.0258180E+05   -1.8041129E+00
   2.1289432E-04   3.0007742E+05   -1.8035637E+00
   2.1387749E-04   2.9759453E+05   -1.8030138E+00
   2.1486520E-04   2.9513292E+05   -1.8024635E+00
   2.1585747E-04   2.9269242E+05   -1.8019126E+00
   2.1685432E-04   2.9027284E+05   -1.8013612E+00
   2.1785578E-04   2.8787399E+05   -1.8008093E+00
   2.1886186E-04   2.8549569E+05   -1.8002568E+00
   2.1987259E-04   2.8313777E+05   -1.7997038E+00
   2.2088798E-04   2.8080003E+05   -1.7991504E+00
   2.2190807E-04   2.7848230E+05   -1.7985964E+00
   2.2293286E-04   2.7618441E+05   -1.7980419E+00
   2.2396239E-04   2.7390618E+05   -1.7974869E+00
   2.2499667E-04   2.7164744E+05   -1.7969315E+00
   2.2603573E-04   2.6940802E+05   -1.7963756E+00
   2.2707958E-04   2.6718774E+05   -1.7958192E+00
   2.2812826E-04   2.6498644E+05   -1.7952623E+00
   2.2918178E-04   2.6280395E+05   -1.7947049E+00
   2.3024017E-04   2.6064010E+05   -1.7941471E+00
   2.3130344E-04   2.5849474E+05   -1.7935889E+00
   2.3237162E-04   2.5636769E+05   -1.7930302E+00
   2.3344474E-04   2.5425880E+05   -1.7924710E+00
   2.3452281E-04   2.5216791E+05   -1.7919114E+00
   2.3560586E-04   2.5009486E+05   -1.7913514E+00
   2.3669392E-04   2.4803949E+05   -1.7907910E+00
   2.3778699E-04   2.4600165E+05   -1.7902301E+00
   2.3888512E-04   2.4398118E+05   -1.7896688E+00
   2.3998831E-04   2.4197793E+05   -1.7891071E+00
   2.4109661E-04   2.3999176E+05   -1.7885450E+00
   2.4221001E-04   2.3802250E+05   -1.7879825E+00
   2.4332857E-04   2.3607001E+05   -1.7874196E+00
   2.4445228E-04   2.3413414E+05   -1.7868563E+00
   2.4558119E-04   2.3221476E+05   -1.7862927E+00
   2.4671531E-04   2.3031170E+05   -1.7857286E+00
   2.4785467E-04   2.2842484E+05   -1.7851642E+00
   2.4899928E-04   2.2655402E+05   -1.7845994E+00
   2.5014919E-04   2.2469911E+05   -1.7840343E+00
   2.5130440E-04   2.2285997E+05   -1.7834688E+00
   2.5246495E-04   2.2103646E+05   -1.7829029E+00
   2.5363086E-04   2.1922844E+05   -1.7823367E+00
   2.5480216E-04   2.1743578E+05   -1.7817702E+00
   2.5597886E-04   2.1565833E+05   -1.7812033E+00
   2.5716100E-04   2.1389598E+05   -1.7806361E+00
   2.5834859E-04   2.1214858E+05   -1.7800686E+00
   2.5954168E-04   2.1041601E+05   -1.7795008E+00
   2.6074027E-04   2.0869814E+05   -1.7789327E+00
   2.6194439E-04   2.0699483E+05   -1.7783642E+00
   2.6315408E-04   2.0530596E+05   -1.7777955E+00
   2.6436935E-04   2.0363141E+05   -1.7772264E+00
   2.6559024E-04   2.0197104E+05   -1.7766571E+00
   2.6681676E-04   2.0032473E+05   -1.7760875E+00
   2.6804895E-04   1.9869237E+05   -1.7755177E+00
   2.6928683E-04   1.9707383E+05   -1.7749475E+00
   2.7053042E-04   1.9546898E+05   -1.7743771E+00
   2.7177976E-04   1.9387772E+05   -1.7738065E+00
   2.7303487E-04   1.9229991E+05   -1.7732356E+00
   2.7429577E-04   1.9073544E+05   -1.7726644E+00
   2.7556250E-04   1.8918420E+05   -1.7720930E+00
   2.7683507E-04   1.8764608E+05   -1.7715214E+00
   2.7811353E-04   1.8612094E+05   -1.7709495E+00
   2.7939788E-04   1.8460869E+05   -1.7703775E+00
   2.8068817E-04   1.8310921E+05   -1.7698052E+00
   2.8198442E-04   1.8162239E+05   -1.7692327E+00
   2.8328665E-04   1.8014811E+05   -1.7686600E+00
   2.8459490E-04   1.7868628E+05   -1.7680871E+00
   2.8590919E-04   1.7723677E+05   -1.7675140E+00
   2.8722955E-04   1.7579949E+05   -1.7669407E+00
   2.8855600E-04   1.7437432E+05   -1.7663672E+00
   2.8988859E-04   1.7296117E+05   -1.7657936E+00
   2.9122732E-04   1.7155992E+05   -1.7652198E+00
   2.9257224E-04   1.7017047E+05   -1.7646458E+00
   2.9392337E-04   1.6879272E+05   -1.7640717E+00
   2.9528074E-04   1.6742657E+05   -1.7634975E+00
   2.9664438E-04   1.6607192E+05   -1.7629231E+00
   2.9801431E-04   1.6472866E+05   -1.7623485E+00
   2.9939057E-04   1.6339670E+05   -1.7617738E+00
   3.0077319E-04   1.6207594E+05   -1.7611990E+00
   3.0216219E-04   1.6076628E+05   -1.7606241E+00
   3.0355761E-04   1.5946762E+05   -1.7600491E+00
   3.0495947E-04   1.5817988E+05   -1.7594739E+00
   3.0636780E-04   1.5690295E+05   -1.7588987E+00
   3.0778264E-04   1.5563674E+05   -1.7583234E+00
   3.0920401E-04   1.5438116E+05   -1.7577479E+00
   3.1063195E-04   1.5313611E+05   -1.7571724E+00
   3.1206648E-04   1.5190151E+05   -1.7565968E+00
   3.1350764E-04   1.5067726E+05   -1.7560212E+00
   3.1495545E-04   1.4946327E+05   -1.7554455E+00
   3.1640994E-04   1.4825946E+05   -1.7548697E+00
   3.1787116E-04   1.4706574E+05   -1.7542938E+00
   3.1933912E-04   1.4588201E+05   -1.7537180E+00
   3.2081386E-04   1.4470819E+05   -1.7531420E+00
   3.2229541E-04   1.4354420E+05   -1.7525661E+00
   3.2378381E-04   1.4238995E+05   -1.7519901E+00
   3.2527908E-04   1.4124536E+05   -1.7514141E+00
   3.2678125E-04   1.4011034E+05   -1.7508381E+00
   3.2829036E-04   1.3898481E+05   -1.7502621E+00
   3.2980644E-04   1.3786869E+05   -1.7496860E+00
   3.3132952E-04   1.3676189E+05   -1.7491100E+00
   3.3285963E-04   1.3566434E+05   -1.7485340E+00
   3.3439681E-04   1.3457595E+05   -1.7479580E+00
   3.3594109E-04   1.3349665E+05   -1.7473820E+00
   3.3749250E-04   1.3242636E+05   -1.7468060E+00
   3.3905108E-04   1.3136499E+05   -1.7462301E+00
   3.4061685E-04   1.3031248E+05   -1.7456542E+00
   3.4218986E-04   1.2926875E+05   -1.7450784E+00
   3.4377013E-04   1.2823371E+05   -1.7445026E+00
   3.4535769E-04   1.2720730E+05   -1.7439269E+00
   3.4695259E-04   1.2618944E+05   -1.7433512E+00
   3.4855485E-04   1.2518006E+05   -1.7427756E+00
   3.5016452E-04   1.2417908E+05   -1.7422001E+00
   3.5178161E-04   1.2318643E+05   -1.7416247E+00
   3.5340618E-04   1.2220204E+05   -1.7410493E+00
   3.5503824E-04   1.2122583E+05   -1.7404740E+00
   3.5667785E-04   1.2025775E+05   -1.7398989E+00
   3.5832502E-04   1.1929771E+05   -1.7393238E+00
   3.5997981E-04   1.1834565E+05   -1.7387489E+00
   3.6164223E-04   1.1740149E+05   -1.7381741E+00
   3.6331233E-04   1.1646518E+05   -1.7375994E+00
   3.6499015E-04   1.1553664E+05   -1.7370248E+00
   3.6667571E-04   1.1461581E+05   -1.7364504E+00
   3.6836906E-04   1.1370262E+05   -1.7358761E+00
   3.7007022E-04   1.1279700E+05   -1.7353020E+00
   3.7177925E-04   1.1189889E+05   -1.7347280E+00
   3.7349616E-04   1.1100823E+05   -1.7341542E+00
   3.7522101E-04   1.1012495E+05   -1.7335805E+00
   3.7695382E-04   1.0924898E+05   -1.7330071E+00
   3.7869463E-04   1.0838027E+05   -1.7324338E+00
   3.8044348E-04   1.0751874E+05   -1.7318606E+00
   3.8220041E-04   1.0666435E+05   -1.7312877E+00
   3.8396545E-04   1.0581703E+05   -1.7307150E+00
   3.8573864E-04   1.0497672E+05   -1.7301425E+00
   3.8752002E-04   1.0414335E+05   -1.7295701E+00
   3.8930963E-04   1.0331687E+05   -1.7289980E+00
   3.9110750E-04   1.0249722E+05   -1.7284261E+00
   3.9291368E-04   1.0168434E+05   -1.7278545E+00
   3.9472820E-04   1.0087817E+05   -1.7272831E+00
   3.9655109E-04   1.0007866E+05   -1.7267119E+00
   3.9838241E-04   9.9285746E+04   -1.7261409E+00
   4.0022218E-04   9.8499373E+04   -1.7255703E+00
   4.0207045E-04   9.7719486E+04   -1.7249998E+00
   4.0392725E-04   9.6946027E+04   -1.7244296E+00
   4.0579263E-04   9.6178944E+04   -1.7238597E+00
   4.0766662E-04   9.5418180E+04   -1.7232901E+00
   4.0954927E-04   9.4663683E+04   -1.7227208E+00
   4.1144061E-04   9.3915397E+04   -1.7221517E+00
   4.1334068E-04   9.3173271E+04   -1.7215829E+00
   4.1524953E-04   9.2437251E+04   -1.7210144E+00
   4.1716720E-04   9.1707286E+04   -1.7204463E+00
   4.1909372E-04   9.0983323E+04   -1.7198784E+00
   4.2102914E-04   9.0265311E+04   -1.7193108E+00
   4.2297350E-04   8.9553200E+04   -1.7187436E+00
   4.2492683E-04   8.8846939E+04   -1.7181767E+00
   4.2688919E-04   8.8146478E+04   -1.7176101E+00
   4.2886061E-04   8.7451768E+04   -1.7170439E+00
   4.3084113E-04   8.6762759E+04   -1.7164780E+00
   4.3283080E-04   8.6079403E+04   -1.7159124E+00
   4.3482966E-04   8.5401652E+04   -1.7153472E+00
   4.3683775E-04   8.4729458E+04   -1.7147824E+00
   4.3885511E-04   8.4062773E+04   -1.7142179E+00
   4.4088179E-04   8.3401550E+04   -1.7136538E+00
   4.4291783E-04   8.2745744E+04   -1.7130901E+00
   4.4496327E-04   8.2095308E+04   -1.7125268E+00
   4.4701816E-04   8.1450196E+04   -1.7119638E+00
   4.4908253E-04   8.0810362E+04   -1.7114013E+00
   4.5115644E-04   8.0175763E+04   -1.7108391E+00
   4.5323993E-04   7.9546353E+04   -1.7102774E+00
   4.5533304E-04   7.8922089E+04   -1.7097160E+00
   4.5743582E-04   7.8302926E+04   -1.7091551E+00
   4.5954830E-04   7.7688821E+04   -1.7085946E+00
   4.6167054E-04   7.7079731E+04   -1.7080345E+00
   4.6380259E-04   7.6475614E+04   -1.7074749E+00
   4.6594448E-04   7.5876428E+04   -1.7069157E+00
   4.6809626E-04   7.5282130E+04   -1.7063569E+00
   4.7025797E-04   7.4692678E+04   -1.7057986E+00
   4.7242967E-04   7.4108033E+04   -1.7052407E+00
   4.7461140E-04   7.3528153E+04   -1.7046833E+00
   4.7680321E-04   7.2952998E+04   -1.7041264E+00
   4.7900514E-04   7.2382527E+04   -1.7035699E+00
   4.8121723E-04   7.1816701E+04   -1.7030139E+00
   4.8343954E-04   7.1255481E+04   -1.7024584E+00
   4.8567212E-04   7.0698828E+04   -1.7019033E+00
   4.8791500E-04   7.0146702E+04   -1.7013488E+00
   4.9016825E-04   6.9599066E+04   -1.7007948E+00
   4.9243189E-04   6.9055882E+04   -1.7002412E+00
   4.9470600E-04   6.8517112E+04   -1.6996882E+00
   4.9699060E-04   6.7982718E+04   -1.6991356E+00
   4.9928575E-04   6.7452664E+04   -1.6985836E+00
   5.0159151E-04   6.6926912E+04   -1.6980321E+00
   5.0390791E-04   6.6405428E+04   -1.6974812E+00
   5.0623501E-04   6.5888173E+04   -1.6969308E+00
   5.0857286E-04   6.5375114E+04   -1.6963809E+00
   5.1092150E-04   6.4866214E+04   -1.6958315E+00
   5.1328099E-04   6.4361438E+04   -1.6952827E+00
   5.1565137E-04   6.3860752E+04   -1.6947345E+00
   5.1803270E-04   6.3364120E+04   -1.6941868E+00
   5.2042503E-04   6.2871510E+04   -1.6936396E+00
   5.2282841E-04   6.2382886E+04   -1.6930931E+00
   5.2524289E-04   6.1898216E+04   -1.6925471E+00
   5.2766851E-04   6.1417465E+04   -1.6920017E+00
   5.3010534E-04   6.0940601E+04   -1.6914568E+00
   5.3255342E-04   6.0467592E+04   -1.6909126E+00
   5.3501281E-04   5.9998404E+04   -1.6903689E+00
   5.3748356E-04   5.9533006E+04   -1.6898258E+00
   5.3996571E-04   5.9071366E+04   -1.6892834E+00
   5.4245933E-04   5.8613452E+04   -1.6887415E+00
   5.4496446E-04   5.8159233E+04   -1.6882003E+00
   5.4748117E-04   5.7708678E+04   -1.6876597E+00
   5.5000949E-04   5.7261755E+04   -1.6871196E+00
   5.5254949E-04   5.6818435E+04   -1.6865803E+00
   5.5510123E-04   5.6378687E+04   -1.6860415E+00
   5.5766474E-04   5.5942482E+04   -1.6855034E+00
   5.6024010E-04   5.5509789E+04   -1.6849659E+00
   5.6282734E-04   5.5080578E+04   -1.6844290E+00
   5.6542654E-04   5.4654822E+04   -1.6838928E+00
   5.6803774E-04   5.4232491E+04   -1.6833573E+00
   5.7066099E-04   5.3813555E+04   -1.6828224E+00
   5.7329637E-04   5.3397988E+04   -1.6822882E+00
   5.7594391E-04   5.2985760E+04   -1.6817546E+00
   5.7860368E-04   5.2576843E+04   -1.6812217E+00
   5.8127573E-04   5.2171211E+04   -1.6806895E+00
   5.8396012E-04   5.1768835E+04   -1.6801579E+00
   5.8665691E-04   5.1369687E+04   -1.6796271E+00
   5.8936616E-04   5.0973742E+04   -1.6790969E+00
   5.9208791E-04   5.0580973E+04   -1.6785674E+00
   5.9482223E-04   5.0191352E+04   -1.6780386E+00
   5.9756919E-04   4.9804853E+04   -1.6775106E+00
   6.0032882E-04   4.9421451E+04   -1.6769832E+00
   6.0310120E-04   4.9041119E+04   -1.6764565E+00
   6.0588639E-04   4.8663833E+04   -1.6759305E+00
   6.0868443E-04   4.8289565E+04   -1.6754053E+00
   6.1149540E-04   4.7918293E+04   -1.6748807E+00
   6.1431935E-04   4.7549989E+04   -1.6743569E+00
   6.1715634E-04   4.7184630E+04   -1.6738339E+00
   6.2000644E-04   4.6822192E+04   -1.6733115E+00
   6.2286969E-04   4.6462649E+04   -1.6727899E+00
