#        a       HoverH0(a)       dlogHdloga_of_a(a)
   1.0000000E-04   1.0747975E+06   -1.8881106E+00
   1.0046181E-04   1.0654890E+06   -1.8877100E+00
   1.0092575E-04   1.0562630E+06   -1.8873083E+00
   1.0139184E-04   1.0471188E+06   -1.8869055E+00
   1.0186008E-04   1.0380557E+06   -1.8865018E+00
   1.0233048E-04   1.0290730E+06   -1.8860970E+00
   1.0280305E-04   1.0201699E+06   -1.8856913E+00
   1.0327781E-04   1.0113457E+06   -1.8852845E+00
   1.0375475E-04   1.0025997E+06   -1.8848767E+00
   1.0423390E-04   9.9393127E+05   -1.8844678E+00
   1.0471527E-04   9.8533961E+05   -1.8840580E+00
   1.0519885E-04   9.7682407E+05   -1.8836472E+00
   1.0568467E-04   9.6838395E+05   -1.8832353E+00
   1.0617274E-04   9.6001859E+05   -1.8828224E+00
   1.0666305E-04   9.5172730E+05   -1.8824085E+00
   1.0715563E-04   9.4350942E+05   -1.8819936E+00
   1.0765049E-04   9.3536430E+05   -1.8815777E+00
   1.0814763E-04   9.2729126E+05   -1.8811608E+00
   1.0864707E-04   9.1928968E+05   -1.8807429E+00
   1.0914881E-04   9.1135889E+05   -1.8803239E+00
   1.0965287E-04   9.0349827E+05   -1.8799040E+00
   1.1015926E-04   8.9570719E+05   -1.8794830E+00
   1.1066799E-04   8.8798501E+05   -1.8790611E+00
   1.1117906E-04   8.8033112E+05   -1.8786381E+00
   1.1169250E-04   8.7274490E+05   -1.8782142E+00
   1.1220831E-04   8.6522576E+05   -1.8777892E+00
   1.1272650E-04   8.5777307E+05   -1.8773632E+00
   1.1324708E-04   8.5038625E+05   -1.8769362E+00
   1.1377007E-04   8.4306470E+05   -1.8765083E+00
   1.1429547E-04   8.3580785E+05   -1.8760793E+00
   1.1482330E-04   8.2861509E+05   -1.8756493E+00
   1.1535356E-04   8.2148586E+05   -1.8752184E+00
   1.1588628E-04   8.1441959E+05   -1.8747864E+00
   1.1642145E-04   8.0741572E+05   -1.8743534E+00
   1.1695910E-04   8.0047367E+05   -1.8739195E+00
   1.1749923E-04   7.9359290E+05   -1.8734845E+00
   1.1804185E-04   7.8677285E+05   -1.8730486E+00
   1.1858698E-04   7.8001298E+05   -1.8726117E+00
   1.1913463E-04   7.7331275E+05   -1.8721738E+00
   1.1968481E-04   7.6667162E+05   -1.8717349E+00
   1.2023752E-04   7.6008907E+05   -1.8712950E+00
   1.2079279E-04   7.5356456E+05   -1.8708541E+00
   1.2135063E-04   7.4709758E+05   -1.8704123E+00
   1.2191104E-04   7.4068760E+05   -1.8699694E+00
   1.2247403E-04   7.3433412E+05   -1.8695256E+00
   1.2303963E-04   7.2803663E+05   -1.8690808E+00
   1.2360784E-04   7.2179463E+05   -1.8686350E+00
   1.2417868E-04   7.1560762E+05   -1.8681883E+00
   1.2475215E-04   7.0947510E+05   -1.8677406E+00
   1.2532826E-04   7.0339658E+05   -1.8672919E+00
   1.2590704E-04   6.9737159E+05   -1.8668422E+00
   1.2648850E-04   6.9139964E+05   -1.8663916E+00
   1.2707263E-04   6.8548026E+05   -1.8659400E+00
   1.2765947E-04   6.7961297E+05   -1.8654874E+00
   1.2824901E-04   6.7379730E+05   -1.8650339E+00
   1.2884128E-04   6.6803281E+05   -1.8645794E+00
   1.2943628E-04   6.6231901E+05   -1.8641239E+00
   1.3003403E-04   6.5665547E+05   -1.8636675E+00
   1.3063454E-04   6.5104173E+05   -1.8632101E+00
   1.3123783E-04   6.4547734E+05   -1.8627518E+00
   1.3184390E-04   6.3996186E+05   -1.8622925E+00
   1.3245277E-04   6.3449485E+05   -1.8618323E+00
   1.3306445E-04   6.2907588E+05   -1.8613711E+00
   1.3367895E-04   6.2370452E+05   -1.8609089E+00
   1.3429630E-04   6.1838035E+05   -1.8604459E+00
   1.3491649E-04   6.1310292E+05   -1.8599818E+00
   1.3553955E-04   6.0787184E+05   -1.8595169E+00
   1.3616548E-04   6.0268669E+05   -1.8590510E+00
   1.3679431E-04   5.9754705E+05   -1.8585841E+00
   1.3742604E-04   5.9245251E+05   -1.8581164E+00
   1.3806069E-04   5.8740268E+05   -1.8576476E+00
   1.3869827E-04   5.8239715E+05   -1.8571780E+00
   1.3933879E-04   5.7743552E+05   -1.8567074E+00
   1.3998227E-04   5.7251741E+05   -1.8562359E+00
   1.4062872E-04   5.6764242E+05   -1.8557635E+00
   1.4127816E-04   5.6281016E+05   -1.8552902E+00
   1.4193060E-04   5.5802026E+05   -1.8548159E+00
   1.4258605E-04   5.5327233E+05   -1.8543407E+00
   1.4324453E-04   5.4856601E+05   -1.8538646E+00
   1.4390605E-04   5.4390091E+05   -1.8533876E+00
   1.4457062E-04   5.3927667E+05   -1.8529097E+00
   1.4523826E-04   5.3469293E+05   -1.8524309E+00
   1.4590899E-04   5.3014932E+05   -1.8519512E+00
   1.4658281E-04   5.2564548E+05   -1.8514705E+00
   1.4725974E-04   5.2118105E+05   -1.8509890E+00
   1.4793981E-04   5.1675570E+05   -1.8505066E+00
   1.4862301E-04   5.1236905E+05   -1.8500233E+00
   1.4930936E-04   5.0802078E+05   -1.8495390E+00
   1.4999889E-04   5.0371054E+05   -1.8490539E+00
   1.5069160E-04   4.9943798E+05   -1.8485679E+00
   1.5138751E-04   4.9520277E+05   -1.8480811E+00
   1.5208663E-04   4.9100458E+05   -1.8475933E+00
   1.5278899E-04   4.8684307E+05   -1.8471047E+00
   1.5349458E-04   4.8271793E+05   -1.8466152E+00
   1.5420343E-04   4.7862881E+05   -1.8461248E+00
   1.5491556E-04   4.7457541E+05   -1.8456335E+00
   1.5563098E-04   4.7055741E+05   -1.8451414E+00
   1.5634970E-04   4.6657448E+05   -1.8446484E+00
   1.5707174E-04   4.6262631E+05   -1.8441546E+00
   1.5779711E-04   4.5871260E+05   -1.8436599E+00
   1.5852584E-04   4.5483304E+05   -1.8431643E+00
   1.5925792E-04   4.5098731E+05   -1.8426679E+00
   1.5999339E-04   4.4717513E+05   -1.8421707E+00
   1.6073226E-04   4.4339619E+05   -1.8416726E+00
   1.6147454E-04   4.3965019E+05   -1.8411736E+00
   1.6222024E-04   4.3593685E+05   -1.8406738E+00
   1.6296939E-04   4.3225586E+05   -1.8401732E+00
   1.6372200E-04   4.2860695E+05   -1.8396717E+00
   1.6447809E-04   4.2498982E+05   -1.8391695E+00
   1.6523767E-04   4.2140419E+05   -1.8386664E+00
   1.6600075E-04   4.1784978E+05   -1.8381624E+00
   1.6676736E-04   4.1432632E+05   -1.8376577E+00
   1.6753751E-04   4.1083352E+05   -1.8371521E+00
   1.6831122E-04   4.0737112E+05   -1.8366457E+00
   1.6908849E-04   4.0393884E+05   -1.8361385E+00
   1.6986936E-04   4.0053642E+05   -1.8356305E+00
   1.7065384E-04   3.9716358E+05   -1.8351217E+00
   1.7144193E-04   3.9382007E+05   -1.8346121E+00
   1.7223367E-04   3.9050563E+05   -1.8341017E+00
   1.7302906E-04   3.8721999E+05   -1.8335905E+00
   1.7382813E-04   3.8396291E+05   -1.8330786E+00
   1.7463089E-04   3.8073412E+05   -1.8325658E+00
   1.7543735E-04   3.7753337E+05   -1.8320523E+00
   1.7624754E-04   3.7436041E+05   -1.8315379E+00
   1.7706147E-04   3.7121501E+05   -1.8310229E+00
   1.7787916E-04   3.6809690E+05   -1.8305070E+00
   1.7870062E-04   3.6500586E+05   -1.8299904E+00
   1.7952588E-04   3.6194163E+05   -1.8294730E+00
   1.8035495E-04   3.5890399E+05   -1.8289548E+00
   1.8118785E-04   3.5589269E+05   -1.8284359E+00
   1.8202459E-04   3.5290749E+05   -1.8279163E+00
   1.8286520E-04   3.4994818E+05   -1.8273959E+00
   1.8370969E-04   3.4701452E+05   -1.8268747E+00
   1.8455808E-04   3.4410627E+05   -1.8263528E+00
   1.8541039E-04   3.4122322E+05   -1.8258302E+00
   1.8626663E-04   3.3836514E+05   -1.8253069E+00
   1.8712683E-04   3.3553181E+05   -1.8247828E+00
   1.8799100E-04   3.3272301E+05   -1.8242580E+00
   1.8885917E-04   3.2993852E+05   -1.8237325E+00
   1.8973134E-04   3.2717812E+05   -1.8232062E+00
   1.9060754E-04   3.2444161E+05   -1.8226793E+00
   1.9148778E-04   3.2172876E+05   -1.8221516E+00
   1.9237209E-04   3.1903938E+05   -1.8216233E+00
   1.9326049E-04   3.1637325E+05   -1.8210942E+00
   1.9415299E-04   3.1373016E+05   -1.8205645E+00
   1.9504960E-04   3.1110991E+05   -1.8200340E+00
   1.9595036E-04   3.0851231E+05   -1.8195029E+00
   1.9685528E-04   3.0593714E+05   -1.8189711E+00
   1.9776438E-04   3.0338421E+05   -1.8184386E+00
   1.9867768E-04   3.0085332E+05   -1.8179055E+00
   1.9959519E-04   2.9834428E+05   -1.8173716E+00
   2.0051694E-04   2.9585689E+05   -1.8168372E+00
   2.0144295E-04   2.9339096E+05   -1.8163020E+00
   2.0237324E-04   2.9094630E+05   -1.8157662E+00
   2.0330782E-04   2.8852273E+05   -1.8152298E+00
   2.0424671E-04   2.8612005E+05   -1.8146927E+00
   2.0518995E-04   2.8373808E+05   -1.8141549E+00
   2.0613754E-04   2.8137664E+05   -1.8136166E+00
   2.0708950E-04   2.7903555E+05   -1.8130776E+00
   2.0804586E-04   2.7671462E+05   -1.8125379E+00
   2.0900664E-04   2.7441368E+05   -1.8119977E+00
   2.0997185E-04   2.7213255E+05   -1.8114568E+00
   2.1094152E-04   2.6987105E+05   -1.8109153E+00
   2.1191567E-04   2.6762902E+05   -1.8103732E+00
   2.1289432E-04   2.6540628E+05   -1.8098305E+00
   2.1387749E-04   2.6320265E+05   -1.8092872E+00
   2.1486520E-04   2.6101798E+05   -1.8087433E+00
   2.1585747E-04   2.5885209E+05   -1.8081989E+00
   2.1685432E-04   2.5670481E+05   -1.8076538E+00
   2.1785578E-04   2.5457599E+05   -1.8071082E+00
   2.1886186E-04   2.5246545E+05   -1.8065619E+00
   2.1987259E-04   2.5037305E+05   -1.8060151E+00
   2.2088798E-04   2.4829861E+05   -1.8054678E+00
   2.2190807E-04   2.4624198E+05   -1.8049199E+00
   2.2293286E-04   2.4420300E+05   -1.8043714E+00
   2.2396239E-04   2.4218152E+05   -1.8038224E+00
   2.2499667E-04   2.4017738E+05   -1.8032728E+00
   2.2603573E-04   2.3819042E+05   -1.8027227E+00
   2.2707958E-04   2.3622051E+05   -1.8021721E+00
   2.2812826E-04   2.3426748E+05   -1.8016209E+00
   2.2918178E-04   2.3233119E+05   -1.8010692E+00
   2.3024017E-04   2.3041148E+05   -1.8005170E+00
   2.3130344E-04   2.2850823E+05   -1.7999642E+00
   2.3237162E-04   2.2662127E+05   -1.7994110E+00
   2.3344474E-04   2.2475046E+05   -1.7988573E+00
   2.3452281E-04   2.2289567E+05   -1.7983030E+00
   2.3560586E-04   2.2105675E+05   -1.7977483E+00
   2.3669392E-04   2.1923357E+05   -1.7971930E+00
   2.3778699E-04   2.1742597E+05   -1.7966373E+00
   2.3888512E-04   2.1563383E+05   -1.7960811E+00
   2.3998831E-04   2.1385702E+05   -1.7955245E+00
   2.4109661E-04   2.1209538E+05   -1.7949673E+00
   2.4221001E-04   2.1034880E+05   -1.7944098E+00
   2.4332857E-04   2.0861714E+05   -1.7938517E+00
   2.4445228E-04   2.0690026E+05   -1.7932932E+00
   2.4558119E-04   2.0519805E+05   -1.7927343E+00
   2.4671531E-04   2.0351036E+05   -1.7921749E+00
   2.4785467E-04   2.0183707E+05   -1.7916150E+00
   2.4899928E-04   2.0017806E+05   -1.7910548E+00
   2.5014919E-04   1.9853320E+05   -1.7904941E+00
   2.5130440E-04   1.9690236E+05   -1.7899330E+00
   2.5246495E-04   1.9528542E+05   -1.7893715E+00
   2.5363086E-04   1.9368226E+05   -1.7888096E+00
   2.5480216E-04   1.9209276E+05   -1.7882473E+00
   2.5597886E-04   1.9051680E+05   -1.7876845E+00
   2.5716100E-04   1.8895426E+05   -1.7871214E+00
   2.5834859E-04   1.8740502E+05   -1.7865579E+00
   2.5954168E-04   1.8586897E+05   -1.7859941E+00
   2.6074027E-04   1.8434598E+05   -1.7854298E+00
   2.6194439E-04   1.8283595E+05   -1.7848652E+00
   2.6315408E-04   1.8133876E+05   -1.7843002E+00
   2.6436935E-04   1.7985430E+05   -1.7837349E+00
   2.6559024E-04   1.7838245E+05   -1.7831692E+00
   2.6681676E-04   1.7692311E+05   -1.7826031E+00
   2.6804895E-04   1.7547617E+05   -1.7820367E+00
   2.6928683E-04   1.7404152E+05   -1.7814700E+00
   2.7053042E-04   1.7261905E+05   -1.7809030E+00
   2.7177976E-04   1.7120864E+05   -1.7803356E+00
   2.7303487E-04   1.6981021E+05   -1.7797679E+00
   2.7429577E-04   1.6842364E+05   -1.7791999E+00
   2.7556250E-04   1.6704883E+05   -1.7786316E+00
   2.7683507E-04   1.6568568E+05   -1.7780630E+00
   2.7811353E-04   1.6433408E+05   -1.7774941E+00
   2.7939788E-04   1.6299393E+05   -1.7769249E+00
   2.8068817E-04   1.6166514E+05   -1.7763555E+00
   2.8198442E-04   1.6034760E+05   -1.7757857E+00
   2.8328665E-04   1.5904121E+05   -1.7752157E+00
   2.8459490E-04   1.5774589E+05   -1.7746454E+00
   2.8590919E-04   1.5646152E+05   -1.7740749E+00
   2.8722955E-04   1.5518802E+05   -1.7735041E+00
   2.8855600E-04   1.5392529E+05   -1.7729330E+00
   2.8988859E-04   1.5267324E+05   -1.7723617E+00
   2.9122732E-04   1.5143177E+05   -1.7717902E+00
   2.9257224E-04   1.5020079E+05   -1.7712184E+00
   2.9392337E-04   1.4898021E+05   -1.7706465E+00
   2.9528074E-04   1.4776994E+05   -1.7700743E+00
   2.9664438E-04   1.4656988E+05   -1.7695019E+00
   2.9801431E-04   1.4537996E+05   -1.7689292E+00
   2.9939057E-04   1.4420007E+05   -1.7683564E+00
   3.0077319E-04   1.4303014E+05   -1.7677834E+00
   3.0216219E-04   1.4187008E+05   -1.7672102E+00
   3.0355761E-04   1.4071980E+05   -1.7666368E+00
   3.0495947E-04   1.3957921E+05   -1.7660633E+00
   3.0636780E-04   1.3844823E+05   -1.7654895E+00
   3.0778264E-04   1.3732678E+05   -1.7649156E+00
   3.0920401E-04   1.3621477E+05   -1.7643416E+00
   3.1063195E-04   1.3511213E+05   -1.7637674E+00
   3.1206648E-04   1.3401877E+05   -1.7631930E+00
   3.1350764E-04   1.3293460E+05   -1.7626185E+00
   3.1495545E-04   1.3185956E+05   -1.7620439E+00
   3.1640994E-04   1.3079355E+05   -1.7614692E+00
   3.1787116E-04   1.2973651E+05   -1.7608943E+00
   3.1933912E-04   1.2868835E+05   -1.7603193E+00
   3.2081386E-04   1.2764900E+05   -1.7597442E+00
   3.2229541E-04   1.2661838E+05   -1.7591690E+00
   3.2378381E-04   1.2559641E+05   -1.7585937E+00
   3.2527908E-04   1.2458302E+05   -1.7580183E+00
   3.2678125E-04   1.2357813E+05   -1.7574428E+00
   3.2829036E-04   1.2258168E+05   -1.7568672E+00
   3.2980644E-04   1.2159358E+05   -1.7562916E+00
   3.3132952E-04   1.2061377E+05   -1.7557159E+00
   3.3285963E-04   1.1964217E+05   -1.7551401E+00
   3.3439681E-04   1.1867871E+05   -1.7545643E+00
   3.3594109E-04   1.1772332E+05   -1.7539885E+00
   3.3749250E-04   1.1677593E+05   -1.7534125E+00
   3.3905108E-04   1.1583648E+05   -1.7528366E+00
   3.4061685E-04   1.1490488E+05   -1.7522606E+00
   3.4218986E-04   1.1398109E+05   -1.7516846E+00
   3.4377013E-04   1.1306502E+05   -1.7511086E+00
   3.4535769E-04   1.1215661E+05   -1.7505326E+00
   3.4695259E-04   1.1125579E+05   -1.7499565E+00
   3.4855485E-04   1.1036250E+05   -1.7493805E+00
   3.5016452E-04   1.0947667E+05   -1.7488044E+00
   3.5178161E-04   1.0859825E+05   -1.7482284E+00
   3.5340618E-04   1.0772715E+05   -1.7476524E+00
   3.5503824E-04   1.0686333E+05   -1.7470764E+00
   3.5667785E-04   1.0600672E+05   -1.7465005E+00
   3.5832502E-04   1.0515725E+05   -1.7459246E+00
   3.5997981E-04   1.0431486E+05   -1.7453487E+00
   3.6164223E-04   1.0347950E+05   -1.7447729E+00
   3.6331233E-04   1.0265110E+05   -1.7441971E+00
   3.6499015E-04   1.0182960E+05   -1.7436214E+00
   3.6667571E-04   1.0101494E+05   -1.7430458E+00
   3.6836906E-04   1.0020707E+05   -1.7424702E+00
   3.7007022E-04   9.9405923E+04   -1.7418947E+00
   3.7177925E-04   9.8611441E+04   -1.7413193E+00
   3.7349616E-04   9.7823568E+04   -1.7407440E+00
   3.7522101E-04   9.7042247E+04   -1.7401688E+00
   3.7695382E-04   9.6267422E+04   -1.7395937E+00
   3.7869463E-04   9.5499037E+04   -1.7390187E+00
   3.8044348E-04   9.4737035E+04   -1.7384438E+00
   3.8220041E-04   9.3981363E+04   -1.7378690E+00
   3.8396545E-04   9.3231965E+04   -1.7372944E+00
   3.8573864E-04   9.2488787E+04   -1.7367199E+00
   3.8752002E-04   9.1751777E+04   -1.7361455E+00
   3.8930963E-04   9.1020880E+04   -1.7355713E+00
   3.9110750E-04   9.0296044E+04   -1.7349972E+00
   3.9291368E-04   8.9577217E+04   -1.7344233E+00
   3.9472820E-04   8.8864348E+04   -1.7338496E+00
   3.9655109E-04   8.8157385E+04   -1.7332760E+00
   3.9838241E-04   8.7456277E+04   -1.7327026E+00
   4.0022218E-04   8.6760974E+04   -1.7321294E+00
   4.0207045E-04   8.6071427E+04   -1.7315563E+00
   4.0392725E-04   8.5387585E+04   -1.7309835E+00
   4.0579263E-04   8.4709400E+04   -1.7304109E+00
   4.0766662E-04   8.4036823E+04   -1.7298384E+00
   4.0954927E-04   8.3369806E+04   -1.7292662E+00
   4.1144061E-04   8.2708301E+04   -1.7286942E+00
   4.1334068E-04   8.2052262E+04   -1.7281224E+00
   4.1524953E-04   8.1401640E+04   -1.7275509E+00
   4.1716720E-04   8.0756390E+04   -1.7269796E+00
   4.1909372E-04   8.0116465E+04   -1.7264085E+00
   4.2102914E-04   7.9481820E+04   -1.7258377E+00
   4.2297350E-04   7.8852410E+04   -1.7252671E+00
   4.2492683E-04   7.8228190E+04   -1.7246968E+00
   4.2688919E-04   7.7609116E+04   -1.7241268E+00
   4.2886061E-04   7.6995143E+04   -1.7235570E+00
   4.3084113E-04   7.6386227E+04   -1.7229875E+00
   4.3283080E-04   7.5782326E+04   -1.7224183E+00
   4.3482966E-04   7.5183396E+04   -1.7218493E+00
   4.3683775E-04   7.4589396E+04   -1.7212807E+00
   4.3885511E-04   7.4000282E+04   -1.7207124E+00
   4.4088179E-04   7.3416013E+04   -1.7201443E+00
   4.4291783E-04   7.2836548E+04   -1.7195766E+00
   4.4496327E-04   7.2261845E+04   -1.7190092E+00
   4.4701816E-04   7.1691865E+04   -1.7184422E+00
   4.4908253E-04   7.1126566E+04   -1.7178754E+00
   4.5115644E-04   7.0565908E+04   -1.7173090E+00
   4.5323993E-04   7.0009853E+04   -1.7167429E+00
   4.5533304E-04   6.9458361E+04   -1.7161772E+00
   4.5743582E-04   6.8911392E+04   -1.7156118E+00
   4.5954830E-04   6.8368909E+04   -1.7150468E+00
   4.6167054E-04   6.7830873E+04   -1.7144821E+00
   4.6380259E-04   6.7297246E+04   -1.7139179E+00
   4.6594448E-04   6.6767990E+04   -1.7133539E+00
   4.6809626E-04   6.6243069E+04   -1.7127904E+00
   4.7025797E-04   6.5722446E+04   -1.7122273E+00
   4.7242967E-04   6.5206083E+04   -1.7116645E+00
   4.7461140E-04   6.4693945E+04   -1.7111021E+00
   4.7680321E-04   6.4185995E+04   -1.7105402E+00
   4.7900514E-04   6.3682198E+04   -1.7099786E+00
   4.8121723E-04   6.3182520E+04   -1.7094175E+00
   4.8343954E-04   6.2686924E+04   -1.7088568E+00
   4.8567212E-04   6.2195376E+04   -1.7082965E+00
   4.8791500E-04   6.1707841E+04   -1.7077366E+00
   4.9016825E-04   6.1224286E+04   -1.7071772E+00
   4.9243189E-04   6.0744677E+04   -1.7066182E+00
   4.9470600E-04   6.0268980E+04   -1.7060596E+00
   4.9699060E-04   5.9797163E+04   -1.7055015E+00
   4.9928575E-04   5.9329191E+04   -1.7049439E+00
   5.0159151E-04   5.8865033E+04   -1.7043867E+00
   5.0390791E-04   5.8404656E+04   -1.7038300E+00
   5.0623501E-04   5.7948028E+04   -1.7032738E+00
   5.0857286E-04   5.7495117E+04   -1.7027180E+00
   5.1092150E-04   5.7045892E+04   -1.7021627E+00
   5.1328099E-04   5.6600323E+04   -1.7016079E+00
   5.1565137E-04   5.6158376E+04   -1.7010536E+00
   5.1803270E-04   5.5720023E+04   -1.7004998E+00
   5.2042503E-04   5.5285233E+04   -1.6999465E+00
   5.2282841E-04   5.4853975E+04   -1.6993938E+00
   5.2524289E-04   5.4426219E+04   -1.6988415E+00
   5.2766851E-04   5.4001937E+04   -1.6982897E+00
   5.3010534E-04   5.3581098E+04   -1.6977385E+00
   5.3255342E-04   5.3163674E+04   -1.6971878E+00
   5.3501281E-04   5.2749635E+04   -1.6966376E+00
   5.3748356E-04   5.2338954E+04   -1.6960880E+00
   5.3996571E-04   5.1931601E+04   -1.6955389E+00
   5.4245933E-04   5.1527549E+04   -1.6949904E+00
   5.4496446E-04   5.1126770E+04   -1.6944424E+00
   5.4748117E-04   5.0729237E+04   -1.6938950E+00
   5.5000949E-04   5.0334921E+04   -1.6933482E+00
   5.5254949E-04   4.9943796E+04   -1.6928019E+00
   5.5510123E-04   4.9555835E+04   -1.6922562E+00
   5.5766474E-04   4.9171011E+04   -1.6917111E+00
   5.6024010E-04   4.8789298E+04   -1.6911665E+00
   5.6282734E-04   4.8410669E+04   -1.6906226E+00
   5.6542654E-04   4.8035099E+04   -1.6900792E+00
   5.6803774E-04   4.7662562E+04   -1.6895364E+00
   5.7066099E-04   4.7293033E+04   -1.6889943E+00
   5.7329637E-04   4.6926485E+04   -1.6884527E+00
   5.7594391E-04   4.6562895E+04   -1.6879118E+00
   5.7860368E-04   4.6202237E+04   -1.6873714E+00
   5.8127573E-04   4.5844487E+04   -1.6868317E+00
   5.8396012E-04   4.5489619E+04   -1.6862927E+00
   5.8665691E-04   4.5137611E+04   -1.6857542E+00
   5.8936616E-04   4.4788438E+04   -1.6852164E+00
   5.9208791E-04   4.4442075E+04   -1.6846792E+00
   5.9482223E-04   4.4098501E+04   -1.6841427E+00
   5.9756919E-04   4.3757690E+04   -1.6836069E+00
   6.0032882E-04   4.3419621E+04   -1.6830716E+00
   6.0310120E-04   4.3084269E+04   -1.6825371E+00
   6.0588639E-04   4.2751613E+04   -1.6820032E+00
   6.0868443E-04   4.2421630E+04   -1.6814699E+00
   6.1149540E-04   4.2094297E+04   -1.6809374E+00
   6.1431935E-04   4.1769593E+04   -1.6804055E+00
   6.1715634E-04   4.1447494E+04   -1.6798743E+00
   6.2000644E-04   4.1127980E+04   -1.6793438E+00
   6.2286969E-04   4.0811029E+04   -1.6788139E+00
