#        a       HoverH0(a)       dlogHdloga_of_a(a)
   1.0000000E-04   1.0441890E+06   -1.8818141E+00
   1.0046181E-04   1.0351756E+06   -1.8813977E+00
   1.0092575E-04   1.0262419E+06   -1.8809804E+00
   1.0139184E-04   1.0173873E+06   -1.8805620E+00
   1.0186008E-04   1.0086111E+06   -1.8801426E+00
   1.0233048E-04   9.9991251E+05   -1.8797222E+00
   1.0280305E-04   9.9129085E+05   -1.8793009E+00
   1.0327781E-04   9.8274544E+05   -1.8788785E+00
   1.0375475E-04   9.7427560E+05   -1.8784551E+00
   1.0423390E-04   9.6588064E+05   -1.8780307E+00
   1.0471527E-04   9.5755989E+05   -1.8776053E+00
   1.0519885E-04   9.4931268E+05   -1.8771789E+00
   1.0568467E-04   9.4113835E+05   -1.8767515E+00
   1.0617274E-04   9.3303626E+05   -1.8763231E+00
   1.0666305E-04   9.2500574E+05   -1.8758937E+00
   1.0715563E-04   9.1704615E+05   -1.8754633E+00
   1.0765049E-04   9.0915686E+05   -1.8750319E+00
   1.0814763E-04   9.0133724E+05   -1.8745995E+00
   1.0864707E-04   8.9358666E+05   -1.8741661E+00
   1.0914881E-04   8.8590449E+05   -1.8737317E+00
   1.0965287E-04   8.7829012E+05   -1.8732964E+00
   1.1015926E-04   8.7074295E+05   -1.8728600E+00
   1.1066799E-04   8.6326237E+05   -1.8724226E+00
   1.1117906E-04   8.5584779E+05   -1.8719843E+00
   1.1169250E-04   8.4849860E+05   -1.8715450E+00
   1.1220831E-04   8.4121422E+05   -1.8711047E+00
   1.1272650E-04   8.3399408E+05   -1.8706634E+00
   1.1324708E-04   8.2683759E+05   -1.8702211E+00
   1.1377007E-04   8.1974418E+05   -1.8697778E+00
   1.1429547E-04   8.1271329E+05   -1.8693336E+00
   1.1482330E-04   8.0574435E+05   -1.8688884E+00
   1.1535356E-04   7.9883681E+05   -1.8684422E+00
   1.1588628E-04   7.9199012E+05   -1.8679950E+00
   1.1642145E-04   7.8520372E+05   -1.8675469E+00
   1.1695910E-04   7.7847709E+05   -1.8670978E+00
   1.1749923E-04   7.7180969E+05   -1.8666477E+00
   1.1804185E-04   7.6520097E+05   -1.8661967E+00
   1.1858698E-04   7.5865042E+05   -1.8657446E+00
   1.1913463E-04   7.5215752E+05   -1.8652916E+00
   1.1968481E-04   7.4572174E+05   -1.8648377E+00
   1.2023752E-04   7.3934258E+05   -1.8643828E+00
   1.2079279E-04   7.3301953E+05   -1.8639269E+00
   1.2135063E-04   7.2675208E+05   -1.8634701E+00
   1.2191104E-04   7.2053974E+05   -1.8630123E+00
   1.2247403E-04   7.1438201E+05   -1.8625536E+00
   1.2303963E-04   7.0827840E+05   -1.8620939E+00
   1.2360784E-04   7.0222843E+05   -1.8616332E+00
   1.2417868E-04   6.9623161E+05   -1.8611716E+00
   1.2475215E-04   6.9028748E+05   -1.8607091E+00
   1.2532826E-04   6.8439555E+05   -1.8602456E+00
   1.2590704E-04   6.7855537E+05   -1.8597812E+00
   1.2648850E-04   6.7276646E+05   -1.8593158E+00
   1.2707263E-04   6.6702837E+05   -1.8588495E+00
   1.2765947E-04   6.6134065E+05   -1.8583823E+00
   1.2824901E-04   6.5570283E+05   -1.8579141E+00
   1.2884128E-04   6.5011449E+05   -1.8574450E+00
   1.2943628E-04   6.4457516E+05   -1.8569750E+00
   1.3003403E-04   6.3908442E+05   -1.8565040E+00
   1.3063454E-04   6.3364183E+05   -1.8560321E+00
   1.3123783E-04   6.2824695E+05   -1.8555593E+00
   1.3184390E-04   6.2289936E+05   -1.8550855E+00
   1.3245277E-04   6.1759865E+05   -1.8546109E+00
   1.3306445E-04   6.1234437E+05   -1.8541353E+00
   1.3367895E-04   6.0713614E+05   -1.8536588E+00
   1.3429630E-04   6.0197352E+05   -1.8531814E+00
   1.3491649E-04   5.9685612E+05   -1.8527031E+00
   1.3553955E-04   5.9178352E+05   -1.8522239E+00
   1.3616548E-04   5.8675534E+05   -1.8517438E+00
   1.3679431E-04   5.8177116E+05   -1.8512628E+00
   1.3742604E-04   5.7683060E+05   -1.8507809E+00
   1.3806069E-04   5.7193327E+05   -1.8502981E+00
   1.3869827E-04   5.6707879E+05   -1.8498144E+00
   1.3933879E-04   5.6226676E+05   -1.8493298E+00
   1.3998227E-04   5.5749680E+05   -1.8488443E+00
   1.4062872E-04   5.5276856E+05   -1.8483579E+00
   1.4127816E-04   5.4808164E+05   -1.8478707E+00
   1.4193060E-04   5.4343568E+05   -1.8473825E+00
   1.4258605E-04   5.3883032E+05   -1.8468935E+00
   1.4324453E-04   5.3426519E+05   -1.8464036E+00
   1.4390605E-04   5.2973994E+05   -1.8459129E+00
   1.4457062E-04   5.2525420E+05   -1.8454213E+00
   1.4523826E-04   5.2080763E+05   -1.8449288E+00
   1.4590899E-04   5.1639988E+05   -1.8444354E+00
   1.4658281E-04   5.1203059E+05   -1.8439412E+00
   1.4725974E-04   5.0769943E+05   -1.8434461E+00
   1.4793981E-04   5.0340606E+05   -1.8429502E+00
   1.4862301E-04   4.9915013E+05   -1.8424534E+00
   1.4930936E-04   4.9493132E+05   -1.8419558E+00
   1.4999889E-04   4.9074929E+05   -1.8414574E+00
   1.5069160E-04   4.8660372E+05   -1.8409581E+00
   1.5138751E-04   4.8249428E+05   -1.8404579E+00
   1.5208663E-04   4.7842064E+05   -1.8399569E+00
   1.5278899E-04   4.7438249E+05   -1.8394551E+00
   1.5349458E-04   4.7037952E+05   -1.8389525E+00
   1.5420343E-04   4.6641141E+05   -1.8384490E+00
   1.5491556E-04   4.6247785E+05   -1.8379447E+00
   1.5563098E-04   4.5857852E+05   -1.8374396E+00
   1.5634970E-04   4.5471314E+05   -1.8369337E+00
   1.5707174E-04   4.5088138E+05   -1.8364270E+00
   1.5779711E-04   4.4708296E+05   -1.8359195E+00
   1.5852584E-04   4.4331758E+05   -1.8354111E+00
   1.5925792E-04   4.3958494E+05   -1.8349020E+00
   1.5999339E-04   4.3588475E+05   -1.8343920E+00
   1.6073226E-04   4.3221672E+05   -1.8338813E+00
   1.6147454E-04   4.2858057E+05   -1.8333698E+00
   1.6222024E-04   4.2497601E+05   -1.8328575E+00
   1.6296939E-04   4.2140276E+05   -1.8323444E+00
   1.6372200E-04   4.1786055E+05   -1.8318305E+00
   1.6447809E-04   4.1434909E+05   -1.8313159E+00
   1.6523767E-04   4.1086812E+05   -1.8308005E+00
   1.6600075E-04   4.0741736E+05   -1.8302843E+00
   1.6676736E-04   4.0399654E+05   -1.8297673E+00
   1.6753751E-04   4.0060540E+05   -1.8292496E+00
   1.6831122E-04   3.9724367E+05   -1.8287311E+00
   1.6908849E-04   3.9391110E+05   -1.8282119E+00
   1.6986936E-04   3.9060741E+05   -1.8276919E+00
   1.7065384E-04   3.8733237E+05   -1.8271712E+00
   1.7144193E-04   3.8408570E+05   -1.8266497E+00
   1.7223367E-04   3.8086717E+05   -1.8261276E+00
   1.7302906E-04   3.7767651E+05   -1.8256046E+00
   1.7382813E-04   3.7451349E+05   -1.8250810E+00
   1.7463089E-04   3.7137786E+05   -1.8245566E+00
   1.7543735E-04   3.6826936E+05   -1.8240315E+00
   1.7624754E-04   3.6518777E+05   -1.8235056E+00
   1.7706147E-04   3.6213285E+05   -1.8229791E+00
   1.7787916E-04   3.5910435E+05   -1.8224519E+00
   1.7870062E-04   3.5610204E+05   -1.8219239E+00
   1.7952588E-04   3.5312570E+05   -1.8213953E+00
   1.8035495E-04   3.5017508E+05   -1.8208659E+00
   1.8118785E-04   3.4724997E+05   -1.8203359E+00
   1.8202459E-04   3.4435013E+05   -1.8198051E+00
   1.8286520E-04   3.4147535E+05   -1.8192737E+00
   1.8370969E-04   3.3862539E+05   -1.8187416E+00
   1.8455808E-04   3.3580005E+05   -1.8182089E+00
   1.8541039E-04   3.3299909E+05   -1.8176754E+00
   1.8626663E-04   3.3022231E+05   -1.8171413E+00
   1.8712683E-04   3.2746949E+05   -1.8166066E+00
   1.8799100E-04   3.2474042E+05   -1.8160712E+00
   1.8885917E-04   3.2203489E+05   -1.8155351E+00
   1.8973134E-04   3.1935269E+05   -1.8149984E+00
   1.9060754E-04   3.1669361E+05   -1.8144610E+00
   1.9148778E-04   3.1405745E+05   -1.8139230E+00
   1.9237209E-04   3.1144401E+05   -1.8133844E+00
   1.9326049E-04   3.0885308E+05   -1.8128451E+00
   1.9415299E-04   3.0628447E+05   -1.8123052E+00
   1.9504960E-04   3.0373797E+05   -1.8117647E+00
   1.9595036E-04   3.0121340E+05   -1.8112235E+00
   1.9685528E-04   2.9871056E+05   -1.8106818E+00
   1.9776438E-04   2.9622925E+05   -1.8101395E+00
   1.9867768E-04   2.9376929E+05   -1.8095965E+00
   1.9959519E-04   2.9133049E+05   -1.8090530E+00
   2.0051694E-04   2.8891266E+05   -1.8085088E+00
   2.0144295E-04   2.8651561E+05   -1.8079641E+00
   2.0237324E-04   2.8413916E+05   -1.8074188E+00
   2.0330782E-04   2.8178313E+05   -1.8068729E+00
   2.0424671E-04   2.7944734E+05   -1.8063264E+00
   2.0518995E-04   2.7713161E+05   -1.8057794E+00
   2.0613754E-04   2.7483577E+05   -1.8052318E+00
   2.0708950E-04   2.7255963E+05   -1.8046837E+00
   2.0804586E-04   2.7030303E+05   -1.8041350E+00
   2.0900664E-04   2.6806578E+05   -1.8035857E+00
   2.0997185E-04   2.6584773E+05   -1.8030359E+00
   2.1094152E-04   2.6364870E+05   -1.8024856E+00
   2.1191567E-04   2.6146852E+05   -1.8019347E+00
   2.1289432E-04   2.5930703E+05   -1.8013833E+00
   2.1387749E-04   2.5716406E+05   -1.8008314E+00
   2.1486520E-04   2.5503945E+05   -1.8002790E+00
   2.1585747E-04   2.5293303E+05   -1.7997261E+00
   2.1685432E-04   2.5084466E+05   -1.7991726E+00
   2.1785578E-04   2.4877416E+05   -1.7986186E+00
   2.1886186E-04   2.4672138E+05   -1.7980642E+00
   2.1987259E-04   2.4468616E+05   -1.7975093E+00
   2.2088798E-04   2.4266836E+05   -1.7969538E+00
   2.2190807E-04   2.4066781E+05   -1.7963979E+00
   2.2293286E-04   2.3868436E+05   -1.7958415E+00
   2.2396239E-04   2.3671787E+05   -1.7952847E+00
   2.2499667E-04   2.3476818E+05   -1.7947274E+00
   2.2603573E-04   2.3283515E+05   -1.7941696E+00
   2.2707958E-04   2.3091863E+05   -1.7936113E+00
   2.2812826E-04   2.2901847E+05   -1.7930526E+00
   2.2918178E-04   2.2713453E+05   -1.7924935E+00
   2.3024017E-04   2.2526667E+05   -1.7919339E+00
   2.3130344E-04   2.2341475E+05   -1.7913739E+00
   2.3237162E-04   2.2157862E+05   -1.7908135E+00
   2.3344474E-04   2.1975816E+05   -1.7902527E+00
   2.3452281E-04   2.1795321E+05   -1.7896914E+00
   2.3560586E-04   2.1616365E+05   -1.7891297E+00
   2.3669392E-04   2.1438933E+05   -1.7885676E+00
   2.3778699E-04   2.1263013E+05   -1.7880052E+00
   2.3888512E-04   2.1088592E+05   -1.7874423E+00
   2.3998831E-04   2.0915655E+05   -1.7868790E+00
   2.4109661E-04   2.0744190E+05   -1.7863154E+00
   2.4221001E-04   2.0574185E+05   -1.7857513E+00
   2.4332857E-04   2.0405625E+05   -1.7851869E+00
   2.4445228E-04   2.0238500E+05   -1.7846222E+00
   2.4558119E-04   2.0072795E+05   -1.7840570E+00
   2.4671531E-04   1.9908499E+05   -1.7834915E+00
   2.4785467E-04   1.9745599E+05   -1.7829257E+00
   2.4899928E-04   1.9584083E+05   -1.7823595E+00
   2.5014919E-04   1.9423939E+05   -1.7817930E+00
   2.5130440E-04   1.9265155E+05   -1.7812262E+00
   2.5246495E-04   1.9107719E+05   -1.7806590E+00
   2.5363086E-04   1.8951619E+05   -1.7800915E+00
   2.5480216E-04   1.8796843E+05   -1.7795237E+00
   2.5597886E-04   1.8643380E+05   -1.7789556E+00
   2.5716100E-04   1.8491219E+05   -1.7783871E+00
   2.5834859E-04   1.8340347E+05   -1.7778184E+00
   2.5954168E-04   1.8190754E+05   -1.7772494E+00
   2.6074027E-04   1.8042428E+05   -1.7766801E+00
   2.6194439E-04   1.7895359E+05   -1.7761105E+00
   2.6315408E-04   1.7749536E+05   -1.7755407E+00
   2.6436935E-04   1.7604946E+05   -1.7749705E+00
   2.6559024E-04   1.7461581E+05   -1.7744001E+00
   2.6681676E-04   1.7319429E+05   -1.7738295E+00
   2.6804895E-04   1.7178479E+05   -1.7732586E+00
   2.6928683E-04   1.7038720E+05   -1.7726875E+00
   2.7053042E-04   1.6900144E+05   -1.7721161E+00
   2.7177976E-04   1.6762738E+05   -1.7715445E+00
   2.7303487E-04   1.6626494E+05   -1.7709726E+00
   2.7429577E-04   1.6491400E+05   -1.7704006E+00
   2.7556250E-04   1.6357447E+05   -1.7698283E+00
   2.7683507E-04   1.6224625E+05   -1.7692558E+00
   2.7811353E-04   1.6092924E+05   -1.7686831E+00
   2.7939788E-04   1.5962334E+05   -1.7681102E+00
   2.8068817E-04   1.5832846E+05   -1.7675371E+00
   2.8198442E-04   1.5704450E+05   -1.7669639E+00
   2.8328665E-04   1.5577136E+05   -1.7663904E+00
   2.8459490E-04   1.5450894E+05   -1.7658168E+00
   2.8590919E-04   1.5325717E+05   -1.7652430E+00
   2.8722955E-04   1.5201594E+05   -1.7646691E+00
   2.8855600E-04   1.5078516E+05   -1.7640949E+00
   2.8988859E-04   1.4956474E+05   -1.7635207E+00
   2.9122732E-04   1.4835459E+05   -1.7629463E+00
   2.9257224E-04   1.4715462E+05   -1.7623718E+00
   2.9392337E-04   1.4596474E+05   -1.7617971E+00
   2.9528074E-04   1.4478487E+05   -1.7612223E+00
   2.9664438E-04   1.4361492E+05   -1.7606474E+00
   2.9801431E-04   1.4245480E+05   -1.7600723E+00
   2.9939057E-04   1.4130442E+05   -1.7594972E+00
   3.0077319E-04   1.4016370E+05   -1.7589220E+00
   3.0216219E-04   1.3903257E+05   -1.7583466E+00
   3.0355761E-04   1.3791092E+05   -1.7577712E+00
   3.0495947E-04   1.3679869E+05   -1.7571957E+00
   3.0636780E-04   1.3569579E+05   -1.7566201E+00
   3.0778264E-04   1.3460213E+05   -1.7560445E+00
   3.0920401E-04   1.3351765E+05   -1.7554688E+00
   3.1063195E-04   1.3244225E+05   -1.7548930E+00
   3.1206648E-04   1.3137586E+05   -1.7543172E+00
   3.1350764E-04   1.3031841E+05   -1.7537413E+00
   3.1495545E-04   1.2926981E+05   -1.7531654E+00
   3.1640994E-04   1.2822999E+05   -1.7525894E+00
   3.1787116E-04   1.2719887E+05   -1.7520135E+00
   3.1933912E-04   1.2617637E+05   -1.7514375E+00
   3.2081386E-04   1.2516243E+05   -1.7508614E+00
   3.2229541E-04   1.2415697E+05   -1.7502854E+00
   3.2378381E-04   1.2315991E+05   -1.7497094E+00
   3.2527908E-04   1.2217118E+05   -1.7491334E+00
   3.2678125E-04   1.2119071E+05   -1.7485574E+00
   3.2829036E-04   1.2021842E+05   -1.7479814E+00
   3.2980644E-04   1.1925426E+05   -1.7474054E+00
   3.3132952E-04   1.1829814E+05   -1.7468294E+00
   3.3285963E-04   1.1735000E+05   -1.7462535E+00
   3.3439681E-04   1.1640976E+05   -1.7456776E+00
   3.3594109E-04   1.1547737E+05   -1.7451018E+00
   3.3749250E-04   1.1455275E+05   -1.7445260E+00
   3.3905108E-04   1.1363583E+05   -1.7439503E+00
   3.4061685E-04   1.1272655E+05   -1.7433746E+00
   3.4218986E-04   1.1182484E+05   -1.7427990E+00
   3.4377013E-04   1.1093064E+05   -1.7422235E+00
   3.4535769E-04   1.1004389E+05   -1.7416480E+00
   3.4695259E-04   1.0916451E+05   -1.7410727E+00
   3.4855485E-04   1.0829244E+05   -1.7404974E+00
   3.5016452E-04   1.0742763E+05   -1.7399223E+00
   3.5178161E-04   1.0657000E+05   -1.7393472E+00
   3.5340618E-04   1.0571950E+05   -1.7387723E+00
   3.5503824E-04   1.0487607E+05   -1.7381975E+00
   3.5667785E-04   1.0403964E+05   -1.7376228E+00
   3.5832502E-04   1.0321016E+05   -1.7370482E+00
   3.5997981E-04   1.0238756E+05   -1.7364738E+00
   3.6164223E-04   1.0157178E+05   -1.7358995E+00
   3.6331233E-04   1.0076277E+05   -1.7353254E+00
   3.6499015E-04   9.9960470E+04   -1.7347514E+00
   3.6667571E-04   9.9164819E+04   -1.7341776E+00
   3.6836906E-04   9.8375762E+04   -1.7336039E+00
   3.7007022E-04   9.7593241E+04   -1.7330304E+00
   3.7177925E-04   9.6817200E+04   -1.7324571E+00
   3.7349616E-04   9.6047584E+04   -1.7318840E+00
   3.7522101E-04   9.5284337E+04   -1.7313111E+00
   3.7695382E-04   9.4527405E+04   -1.7307383E+00
   3.7869463E-04   9.3776733E+04   -1.7301658E+00
   3.8044348E-04   9.3032268E+04   -1.7295935E+00
   3.8220041E-04   9.2293957E+04   -1.7290214E+00
   3.8396545E-04   9.1561746E+04   -1.7284495E+00
   3.8573864E-04   9.0835583E+04   -1.7278778E+00
   3.8752002E-04   9.0115417E+04   -1.7273064E+00
   3.8930963E-04   8.9401196E+04   -1.7267352E+00
   3.9110750E-04   8.8692868E+04   -1.7261643E+00
   3.9291368E-04   8.7990385E+04   -1.7255936E+00
   3.9472820E-04   8.7293694E+04   -1.7250231E+00
   3.9655109E-04   8.6602748E+04   -1.7244529E+00
   3.9838241E-04   8.5917496E+04   -1.7238830E+00
   4.0022218E-04   8.5237889E+04   -1.7233134E+00
   4.0207045E-04   8.4563881E+04   -1.7227440E+00
   4.0392725E-04   8.3895423E+04   -1.7221750E+00
   4.0579263E-04   8.3232466E+04   -1.7216062E+00
   4.0766662E-04   8.2574965E+04   -1.7210377E+00
   4.0954927E-04   8.1922872E+04   -1.7204695E+00
   4.1144061E-04   8.1276141E+04   -1.7199016E+00
   4.1334068E-04   8.0634727E+04   -1.7193341E+00
   4.1524953E-04   7.9998584E+04   -1.7187668E+00
   4.1716720E-04   7.9367667E+04   -1.7181999E+00
   4.1909372E-04   7.8741931E+04   -1.7176333E+00
   4.2102914E-04   7.8121332E+04   -1.7170671E+00
   4.2297350E-04   7.7505827E+04   -1.7165012E+00
   4.2492683E-04   7.6895372E+04   -1.7159356E+00
   4.2688919E-04   7.6289924E+04   -1.7153704E+00
   4.2886061E-04   7.5689439E+04   -1.7148056E+00
   4.3084113E-04   7.5093877E+04   -1.7142411E+00
   4.3283080E-04   7.4503194E+04   -1.7136770E+00
   4.3482966E-04   7.3917350E+04   -1.7131133E+00
   4.3683775E-04   7.3336303E+04   -1.7125499E+00
   4.3885511E-04   7.2760012E+04   -1.7119870E+00
   4.4088179E-04   7.2188437E+04   -1.7114244E+00
   4.4291783E-04   7.1621538E+04   -1.7108622E+00
   4.4496327E-04   7.1059274E+04   -1.7103005E+00
   4.4701816E-04   7.0501607E+04   -1.7097391E+00
   4.4908253E-04   6.9948497E+04   -1.7091782E+00
   4.5115644E-04   6.9399906E+04   -1.7086176E+00
   4.5323993E-04   6.8855795E+04   -1.7080576E+00
   4.5533304E-04   6.8316127E+04   -1.7074979E+00
   4.5743582E-04   6.7780862E+04   -1.7069387E+00
   4.5954830E-04   6.7249965E+04   -1.7063799E+00
   4.6167054E-04   6.6723398E+04   -1.7058216E+00
   4.6380259E-04   6.6201124E+04   -1.7052637E+00
   4.6594448E-04   6.5683107E+04   -1.7047063E+00
   4.6809626E-04   6.5169311E+04   -1.7041493E+00
   4.7025797E-04   6.4659700E+04   -1.7035928E+00
   4.7242967E-04   6.4154238E+04   -1.7030368E+00
   4.7461140E-04   6.3652890E+04   -1.7024813E+00
   4.7680321E-04   6.3155622E+04   -1.7019262E+00
   4.7900514E-04   6.2662399E+04   -1.7013717E+00
   4.8121723E-04   6.2173186E+04   -1.7008176E+00
   4.8343954E-04   6.1687950E+04   -1.7002641E+00
   4.8567212E-04   6.1206658E+04   -1.6997110E+00
   4.8791500E-04   6.0729275E+04   -1.6991585E+00
   4.9016825E-04   6.0255769E+04   -1.6986064E+00
   4.9243189E-04   5.9786107E+04   -1.6980549E+00
   4.9470600E-04   5.9320256E+04   -1.6975040E+00
   4.9699060E-04   5.8858184E+04   -1.6969535E+00
   4.9928575E-04   5.8399860E+04   -1.6964036E+00
   5.0159151E-04   5.7945251E+04   -1.6958542E+00
   5.0390791E-04   5.7494327E+04   -1.6953054E+00
   5.0623501E-04   5.7047056E+04   -1.6947572E+00
   5.0857286E-04   5.6603407E+04   -1.6942094E+00
   5.1092150E-04   5.6163350E+04   -1.6936623E+00
   5.1328099E-04   5.5726855E+04   -1.6931157E+00
   5.1565137E-04   5.5293892E+04   -1.6925697E+00
   5.1803270E-04   5.4864430E+04   -1.6920243E+00
   5.2042503E-04   5.4438440E+04   -1.6914794E+00
   5.2282841E-04   5.4015894E+04   -1.6909351E+00
   5.2524289E-04   5.3596762E+04   -1.6903915E+00
   5.2766851E-04   5.3181015E+04   -1.6898484E+00
   5.3010534E-04   5.2768625E+04   -1.6893059E+00
   5.3255342E-04   5.2359563E+04   -1.6887640E+00
   5.3501281E-04   5.1953802E+04   -1.6882228E+00
   5.3748356E-04   5.1551315E+04   -1.6876821E+00
   5.3996571E-04   5.1152072E+04   -1.6871421E+00
   5.4245933E-04   5.0756048E+04   -1.6866027E+00
   5.4496446E-04   5.0363215E+04   -1.6860639E+00
   5.4748117E-04   4.9973546E+04   -1.6855258E+00
   5.5000949E-04   4.9587016E+04   -1.6849883E+00
   5.5254949E-04   4.9203596E+04   -1.6844514E+00
   5.5510123E-04   4.8823262E+04   -1.6839152E+00
   5.5766474E-04   4.8445988E+04   -1.6833796E+00
   5.6024010E-04   4.8071747E+04   -1.6828447E+00
   5.6282734E-04   4.7700515E+04   -1.6823104E+00
   5.6542654E-04   4.7332266E+04   -1.6817769E+00
   5.6803774E-04   4.6966976E+04   -1.6812439E+00
   5.7066099E-04   4.6604619E+04   -1.6807117E+00
   5.7329637E-04   4.6245170E+04   -1.6801801E+00
   5.7594391E-04   4.5888607E+04   -1.6796493E+00
   5.7860368E-04   4.5534904E+04   -1.6791191E+00
   5.8127573E-04   4.5184038E+04   -1.6785896E+00
   5.8396012E-04   4.4835984E+04   -1.6780607E+00
   5.8665691E-04   4.4490720E+04   -1.6775326E+00
   5.8936616E-04   4.4148222E+04   -1.6770052E+00
   5.9208791E-04   4.3808468E+04   -1.6764785E+00
   5.9482223E-04   4.3471433E+04   -1.6759525E+00
   5.9756919E-04   4.3137095E+04   -1.6754273E+00
   6.0032882E-04   4.2805433E+04   -1.6749027E+00
   6.0310120E-04   4.2476423E+04   -1.6743789E+00
   6.0588639E-04   4.2150043E+04   -1.6738558E+00
   6.0868443E-04   4.1826272E+04   -1.6733334E+00
   6.1149540E-04   4.1505088E+04   -1.6728118E+00
   6.1431935E-04   4.1186469E+04   -1.6722909E+00
   6.1715634E-04   4.0870395E+04   -1.6717708E+00
   6.2000644E-04   4.0556843E+04   -1.6712514E+00
   6.2286969E-04   4.0245792E+04   -1.6707327E+00
