#        a       HoverH0(a)       dlogHdloga_of_a(a)
   1.0000000E-04   1.0406075E+06   -1.8698012E+00
   1.0046181E-04   1.0316821E+06   -1.8693571E+00
   1.0092575E-04   1.0228354E+06   -1.8689119E+00
   1.0139184E-04   1.0140667E+06   -1.8684658E+00
   1.0186008E-04   1.0053752E+06   -1.8680186E+00
   1.0233048E-04   9.9676024E+05   -1.8675706E+00
   1.0280305E-04   9.8822115E+05   -1.8671215E+00
   1.0327781E-04   9.7975725E+05   -1.8666715E+00
   1.0375475E-04   9.7136785E+05   -1.8662205E+00
   1.0423390E-04   9.6305229E+05   -1.8657685E+00
   1.0471527E-04   9.5480991E+05   -1.8653156E+00
   1.0519885E-04   9.4664005E+05   -1.8648617E+00
   1.0568467E-04   9.3854206E+05   -1.8644068E+00
   1.0617274E-04   9.3051530E+05   -1.8639510E+00
   1.0666305E-04   9.2255912E+05   -1.8634943E+00
   1.0715563E-04   9.1467290E+05   -1.8630365E+00
   1.0765049E-04   9.0685601E+05   -1.8625778E+00
   1.0814763E-04   8.9910782E+05   -1.8621182E+00
   1.0864707E-04   8.9142772E+05   -1.8616576E+00
   1.0914881E-04   8.8381511E+05   -1.8611961E+00
   1.0965287E-04   8.7626937E+05   -1.8607336E+00
   1.1015926E-04   8.6878990E+05   -1.8602702E+00
   1.1066799E-04   8.6137612E+05   -1.8598058E+00
   1.1117906E-04   8.5402743E+05   -1.8593405E+00
   1.1169250E-04   8.4674325E+05   -1.8588742E+00
   1.1220831E-04   8.3952301E+05   -1.8584070E+00
   1.1272650E-04   8.3236612E+05   -1.8579389E+00
   1.1324708E-04   8.2527204E+05   -1.8574699E+00
   1.1377007E-04   8.1824018E+05   -1.8569999E+00
   1.1429547E-04   8.1127000E+05   -1.8565290E+00
   1.1482330E-04   8.0436094E+05   -1.8560571E+00
   1.1535356E-04   7.9751246E+05   -1.8555844E+00
   1.1588628E-04   7.9072401E+05   -1.8551107E+00
   1.1642145E-04   7.8399505E+05   -1.8546361E+00
   1.1695910E-04   7.7732506E+05   -1.8541606E+00
   1.1749923E-04   7.7071351E+05   -1.8536841E+00
   1.1804185E-04   7.6415987E+05   -1.8532068E+00
   1.1858698E-04   7.5766362E+05   -1.8527285E+00
   1.1913463E-04   7.5122426E+05   -1.8522494E+00
   1.1968481E-04   7.4484127E+05   -1.8517693E+00
   1.2023752E-04   7.3851415E+05   -1.8512884E+00
   1.2079279E-04   7.3224240E+05   -1.8508065E+00
   1.2135063E-04   7.2602553E+05   -1.8503237E+00
   1.2191104E-04   7.1986304E+05   -1.8498401E+00
   1.2247403E-04   7.1375445E+05   -1.8493555E+00
   1.2303963E-04   7.0769928E+05   -1.8488701E+00
   1.2360784E-04   7.0169705E+05   -1.8483838E+00
   1.2417868E-04   6.9574729E+05   -1.8478966E+00
   1.2475215E-04   6.8984952E+05   -1.8474085E+00
   1.2532826E-04   6.8400329E+05   -1.8469196E+00
   1.2590704E-04   6.7820814E+05   -1.8464297E+00
   1.2648850E-04   6.7246360E+05   -1.8459390E+00
   1.2707263E-04   6.6676922E+05   -1.8454474E+00
   1.2765947E-04   6.6112457E+05   -1.8449550E+00
   1.2824901E-04   6.5552919E+05   -1.8444617E+00
   1.2884128E-04   6.4998264E+05   -1.8439676E+00
   1.2943628E-04   6.4448450E+05   -1.8434725E+00
   1.3003403E-04   6.3903432E+05   -1.8429767E+00
   1.3063454E-04   6.3363168E+05   -1.8424799E+00
   1.3123783E-04   6.2827616E+05   -1.8419824E+00
   1.3184390E-04   6.2296733E+05   -1.8414840E+00
   1.3245277E-04   6.1770477E+05   -1.8409847E+00
   1.3306445E-04   6.1248809E+05   -1.8404846E+00
   1.3367895E-04   6.0731686E+05   -1.8399837E+00
   1.3429630E-04   6.0219068E+05   -1.8394819E+00
   1.3491649E-04   5.9710915E+05   -1.8389794E+00
   1.3553955E-04   5.9207187E+05   -1.8384759E+00
   1.3616548E-04   5.8707846E+05   -1.8379717E+00
   1.3679431E-04   5.8212851E+05   -1.8374667E+00
   1.3742604E-04   5.7722164E+05   -1.8369608E+00
   1.3806069E-04   5.7235747E+05   -1.8364541E+00
   1.3869827E-04   5.6753561E+05   -1.8359466E+00
   1.3933879E-04   5.6275569E+05   -1.8354383E+00
   1.3998227E-04   5.5801733E+05   -1.8349293E+00
   1.4062872E-04   5.5332017E+05   -1.8344194E+00
   1.4127816E-04   5.4866384E+05   -1.8339087E+00
   1.4193060E-04   5.4404798E+05   -1.8333972E+00
   1.4258605E-04   5.3947222E+05   -1.8328849E+00
   1.4324453E-04   5.3493620E+05   -1.8323719E+00
   1.4390605E-04   5.3043959E+05   -1.8318581E+00
   1.4457062E-04   5.2598202E+05   -1.8313435E+00
   1.4523826E-04   5.2156314E+05   -1.8308281E+00
   1.4590899E-04   5.1718262E+05   -1.8303120E+00
   1.4658281E-04   5.1284011E+05   -1.8297951E+00
   1.4725974E-04   5.0853527E+05   -1.8292774E+00
   1.4793981E-04   5.0426777E+05   -1.8287590E+00
   1.4862301E-04   5.0003728E+05   -1.8282398E+00
   1.4930936E-04   4.9584347E+05   -1.8277199E+00
   1.4999889E-04   4.9168601E+05   -1.8271992E+00
   1.5069160E-04   4.8756458E+05   -1.8266778E+00
   1.5138751E-04   4.8347885E+05   -1.8261556E+00
   1.5208663E-04   4.7942852E+05   -1.8256328E+00
   1.5278899E-04   4.7541327E+05   -1.8251091E+00
   1.5349458E-04   4.7143278E+05   -1.8245848E+00
   1.5420343E-04   4.6748675E+05   -1.8240597E+00
   1.5491556E-04   4.6357488E+05   -1.8235340E+00
   1.5563098E-04   4.5969685E+05   -1.8230075E+00
   1.5634970E-04   4.5585237E+05   -1.8224803E+00
   1.5707174E-04   4.5204114E+05   -1.8219524E+00
   1.5779711E-04   4.4826286E+05   -1.8214238E+00
   1.5852584E-04   4.4451725E+05   -1.8208945E+00
   1.5925792E-04   4.4080401E+05   -1.8203645E+00
   1.5999339E-04   4.3712286E+05   -1.8198338E+00
   1.6073226E-04   4.3347351E+05   -1.8193024E+00
   1.6147454E-04   4.2985568E+05   -1.8187704E+00
   1.6222024E-04   4.2626909E+05   -1.8182377E+00
   1.6296939E-04   4.2271346E+05   -1.8177043E+00
   1.6372200E-04   4.1918853E+05   -1.8171702E+00
   1.6447809E-04   4.1569401E+05   -1.8166355E+00
   1.6523767E-04   4.1222964E+05   -1.8161001E+00
   1.6600075E-04   4.0879515E+05   -1.8155641E+00
   1.6676736E-04   4.0539027E+05   -1.8150274E+00
   1.6753751E-04   4.0201475E+05   -1.8144901E+00
   1.6831122E-04   3.9866833E+05   -1.8139521E+00
   1.6908849E-04   3.9535074E+05   -1.8134135E+00
   1.6986936E-04   3.9206173E+05   -1.8128743E+00
   1.7065384E-04   3.8880105E+05   -1.8123345E+00
   1.7144193E-04   3.8556845E+05   -1.8117940E+00
   1.7223367E-04   3.8236367E+05   -1.8112529E+00
   1.7302906E-04   3.7918649E+05   -1.8107112E+00
   1.7382813E-04   3.7603664E+05   -1.8101689E+00
   1.7463089E-04   3.7291389E+05   -1.8096260E+00
   1.7543735E-04   3.6981799E+05   -1.8090825E+00
   1.7624754E-04   3.6674872E+05   -1.8085384E+00
   1.7706147E-04   3.6370583E+05   -1.8079937E+00
   1.7787916E-04   3.6068910E+05   -1.8074484E+00
   1.7870062E-04   3.5769828E+05   -1.8069026E+00
   1.7952588E-04   3.5473316E+05   -1.8063562E+00
   1.8035495E-04   3.5179350E+05   -1.8058092E+00
   1.8118785E-04   3.4887909E+05   -1.8052616E+00
   1.8202459E-04   3.4598969E+05   -1.8047135E+00
   1.8286520E-04   3.4312509E+05   -1.8041649E+00
   1.8370969E-04   3.4028506E+05   -1.8036157E+00
   1.8455808E-04   3.3746940E+05   -1.8030659E+00
   1.8541039E-04   3.3467789E+05   -1.8025156E+00
   1.8626663E-04   3.3191030E+05   -1.8019648E+00
   1.8712683E-04   3.2916644E+05   -1.8014134E+00
   1.8799100E-04   3.2644609E+05   -1.8008616E+00
   1.8885917E-04   3.2374905E+05   -1.8003092E+00
   1.8973134E-04   3.2107511E+05   -1.7997563E+00
   1.9060754E-04   3.1842406E+05   -1.7992029E+00
   1.9148778E-04   3.1579571E+05   -1.7986489E+00
   1.9237209E-04   3.1318985E+05   -1.7980945E+00
   1.9326049E-04   3.1060629E+05   -1.7975396E+00
   1.9415299E-04   3.0804483E+05   -1.7969842E+00
   1.9504960E-04   3.0550528E+05   -1.7964284E+00
   1.9595036E-04   3.0298744E+05   -1.7958720E+00
   1.9685528E-04   3.0049112E+05   -1.7953152E+00
   1.9776438E-04   2.9801613E+05   -1.7947579E+00
   1.9867768E-04   2.9556228E+05   -1.7942002E+00
   1.9959519E-04   2.9312940E+05   -1.7936420E+00
   2.0051694E-04   2.9071729E+05   -1.7930833E+00
   2.0144295E-04   2.8832577E+05   -1.7925242E+00
   2.0237324E-04   2.8595466E+05   -1.7919647E+00
   2.0330782E-04   2.8360378E+05   -1.7914047E+00
   2.0424671E-04   2.8127295E+05   -1.7908443E+00
   2.0518995E-04   2.7896200E+05   -1.7902835E+00
   2.0613754E-04   2.7667075E+05   -1.7897223E+00
   2.0708950E-04   2.7439904E+05   -1.7891606E+00
   2.0804586E-04   2.7214667E+05   -1.7885986E+00
   2.0900664E-04   2.6991350E+05   -1.7880361E+00
   2.0997185E-04   2.6769935E+05   -1.7874733E+00
   2.1094152E-04   2.6550404E+05   -1.7869101E+00
   2.1191567E-04   2.6332743E+05   -1.7863464E+00
   2.1289432E-04   2.6116933E+05   -1.7857825E+00
   2.1387749E-04   2.5902960E+05   -1.7852181E+00
   2.1486520E-04   2.5690806E+05   -1.7846534E+00
   2.1585747E-04   2.5480457E+05   -1.7840883E+00
   2.1685432E-04   2.5271895E+05   -1.7835228E+00
   2.1785578E-04   2.5065106E+05   -1.7829570E+00
   2.1886186E-04   2.4860074E+05   -1.7823909E+00
   2.1987259E-04   2.4656783E+05   -1.7818244E+00
   2.2088798E-04   2.4455219E+05   -1.7812576E+00
   2.2190807E-04   2.4255366E+05   -1.7806904E+00
   2.2293286E-04   2.4057208E+05   -1.7801230E+00
   2.2396239E-04   2.3860732E+05   -1.7795552E+00
   2.2499667E-04   2.3665923E+05   -1.7789871E+00
   2.2603573E-04   2.3472766E+05   -1.7784187E+00
   2.2707958E-04   2.3281246E+05   -1.7778500E+00
   2.2812826E-04   2.3091349E+05   -1.7772810E+00
   2.2918178E-04   2.2903061E+05   -1.7767117E+00
   2.3024017E-04   2.2716368E+05   -1.7761422E+00
   2.3130344E-04   2.2531257E+05   -1.7755724E+00
   2.3237162E-04   2.2347712E+05   -1.7750023E+00
   2.3344474E-04   2.2165720E+05   -1.7744319E+00
   2.3452281E-04   2.1985269E+05   -1.7738613E+00
   2.3560586E-04   2.1806344E+05   -1.7732904E+00
   2.3669392E-04   2.1628932E+05   -1.7727193E+00
   2.3778699E-04   2.1453020E+05   -1.7721480E+00
   2.3888512E-04   2.1278594E+05   -1.7715764E+00
   2.3998831E-04   2.1105643E+05   -1.7710046E+00
   2.4109661E-04   2.0934152E+05   -1.7704325E+00
   2.4221001E-04   2.0764110E+05   -1.7698603E+00
   2.4332857E-04   2.0595502E+05   -1.7692878E+00
   2.4445228E-04   2.0428318E+05   -1.7687152E+00
   2.4558119E-04   2.0262545E+05   -1.7681423E+00
   2.4671531E-04   2.0098170E+05   -1.7675693E+00
   2.4785467E-04   1.9935181E+05   -1.7669960E+00
   2.4899928E-04   1.9773566E+05   -1.7664226E+00
   2.5014919E-04   1.9613313E+05   -1.7658490E+00
   2.5130440E-04   1.9454410E+05   -1.7652752E+00
   2.5246495E-04   1.9296846E+05   -1.7647013E+00
   2.5363086E-04   1.9140608E+05   -1.7641272E+00
   2.5480216E-04   1.8985686E+05   -1.7635530E+00
   2.5597886E-04   1.8832067E+05   -1.7629786E+00
   2.5716100E-04   1.8679741E+05   -1.7624041E+00
   2.5834859E-04   1.8528696E+05   -1.7618295E+00
   2.5954168E-04   1.8378920E+05   -1.7612547E+00
   2.6074027E-04   1.8230404E+05   -1.7606798E+00
   2.6194439E-04   1.8083136E+05   -1.7601048E+00
   2.6315408E-04   1.7937105E+05   -1.7595297E+00
   2.6436935E-04   1.7792301E+05   -1.7589545E+00
   2.6559024E-04   1.7648712E+05   -1.7583792E+00
   2.6681676E-04   1.7506329E+05   -1.7578038E+00
   2.6804895E-04   1.7365140E+05   -1.7572283E+00
   2.6928683E-04   1.7225136E+05   -1.7566527E+00
   2.7053042E-04   1.7086305E+05   -1.7560771E+00
   2.7177976E-04   1.6948639E+05   -1.7555014E+00
   2.7303487E-04   1.6812126E+05   -1.7549257E+00
   2.7429577E-04   1.6676758E+05   -1.7543499E+00
   2.7556250E-04   1.6542523E+05   -1.7537740E+00
   2.7683507E-04   1.6409412E+05   -1.7531981E+00
   2.7811353E-04   1.6277415E+05   -1.7526222E+00
   2.7939788E-04   1.6146523E+05   -1.7520462E+00
   2.8068817E-04   1.6016726E+05   -1.7514703E+00
   2.8198442E-04   1.5888015E+05   -1.7508943E+00
   2.8328665E-04   1.5760379E+05   -1.7503183E+00
   2.8459490E-04   1.5633811E+05   -1.7497423E+00
   2.8590919E-04   1.5508300E+05   -1.7491663E+00
   2.8722955E-04   1.5383838E+05   -1.7485903E+00
   2.8855600E-04   1.5260415E+05   -1.7480143E+00
   2.8988859E-04   1.5138022E+05   -1.7474383E+00
   2.9122732E-04   1.5016651E+05   -1.7468624E+00
   2.9257224E-04   1.4896292E+05   -1.7462865E+00
   2.9392337E-04   1.4776938E+05   -1.7457106E+00
   2.9528074E-04   1.4658578E+05   -1.7451348E+00
   2.9664438E-04   1.4541205E+05   -1.7445590E+00
   2.9801431E-04   1.4424811E+05   -1.7439833E+00
   2.9939057E-04   1.4309386E+05   -1.7434077E+00
   3.0077319E-04   1.4194922E+05   -1.7428321E+00
   3.0216219E-04   1.4081411E+05   -1.7422566E+00
   3.0355761E-04   1.3968845E+05   -1.7416812E+00
   3.0495947E-04   1.3857215E+05   -1.7411059E+00
   3.0636780E-04   1.3746514E+05   -1.7405306E+00
   3.0778264E-04   1.3636734E+05   -1.7399555E+00
   3.0920401E-04   1.3527866E+05   -1.7393805E+00
   3.1063195E-04   1.3419902E+05   -1.7388055E+00
   3.1206648E-04   1.3312836E+05   -1.7382307E+00
   3.1350764E-04   1.3206659E+05   -1.7376561E+00
   3.1495545E-04   1.3101363E+05   -1.7370815E+00
   3.1640994E-04   1.2996941E+05   -1.7365071E+00
   3.1787116E-04   1.2893386E+05   -1.7359328E+00
   3.1933912E-04   1.2790689E+05   -1.7353587E+00
   3.2081386E-04   1.2688844E+05   -1.7347847E+00
   3.2229541E-04   1.2587844E+05   -1.7342109E+00
   3.2378381E-04   1.2487680E+05   -1.7336373E+00
   3.2527908E-04   1.2388346E+05   -1.7330638E+00
   3.2678125E-04   1.2289834E+05   -1.7324905E+00
   3.2829036E-04   1.2192139E+05   -1.7319174E+00
   3.2980644E-04   1.2095251E+05   -1.7313445E+00
   3.3132952E-04   1.1999166E+05   -1.7307718E+00
   3.3285963E-04   1.1903875E+05   -1.7301993E+00
   3.3439681E-04   1.1809372E+05   -1.7296270E+00
   3.3594109E-04   1.1715650E+05   -1.7290549E+00
   3.3749250E-04   1.1622702E+05   -1.7284830E+00
   3.3905108E-04   1.1530522E+05   -1.7279114E+00
   3.4061685E-04   1.1439104E+05   -1.7273399E+00
   3.4218986E-04   1.1348440E+05   -1.7267688E+00
   3.4377013E-04   1.1258525E+05   -1.7261978E+00
   3.4535769E-04   1.1169351E+05   -1.7256272E+00
   3.4695259E-04   1.1080912E+05   -1.7250567E+00
   3.4855485E-04   1.0993203E+05   -1.7244866E+00
   3.5016452E-04   1.0906217E+05   -1.7239167E+00
   3.5178161E-04   1.0819947E+05   -1.7233470E+00
   3.5340618E-04   1.0734388E+05   -1.7227777E+00
   3.5503824E-04   1.0649533E+05   -1.7222086E+00
   3.5667785E-04   1.0565377E+05   -1.7216399E+00
   3.5832502E-04   1.0481913E+05   -1.7210714E+00
   3.5997981E-04   1.0399136E+05   -1.7205032E+00
   3.6164223E-04   1.0317040E+05   -1.7199353E+00
   3.6331233E-04   1.0235618E+05   -1.7193678E+00
   3.6499015E-04   1.0154866E+05   -1.7188006E+00
   3.6667571E-04   1.0074777E+05   -1.7182337E+00
   3.6836906E-04   9.9953459E+04   -1.7176671E+00
   3.7007022E-04   9.9165668E+04   -1.7171008E+00
   3.7177925E-04   9.8384343E+04   -1.7165350E+00
   3.7349616E-04   9.7609428E+04   -1.7159694E+00
   3.7522101E-04   9.6840869E+04   -1.7154042E+00
   3.7695382E-04   9.6078611E+04   -1.7148394E+00
   3.7869463E-04   9.5322602E+04   -1.7142749E+00
   3.8044348E-04   9.4572787E+04   -1.7137108E+00
   3.8220041E-04   9.3829114E+04   -1.7131471E+00
   3.8396545E-04   9.3091531E+04   -1.7125838E+00
   3.8573864E-04   9.2359985E+04   -1.7120208E+00
   3.8752002E-04   9.1634426E+04   -1.7114582E+00
   3.8930963E-04   9.0914802E+04   -1.7108961E+00
   3.9110750E-04   9.0201063E+04   -1.7103343E+00
   3.9291368E-04   8.9493159E+04   -1.7097730E+00
   3.9472820E-04   8.8791040E+04   -1.7092121E+00
   3.9655109E-04   8.8094657E+04   -1.7086516E+00
   3.9838241E-04   8.7403961E+04   -1.7080915E+00
   4.0022218E-04   8.6718904E+04   -1.7075318E+00
   4.0207045E-04   8.6039439E+04   -1.7069726E+00
   4.0392725E-04   8.5365517E+04   -1.7064138E+00
   4.0579263E-04   8.4697092E+04   -1.7058555E+00
   4.0766662E-04   8.4034117E+04   -1.7052976E+00
   4.0954927E-04   8.3376546E+04   -1.7047402E+00
   4.1144061E-04   8.2724332E+04   -1.7041833E+00
   4.1334068E-04   8.2077431E+04   -1.7036268E+00
   4.1524953E-04   8.1435797E+04   -1.7030708E+00
   4.1716720E-04   8.0799387E+04   -1.7025153E+00
   4.1909372E-04   8.0168154E+04   -1.7019602E+00
   4.2102914E-04   7.9542057E+04   -1.7014057E+00
   4.2297350E-04   7.8921050E+04   -1.7008516E+00
   4.2492683E-04   7.8305092E+04   -1.7002981E+00
   4.2688919E-04   7.7694140E+04   -1.6997450E+00
   4.2886061E-04   7.7088150E+04   -1.6991925E+00
   4.3084113E-04   7.6487082E+04   -1.6986405E+00
   4.3283080E-04   7.5890893E+04   -1.6980890E+00
   4.3482966E-04   7.5299543E+04   -1.6975380E+00
   4.3683775E-04   7.4712990E+04   -1.6969876E+00
   4.3885511E-04   7.4131194E+04   -1.6964377E+00
   4.4088179E-04   7.3554114E+04   -1.6958883E+00
   4.4291783E-04   7.2981712E+04   -1.6953395E+00
   4.4496327E-04   7.2413947E+04   -1.6947912E+00
   4.4701816E-04   7.1850780E+04   -1.6942435E+00
   4.4908253E-04   7.1292173E+04   -1.6936964E+00
   4.5115644E-04   7.0738087E+04   -1.6931498E+00
   4.5323993E-04   7.0188484E+04   -1.6926038E+00
   4.5533304E-04   6.9643327E+04   -1.6920584E+00
   4.5743582E-04   6.9102577E+04   -1.6915135E+00
   4.5954830E-04   6.8566199E+04   -1.6909693E+00
   4.6167054E-04   6.8034154E+04   -1.6904256E+00
   4.6380259E-04   6.7506406E+04   -1.6898825E+00
   4.6594448E-04   6.6982920E+04   -1.6893400E+00
   4.6809626E-04   6.6463659E+04   -1.6887982E+00
   4.7025797E-04   6.5948588E+04   -1.6882569E+00
   4.7242967E-04   6.5437672E+04   -1.6877163E+00
   4.7461140E-04   6.4930876E+04   -1.6871762E+00
   4.7680321E-04   6.4428164E+04   -1.6866368E+00
   4.7900514E-04   6.3929504E+04   -1.6860981E+00
   4.8121723E-04   6.3434861E+04   -1.6855599E+00
   4.8343954E-04   6.2944201E+04   -1.6850224E+00
   4.8567212E-04   6.2457490E+04   -1.6844856E+00
   4.8791500E-04   6.1974697E+04   -1.6839493E+00
   4.9016825E-04   6.1495787E+04   -1.6834138E+00
   4.9243189E-04   6.1020728E+04   -1.6828789E+00
   4.9470600E-04   6.0549489E+04   -1.6823446E+00
   4.9699060E-04   6.0082036E+04   -1.6818110E+00
   4.9928575E-04   5.9618339E+04   -1.6812781E+00
   5.0159151E-04   5.9158365E+04   -1.6807459E+00
   5.0390791E-04   5.8702084E+04   -1.6802143E+00
   5.0623501E-04   5.8249465E+04   -1.6796835E+00
   5.0857286E-04   5.7800478E+04   -1.6791533E+00
   5.1092150E-04   5.7355091E+04   -1.6786238E+00
   5.1328099E-04   5.6913274E+04   -1.6780950E+00
   5.1565137E-04   5.6474999E+04   -1.6775669E+00
   5.1803270E-04   5.6040235E+04   -1.6770394E+00
   5.2042503E-04   5.5608953E+04   -1.6765128E+00
   5.2282841E-04   5.5181124E+04   -1.6759868E+00
   5.2524289E-04   5.4756719E+04   -1.6754615E+00
   5.2766851E-04   5.4335710E+04   -1.6749370E+00
   5.3010534E-04   5.3918068E+04   -1.6744131E+00
   5.3255342E-04   5.3503765E+04   -1.6738900E+00
   5.3501281E-04   5.3092773E+04   -1.6733677E+00
   5.3748356E-04   5.2685065E+04   -1.6728460E+00
   5.3996571E-04   5.2280614E+04   -1.6723252E+00
   5.4245933E-04   5.1879391E+04   -1.6718050E+00
   5.4496446E-04   5.1481372E+04   -1.6712856E+00
   5.4748117E-04   5.1086528E+04   -1.6707670E+00
   5.5000949E-04   5.0694833E+04   -1.6702491E+00
   5.5254949E-04   5.0306262E+04   -1.6697320E+00
   5.5510123E-04   4.9920788E+04   -1.6692156E+00
   5.5766474E-04   4.9538385E+04   -1.6687000E+00
   5.6024010E-04   4.9159028E+04   -1.6681852E+00
   5.6282734E-04   4.8782692E+04   -1.6676711E+00
   5.6542654E-04   4.8409352E+04   -1.6671578E+00
   5.6803774E-04   4.8038982E+04   -1.6666453E+00
   5.7066099E-04   4.7671559E+04   -1.6661336E+00
   5.7329637E-04   4.7307057E+04   -1.6656227E+00
   5.7594391E-04   4.6945452E+04   -1.6651126E+00
   5.7860368E-04   4.6586721E+04   -1.6646033E+00
   5.8127573E-04   4.6230840E+04   -1.6640947E+00
   5.8396012E-04   4.5877785E+04   -1.6635870E+00
   5.8665691E-04   4.5527532E+04   -1.6630801E+00
   5.8936616E-04   4.5180059E+04   -1.6625740E+00
   5.9208791E-04   4.4835342E+04   -1.6620687E+00
   5.9482223E-04   4.4493358E+04   -1.6615642E+00
   5.9756919E-04   4.4154086E+04   -1.6610606E+00
   6.0032882E-04   4.3817503E+04   -1.6605577E+00
   6.0310120E-04   4.3483585E+04   -1.6600557E+00
   6.0588639E-04   4.3152313E+04   -1.6595545E+00
   6.0868443E-04   4.2823662E+04   -1.6590542E+00
   6.1149540E-04   4.2497613E+04   -1.6585547E+00
   6.1431935E-04   4.2174143E+04   -1.6580560E+00
   6.1715634E-04   4.1853232E+04   -1.6575582E+00
   6.2000644E-04   4.1534857E+04   -1.6570612E+00
   6.2286969E-04   4.1218999E+04   -1.6565651E+00
