#        a       HoverH0(a)       dlogHdloga_of_a(a)
   1.0000000E-04   1.2245976E+06   -1.8724826E+00
   1.0046181E-04   1.2140792E+06   -1.8720444E+00
   1.0092575E-04   1.2036535E+06   -1.8716052E+00
   1.0139184E-04   1.1933198E+06   -1.8711650E+00
   1.0186008E-04   1.1830772E+06   -1.8707239E+00
   1.0233048E-04   1.1729249E+06   -1.8702817E+00
   1.0280305E-04   1.1628621E+06   -1.8698386E+00
   1.0327781E-04   1.1528880E+06   -1.8693945E+00
   1.0375475E-04   1.1430017E+06   -1.8689495E+00
   1.0423390E-04   1.1332026E+06   -1.8685034E+00
   1.0471527E-04   1.1234898E+06   -1.8680564E+00
   1.0519885E-04   1.1138626E+06   -1.8676084E+00
   1.0568467E-04   1.1043201E+06   -1.8671594E+00
   1.0617274E-04   1.0948616E+06   -1.8667094E+00
   1.0666305E-04   1.0854864E+06   -1.8662585E+00
   1.0715563E-04   1.0761938E+06   -1.8658066E+00
   1.0765049E-04   1.0669829E+06   -1.8653538E+00
   1.0814763E-04   1.0578530E+06   -1.8649000E+00
   1.0864707E-04   1.0488035E+06   -1.8644452E+00
   1.0914881E-04   1.0398335E+06   -1.8639895E+00
   1.0965287E-04   1.0309425E+06   -1.8635328E+00
   1.1015926E-04   1.0221296E+06   -1.8630751E+00
   1.1066799E-04   1.0133942E+06   -1.8626165E+00
   1.1117906E-04   1.0047355E+06   -1.8621570E+00
   1.1169250E-04   9.9615299E+05   -1.8616965E+00
   1.1220831E-04   9.8764586E+05   -1.8612350E+00
   1.1272650E-04   9.7921346E+05   -1.8607726E+00
   1.1324708E-04   9.7085514E+05   -1.8603092E+00
   1.1377007E-04   9.6257021E+05   -1.8598449E+00
   1.1429547E-04   9.5435803E+05   -1.8593797E+00
   1.1482330E-04   9.4621795E+05   -1.8589135E+00
   1.1535356E-04   9.3814930E+05   -1.8584464E+00
   1.1588628E-04   9.3015147E+05   -1.8579784E+00
   1.1642145E-04   9.2222381E+05   -1.8575094E+00
   1.1695910E-04   9.1436569E+05   -1.8570395E+00
   1.1749923E-04   9.0657650E+05   -1.8565687E+00
   1.1804185E-04   8.9885561E+05   -1.8560969E+00
   1.1858698E-04   8.9120242E+05   -1.8556242E+00
   1.1913463E-04   8.8361631E+05   -1.8551506E+00
   1.1968481E-04   8.7609669E+05   -1.8546761E+00
   1.2023752E-04   8.6864297E+05   -1.8542006E+00
   1.2079279E-04   8.6125455E+05   -1.8537243E+00
   1.2135063E-04   8.5393085E+05   -1.8532470E+00
   1.2191104E-04   8.4667129E+05   -1.8527688E+00
   1.2247403E-04   8.3947530E+05   -1.8522898E+00
   1.2303963E-04   8.3234231E+05   -1.8518098E+00
   1.2360784E-04   8.2527175E+05   -1.8513289E+00
   1.2417868E-04   8.1826307E+05   -1.8508471E+00
   1.2475215E-04   8.1131571E+05   -1.8503644E+00
   1.2532826E-04   8.0442913E+05   -1.8498808E+00
   1.2590704E-04   7.9760279E+05   -1.8493964E+00
   1.2648850E-04   7.9083613E+05   -1.8489110E+00
   1.2707263E-04   7.8412864E+05   -1.8484248E+00
   1.2765947E-04   7.7747979E+05   -1.8479376E+00
   1.2824901E-04   7.7088904E+05   -1.8474496E+00
   1.2884128E-04   7.6435588E+05   -1.8469607E+00
   1.2943628E-04   7.5787980E+05   -1.8464710E+00
   1.3003403E-04   7.5146029E+05   -1.8459804E+00
   1.3063454E-04   7.4509684E+05   -1.8454889E+00
   1.3123783E-04   7.3878895E+05   -1.8449965E+00
   1.3184390E-04   7.3253612E+05   -1.8445033E+00
   1.3245277E-04   7.2633787E+05   -1.8440092E+00
   1.3306445E-04   7.2019370E+05   -1.8435142E+00
   1.3367895E-04   7.1410314E+05   -1.8430184E+00
   1.3429630E-04   7.0806570E+05   -1.8425218E+00
   1.3491649E-04   7.0208091E+05   -1.8420243E+00
   1.3553955E-04   6.9614831E+05   -1.8415259E+00
   1.3616548E-04   6.9026742E+05   -1.8410268E+00
   1.3679431E-04   6.8443779E+05   -1.8405267E+00
   1.3742604E-04   6.7865896E+05   -1.8400259E+00
   1.3806069E-04   6.7293048E+05   -1.8395242E+00
   1.3869827E-04   6.6725189E+05   -1.8390217E+00
   1.3933879E-04   6.6162276E+05   -1.8385183E+00
   1.3998227E-04   6.5604263E+05   -1.8380142E+00
   1.4062872E-04   6.5051108E+05   -1.8375092E+00
   1.4127816E-04   6.4502767E+05   -1.8370034E+00
   1.4193060E-04   6.3959198E+05   -1.8364968E+00
   1.4258605E-04   6.3420358E+05   -1.8359894E+00
   1.4324453E-04   6.2886204E+05   -1.8354811E+00
   1.4390605E-04   6.2356695E+05   -1.8349721E+00
   1.4457062E-04   6.1831790E+05   -1.8344623E+00
   1.4523826E-04   6.1311448E+05   -1.8339517E+00
   1.4590899E-04   6.0795627E+05   -1.8334403E+00
   1.4658281E-04   6.0284289E+05   -1.8329281E+00
   1.4725974E-04   5.9777392E+05   -1.8324151E+00
   1.4793981E-04   5.9274898E+05   -1.8319013E+00
   1.4862301E-04   5.8776767E+05   -1.8313868E+00
   1.4930936E-04   5.8282961E+05   -1.8308715E+00
   1.4999889E-04   5.7793440E+05   -1.8303554E+00
   1.5069160E-04   5.7308167E+05   -1.8298386E+00
   1.5138751E-04   5.6827105E+05   -1.8293210E+00
   1.5208663E-04   5.6350215E+05   -1.8288026E+00
   1.5278899E-04   5.5877460E+05   -1.8282835E+00
   1.5349458E-04   5.5408805E+05   -1.8277636E+00
   1.5420343E-04   5.4944212E+05   -1.8272430E+00
   1.5491556E-04   5.4483645E+05   -1.8267217E+00
   1.5563098E-04   5.4027069E+05   -1.8261996E+00
   1.5634970E-04   5.3574448E+05   -1.8256767E+00
   1.5707174E-04   5.3125747E+05   -1.8251532E+00
   1.5779711E-04   5.2680931E+05   -1.8246289E+00
   1.5852584E-04   5.2239966E+05   -1.8241039E+00
   1.5925792E-04   5.1802817E+05   -1.8235782E+00
   1.5999339E-04   5.1369451E+05   -1.8230518E+00
   1.6073226E-04   5.0939834E+05   -1.8225246E+00
   1.6147454E-04   5.0513932E+05   -1.8219968E+00
   1.6222024E-04   5.0091713E+05   -1.8214682E+00
   1.6296939E-04   4.9673145E+05   -1.8209390E+00
   1.6372200E-04   4.9258195E+05   -1.8204090E+00
   1.6447809E-04   4.8846830E+05   -1.8198784E+00
   1.6523767E-04   4.8439019E+05   -1.8193471E+00
   1.6600075E-04   4.8034730E+05   -1.8188151E+00
   1.6676736E-04   4.7633933E+05   -1.8182824E+00
   1.6753751E-04   4.7236595E+05   -1.8177491E+00
   1.6831122E-04   4.6842688E+05   -1.8172151E+00
   1.6908849E-04   4.6452179E+05   -1.8166804E+00
   1.6986936E-04   4.6065039E+05   -1.8161451E+00
   1.7065384E-04   4.5681239E+05   -1.8156091E+00
   1.7144193E-04   4.5300748E+05   -1.8150725E+00
   1.7223367E-04   4.4923538E+05   -1.8145353E+00
   1.7302906E-04   4.4549579E+05   -1.8139973E+00
   1.7382813E-04   4.4178843E+05   -1.8134588E+00
   1.7463089E-04   4.3811300E+05   -1.8129196E+00
   1.7543735E-04   4.3446924E+05   -1.8123798E+00
   1.7624754E-04   4.3085685E+05   -1.8118394E+00
   1.7706147E-04   4.2727556E+05   -1.8112984E+00
   1.7787916E-04   4.2372509E+05   -1.8107567E+00
   1.7870062E-04   4.2020518E+05   -1.8102145E+00
   1.7952588E-04   4.1671555E+05   -1.8096716E+00
   1.8035495E-04   4.1325593E+05   -1.8091281E+00
   1.8118785E-04   4.0982606E+05   -1.8085841E+00
   1.8202459E-04   4.0642567E+05   -1.8080395E+00
   1.8286520E-04   4.0305452E+05   -1.8074942E+00
   1.8370969E-04   3.9971233E+05   -1.8069484E+00
   1.8455808E-04   3.9639885E+05   -1.8064021E+00
   1.8541039E-04   3.9311383E+05   -1.8058551E+00
   1.8626663E-04   3.8985701E+05   -1.8053076E+00
   1.8712683E-04   3.8662816E+05   -1.8047596E+00
   1.8799100E-04   3.8342701E+05   -1.8042109E+00
   1.8885917E-04   3.8025333E+05   -1.8036618E+00
   1.8973134E-04   3.7710687E+05   -1.8031121E+00
   1.9060754E-04   3.7398740E+05   -1.8025618E+00
   1.9148778E-04   3.7089467E+05   -1.8020110E+00
   1.9237209E-04   3.6782845E+05   -1.8014597E+00
   1.9326049E-04   3.6478851E+05   -1.8009079E+00
   1.9415299E-04   3.6177461E+05   -1.8003555E+00
   1.9504960E-04   3.5878653E+05   -1.7998027E+00
   1.9595036E-04   3.5582403E+05   -1.7992493E+00
   1.9685528E-04   3.5288689E+05   -1.7986954E+00
   1.9776438E-04   3.4997490E+05   -1.7981411E+00
   1.9867768E-04   3.4708782E+05   -1.7975862E+00
   1.9959519E-04   3.4422543E+05   -1.7970308E+00
   2.0051694E-04   3.4138753E+05   -1.7964750E+00
   2.0144295E-04   3.3857389E+05   -1.7959187E+00
   2.0237324E-04   3.3578430E+05   -1.7953619E+00
   2.0330782E-04   3.3301854E+05   -1.7948047E+00
   2.0424671E-04   3.3027642E+05   -1.7942470E+00
   2.0518995E-04   3.2755772E+05   -1.7936888E+00
   2.0613754E-04   3.2486223E+05   -1.7931302E+00
   2.0708950E-04   3.2218976E+05   -1.7925711E+00
   2.0804586E-04   3.1954009E+05   -1.7920116E+00
   2.0900664E-04   3.1691303E+05   -1.7914517E+00
   2.0997185E-04   3.1430838E+05   -1.7908913E+00
   2.1094152E-04   3.1172595E+05   -1.7903305E+00
   2.1191567E-04   3.0916553E+05   -1.7897693E+00
   2.1289432E-04   3.0662693E+05   -1.7892077E+00
   2.1387749E-04   3.0410996E+05   -1.7886457E+00
   2.1486520E-04   3.0161444E+05   -1.7880833E+00
   2.1585747E-04   2.9914017E+05   -1.7875205E+00
   2.1685432E-04   2.9668697E+05   -1.7869573E+00
   2.1785578E-04   2.9425465E+05   -1.7863937E+00
   2.1886186E-04   2.9184303E+05   -1.7858297E+00
   2.1987259E-04   2.8945192E+05   -1.7852654E+00
   2.2088798E-04   2.8708116E+05   -1.7847007E+00
   2.2190807E-04   2.8473055E+05   -1.7841356E+00
   2.2293286E-04   2.8239993E+05   -1.7835702E+00
   2.2396239E-04   2.8008911E+05   -1.7830044E+00
   2.2499667E-04   2.7779792E+05   -1.7824383E+00
   2.2603573E-04   2.7552620E+05   -1.7818718E+00
   2.2707958E-04   2.7327377E+05   -1.7813050E+00
   2.2812826E-04   2.7104045E+05   -1.7807379E+00
   2.2918178E-04   2.6882610E+05   -1.7801705E+00
   2.3024017E-04   2.6663053E+05   -1.7796027E+00
   2.3130344E-04   2.6445358E+05   -1.7790347E+00
   2.3237162E-04   2.6229510E+05   -1.7784663E+00
   2.3344474E-04   2.6015491E+05   -1.7778976E+00
   2.3452281E-04   2.5803287E+05   -1.7773287E+00
   2.3560586E-04   2.5592880E+05   -1.7767594E+00
   2.3669392E-04   2.5384256E+05   -1.7761899E+00
   2.3778699E-04   2.5177398E+05   -1.7756201E+00
   2.3888512E-04   2.4972292E+05   -1.7750500E+00
   2.3998831E-04   2.4768921E+05   -1.7744797E+00
   2.4109661E-04   2.4567272E+05   -1.7739091E+00
   2.4221001E-04   2.4367328E+05   -1.7733382E+00
   2.4332857E-04   2.4169075E+05   -1.7727671E+00
   2.4445228E-04   2.3972498E+05   -1.7721958E+00
   2.4558119E-04   2.3777583E+05   -1.7716242E+00
   2.4671531E-04   2.3584314E+05   -1.7710524E+00
   2.4785467E-04   2.3392678E+05   -1.7704804E+00
   2.4899928E-04   2.3202661E+05   -1.7699082E+00
   2.5014919E-04   2.3014247E+05   -1.7693357E+00
   2.5130440E-04   2.2827424E+05   -1.7687631E+00
   2.5246495E-04   2.2642177E+05   -1.7681902E+00
   2.5363086E-04   2.2458493E+05   -1.7676172E+00
   2.5480216E-04   2.2276357E+05   -1.7670440E+00
   2.5597886E-04   2.2095758E+05   -1.7664705E+00
   2.5716100E-04   2.1916680E+05   -1.7658970E+00
   2.5834859E-04   2.1739111E+05   -1.7653232E+00
   2.5954168E-04   2.1563037E+05   -1.7647493E+00
   2.6074027E-04   2.1388447E+05   -1.7641752E+00
   2.6194439E-04   2.1215326E+05   -1.7636010E+00
   2.6315408E-04   2.1043662E+05   -1.7630266E+00
   2.6436935E-04   2.0873442E+05   -1.7624521E+00
   2.6559024E-04   2.0704654E+05   -1.7618775E+00
   2.6681676E-04   2.0537285E+05   -1.7613027E+00
   2.6804895E-04   2.0371323E+05   -1.7607278E+00
   2.6928683E-04   2.0206756E+05   -1.7601529E+00
   2.7053042E-04   2.0043572E+05   -1.7595777E+00
   2.7177976E-04   1.9881757E+05   -1.7590025E+00
   2.7303487E-04   1.9721302E+05   -1.7584272E+00
   2.7429577E-04   1.9562193E+05   -1.7578518E+00
   2.7556250E-04   1.9404420E+05   -1.7572764E+00
   2.7683507E-04   1.9247969E+05   -1.7567008E+00
   2.7811353E-04   1.9092831E+05   -1.7561252E+00
   2.7939788E-04   1.8938994E+05   -1.7555495E+00
   2.8068817E-04   1.8786446E+05   -1.7549737E+00
   2.8198442E-04   1.8635176E+05   -1.7543979E+00
   2.8328665E-04   1.8485173E+05   -1.7538221E+00
   2.8459490E-04   1.8336427E+05   -1.7532462E+00
   2.8590919E-04   1.8188925E+05   -1.7526703E+00
   2.8722955E-04   1.8042658E+05   -1.7520943E+00
   2.8855600E-04   1.7897614E+05   -1.7515183E+00
   2.8988859E-04   1.7753784E+05   -1.7509423E+00
   2.9122732E-04   1.7611156E+05   -1.7503663E+00
   2.9257224E-04   1.7469721E+05   -1.7497903E+00
   2.9392337E-04   1.7329467E+05   -1.7492143E+00
   2.9528074E-04   1.7190385E+05   -1.7486383E+00
   2.9664438E-04   1.7052465E+05   -1.7480623E+00
   2.9801431E-04   1.6915696E+05   -1.7474864E+00
   2.9939057E-04   1.6780068E+05   -1.7469104E+00
   3.0077319E-04   1.6645572E+05   -1.7463345E+00
   3.0216219E-04   1.6512198E+05   -1.7457586E+00
   3.0355761E-04   1.6379936E+05   -1.7451828E+00
   3.0495947E-04   1.6248776E+05   -1.7446070E+00
   3.0636780E-04   1.6118710E+05   -1.7440313E+00
   3.0778264E-04   1.5989727E+05   -1.7434557E+00
   3.0920401E-04   1.5861818E+05   -1.7428801E+00
   3.1063195E-04   1.5734974E+05   -1.7423046E+00
   3.1206648E-04   1.5609186E+05   -1.7417291E+00
   3.1350764E-04   1.5484445E+05   -1.7411538E+00
   3.1495545E-04   1.5360741E+05   -1.7405785E+00
   3.1640994E-04   1.5238066E+05   -1.7400034E+00
   3.1787116E-04   1.5116410E+05   -1.7394283E+00
   3.1933912E-04   1.4995766E+05   -1.7388534E+00
   3.2081386E-04   1.4876124E+05   -1.7382786E+00
   3.2229541E-04   1.4757475E+05   -1.7377039E+00
   3.2378381E-04   1.4639811E+05   -1.7371293E+00
   3.2527908E-04   1.4523125E+05   -1.7365549E+00
   3.2678125E-04   1.4407406E+05   -1.7359806E+00
   3.2829036E-04   1.4292647E+05   -1.7354065E+00
   3.2980644E-04   1.4178840E+05   -1.7348325E+00
   3.3132952E-04   1.4065976E+05   -1.7342587E+00
   3.3285963E-04   1.3954047E+05   -1.7336850E+00
   3.3439681E-04   1.3843046E+05   -1.7331115E+00
   3.3594109E-04   1.3732964E+05   -1.7325382E+00
   3.3749250E-04   1.3623793E+05   -1.7319651E+00
   3.3905108E-04   1.3515526E+05   -1.7313922E+00
   3.4061685E-04   1.3408154E+05   -1.7308194E+00
   3.4218986E-04   1.3301671E+05   -1.7302469E+00
   3.4377013E-04   1.3196068E+05   -1.7296745E+00
   3.4535769E-04   1.3091338E+05   -1.7291024E+00
   3.4695259E-04   1.2987474E+05   -1.7285305E+00
   3.4855485E-04   1.2884467E+05   -1.7279589E+00
   3.5016452E-04   1.2782311E+05   -1.7273874E+00
   3.5178161E-04   1.2680999E+05   -1.7268162E+00
   3.5340618E-04   1.2580522E+05   -1.7262453E+00
   3.5503824E-04   1.2480875E+05   -1.7256746E+00
   3.5667785E-04   1.2382049E+05   -1.7251041E+00
   3.5832502E-04   1.2284038E+05   -1.7245339E+00
   3.5997981E-04   1.2186835E+05   -1.7239640E+00
   3.6164223E-04   1.2090433E+05   -1.7233943E+00
   3.6331233E-04   1.1994825E+05   -1.7228249E+00
   3.6499015E-04   1.1900004E+05   -1.7222559E+00
   3.6667571E-04   1.1805964E+05   -1.7216871E+00
   3.6836906E-04   1.1712697E+05   -1.7211185E+00
   3.7007022E-04   1.1620198E+05   -1.7205503E+00
   3.7177925E-04   1.1528459E+05   -1.7199824E+00
   3.7349616E-04   1.1437475E+05   -1.7194149E+00
   3.7522101E-04   1.1347238E+05   -1.7188476E+00
   3.7695382E-04   1.1257743E+05   -1.7182807E+00
   3.7869463E-04   1.1168982E+05   -1.7177141E+00
   3.8044348E-04   1.1080951E+05   -1.7171478E+00
   3.8220041E-04   1.0993642E+05   -1.7165819E+00
   3.8396545E-04   1.0907049E+05   -1.7160163E+00
   3.8573864E-04   1.0821166E+05   -1.7154510E+00
   3.8752002E-04   1.0735988E+05   -1.7148862E+00
   3.8930963E-04   1.0651508E+05   -1.7143217E+00
   3.9110750E-04   1.0567720E+05   -1.7137575E+00
   3.9291368E-04   1.0484619E+05   -1.7131938E+00
   3.9472820E-04   1.0402198E+05   -1.7126304E+00
   3.9655109E-04   1.0320451E+05   -1.7120674E+00
   3.9838241E-04   1.0239374E+05   -1.7115048E+00
   4.0022218E-04   1.0158960E+05   -1.7109426E+00
   4.0207045E-04   1.0079203E+05   -1.7103808E+00
   4.0392725E-04   1.0000099E+05   -1.7098194E+00
   4.0579263E-04   9.9216411E+04   -1.7092585E+00
   4.0766662E-04   9.8438242E+04   -1.7086979E+00
   4.0954927E-04   9.7666428E+04   -1.7081378E+00
   4.1144061E-04   9.6900915E+04   -1.7075781E+00
   4.1334068E-04   9.6141651E+04   -1.7070188E+00
   4.1524953E-04   9.5388581E+04   -1.7064600E+00
   4.1716720E-04   9.4641653E+04   -1.7059017E+00
   4.1909372E-04   9.3900816E+04   -1.7053437E+00
   4.2102914E-04   9.3166017E+04   -1.7047863E+00
   4.2297350E-04   9.2437206E+04   -1.7042293E+00
   4.2492683E-04   9.1714331E+04   -1.7036728E+00
   4.2688919E-04   9.0997342E+04   -1.7031167E+00
   4.2886061E-04   9.0286190E+04   -1.7025611E+00
   4.3084113E-04   8.9580825E+04   -1.7020061E+00
   4.3283080E-04   8.8881198E+04   -1.7014515E+00
   4.3482966E-04   8.8187260E+04   -1.7008974E+00
   4.3683775E-04   8.7498963E+04   -1.7003438E+00
   4.3885511E-04   8.6816260E+04   -1.6997907E+00
   4.4088179E-04   8.6139102E+04   -1.6992381E+00
   4.4291783E-04   8.5467444E+04   -1.6986860E+00
   4.4496327E-04   8.4801239E+04   -1.6981345E+00
   4.4701816E-04   8.4140440E+04   -1.6975834E+00
   4.4908253E-04   8.3485003E+04   -1.6970329E+00
   4.5115644E-04   8.2834881E+04   -1.6964830E+00
   4.5323993E-04   8.2190030E+04   -1.6959336E+00
   4.5533304E-04   8.1550405E+04   -1.6953847E+00
   4.5743582E-04   8.0915963E+04   -1.6948364E+00
   4.5954830E-04   8.0286659E+04   -1.6942886E+00
   4.6167054E-04   7.9662451E+04   -1.6937414E+00
   4.6380259E-04   7.9043295E+04   -1.6931948E+00
   4.6594448E-04   7.8429148E+04   -1.6926487E+00
   4.6809626E-04   7.7819969E+04   -1.6921033E+00
   4.7025797E-04   7.7215715E+04   -1.6915584E+00
   4.7242967E-04   7.6616345E+04   -1.6910140E+00
   4.7461140E-04   7.6021819E+04   -1.6904703E+00
   4.7680321E-04   7.5432095E+04   -1.6899272E+00
   4.7900514E-04   7.4847132E+04   -1.6893846E+00
   4.8121723E-04   7.4266892E+04   -1.6888427E+00
   4.8343954E-04   7.3691333E+04   -1.6883014E+00
   4.8567212E-04   7.3120418E+04   -1.6877607E+00
   4.8791500E-04   7.2554106E+04   -1.6872206E+00
   4.9016825E-04   7.1992359E+04   -1.6866811E+00
   4.9243189E-04   7.1435139E+04   -1.6861423E+00
   4.9470600E-04   7.0882408E+04   -1.6856041E+00
   4.9699060E-04   7.0334128E+04   -1.6850665E+00
   4.9928575E-04   6.9790261E+04   -1.6845296E+00
   5.0159151E-04   6.9250771E+04   -1.6839933E+00
   5.0390791E-04   6.8715622E+04   -1.6834577E+00
   5.0623501E-04   6.8184776E+04   -1.6829228E+00
   5.0857286E-04   6.7658197E+04   -1.6823884E+00
   5.1092150E-04   6.7135850E+04   -1.6818548E+00
   5.1328099E-04   6.6617700E+04   -1.6813218E+00
   5.1565137E-04   6.6103711E+04   -1.6807895E+00
   5.1803270E-04   6.5593849E+04   -1.6802579E+00
   5.2042503E-04   6.5088078E+04   -1.6797269E+00
   5.2282841E-04   6.4586366E+04   -1.6791967E+00
   5.2524289E-04   6.4088676E+04   -1.6786671E+00
   5.2766851E-04   6.3594978E+04   -1.6781382E+00
   5.3010534E-04   6.3105235E+04   -1.6776101E+00
   5.3255342E-04   6.2619417E+04   -1.6770826E+00
   5.3501281E-04   6.2137490E+04   -1.6765558E+00
   5.3748356E-04   6.1659421E+04   -1.6760298E+00
   5.3996571E-04   6.1185178E+04   -1.6755045E+00
   5.4245933E-04   6.0714730E+04   -1.6749798E+00
   5.4496446E-04   6.0248045E+04   -1.6744559E+00
   5.4748117E-04   5.9785091E+04   -1.6739328E+00
   5.5000949E-04   5.9325838E+04   -1.6734103E+00
   5.5254949E-04   5.8870254E+04   -1.6728886E+00
   5.5510123E-04   5.8418308E+04   -1.6723677E+00
   5.5766474E-04   5.7969972E+04   -1.6718475E+00
   5.6024010E-04   5.7525214E+04   -1.6713280E+00
   5.6282734E-04   5.7084005E+04   -1.6708093E+00
   5.6542654E-04   5.6646315E+04   -1.6702913E+00
   5.6803774E-04   5.6212115E+04   -1.6697741E+00
   5.7066099E-04   5.5781376E+04   -1.6692577E+00
   5.7329637E-04   5.5354069E+04   -1.6687420E+00
   5.7594391E-04   5.4930166E+04   -1.6682271E+00
   5.7860368E-04   5.4509639E+04   -1.6677130E+00
   5.8127573E-04   5.4092459E+04   -1.6671996E+00
   5.8396012E-04   5.3678599E+04   -1.6666871E+00
   5.8665691E-04   5.3268031E+04   -1.6661753E+00
   5.8936616E-04   5.2860727E+04   -1.6656643E+00
   5.9208791E-04   5.2456662E+04   -1.6651541E+00
   5.9482223E-04   5.2055807E+04   -1.6646447E+00
   5.9756919E-04   5.1658137E+04   -1.6641361E+00
   6.0032882E-04   5.1263625E+04   -1.6636283E+00
   6.0310120E-04   5.0872244E+04   -1.6631213E+00
   6.0588639E-04   5.0483970E+04   -1.6626151E+00
   6.0868443E-04   5.0098775E+04   -1.6621097E+00
   6.1149540E-04   4.9716635E+04   -1.6616052E+00
   6.1431935E-04   4.9337525E+04   -1.6611014E+00
   6.1715634E-04   4.8961420E+04   -1.6605985E+00
   6.2000644E-04   4.8588294E+04   -1.6600964E+00
   6.2286969E-04   4.8218122E+04   -1.6595952E+00
