#        a       HoverH0(a)       dlogHdloga_of_a(a)
   1.0000000E-04   1.2207417E+06   -1.8732504E+00
   1.0046181E-04   1.2102521E+06   -1.8728139E+00
   1.0092575E-04   1.1998550E+06   -1.8723764E+00
   1.0139184E-04   1.1895497E+06   -1.8719380E+00
   1.0186008E-04   1.1793352E+06   -1.8714986E+00
   1.0233048E-04   1.1692109E+06   -1.8710582E+00
   1.0280305E-04   1.1591758E+06   -1.8706168E+00
   1.0327781E-04   1.1492292E+06   -1.8701744E+00
   1.0375475E-04   1.1393702E+06   -1.8697310E+00
   1.0423390E-04   1.1295981E+06   -1.8692867E+00
   1.0471527E-04   1.1199122E+06   -1.8688414E+00
   1.0519885E-04   1.1103116E+06   -1.8683951E+00
   1.0568467E-04   1.1007955E+06   -1.8679478E+00
   1.0617274E-04   1.0913633E+06   -1.8674996E+00
   1.0666305E-04   1.0820141E+06   -1.8670504E+00
   1.0715563E-04   1.0727472E+06   -1.8666002E+00
   1.0765049E-04   1.0635619E+06   -1.8661490E+00
   1.0814763E-04   1.0544575E+06   -1.8656969E+00
   1.0864707E-04   1.0454331E+06   -1.8652438E+00
   1.0914881E-04   1.0364882E+06   -1.8647898E+00
   1.0965287E-04   1.0276220E+06   -1.8643348E+00
   1.1015926E-04   1.0188337E+06   -1.8638788E+00
   1.1066799E-04   1.0101227E+06   -1.8634219E+00
   1.1117906E-04   1.0014883E+06   -1.8629640E+00
   1.1169250E-04   9.9292980E+05   -1.8625052E+00
   1.1220831E-04   9.8444653E+05   -1.8620454E+00
   1.1272650E-04   9.7603780E+05   -1.8615847E+00
   1.1324708E-04   9.6770295E+05   -1.8611230E+00
   1.1377007E-04   9.5944133E+05   -1.8606603E+00
   1.1429547E-04   9.5125227E+05   -1.8601967E+00
   1.1482330E-04   9.4313511E+05   -1.8597322E+00
   1.1535356E-04   9.3508923E+05   -1.8592668E+00
   1.1588628E-04   9.2711398E+05   -1.8588004E+00
   1.1642145E-04   9.1920872E+05   -1.8583330E+00
   1.1695910E-04   9.1137283E+05   -1.8578648E+00
   1.1749923E-04   9.0360570E+05   -1.8573955E+00
   1.1804185E-04   8.9590669E+05   -1.8569254E+00
   1.1858698E-04   8.8827521E+05   -1.8564544E+00
   1.1913463E-04   8.8071065E+05   -1.8559824E+00
   1.1968481E-04   8.7321241E+05   -1.8555095E+00
   1.2023752E-04   8.6577990E+05   -1.8550356E+00
   1.2079279E-04   8.5841252E+05   -1.8545609E+00
   1.2135063E-04   8.5110971E+05   -1.8540852E+00
   1.2191104E-04   8.4387087E+05   -1.8536086E+00
   1.2247403E-04   8.3669544E+05   -1.8531312E+00
   1.2303963E-04   8.2958285E+05   -1.8526528E+00
   1.2360784E-04   8.2253254E+05   -1.8521735E+00
   1.2417868E-04   8.1554394E+05   -1.8516932E+00
   1.2475215E-04   8.0861652E+05   -1.8512121E+00
   1.2532826E-04   8.0174971E+05   -1.8507301E+00
   1.2590704E-04   7.9494299E+05   -1.8502472E+00
   1.2648850E-04   7.8819581E+05   -1.8497634E+00
   1.2707263E-04   7.8150764E+05   -1.8492788E+00
   1.2765947E-04   7.7487796E+05   -1.8487932E+00
   1.2824901E-04   7.6830623E+05   -1.8483067E+00
   1.2884128E-04   7.6179196E+05   -1.8478194E+00
   1.2943628E-04   7.5533461E+05   -1.8473312E+00
   1.3003403E-04   7.4893368E+05   -1.8468421E+00
   1.3063454E-04   7.4258867E+05   -1.8463521E+00
   1.3123783E-04   7.3629909E+05   -1.8458613E+00
   1.3184390E-04   7.3006442E+05   -1.8453695E+00
   1.3245277E-04   7.2388419E+05   -1.8448770E+00
   1.3306445E-04   7.1775791E+05   -1.8443835E+00
   1.3367895E-04   7.1168509E+05   -1.8438892E+00
   1.3429630E-04   7.0566526E+05   -1.8433941E+00
   1.3491649E-04   6.9969795E+05   -1.8428981E+00
   1.3553955E-04   6.9378269E+05   -1.8424012E+00
   1.3616548E-04   6.8791901E+05   -1.8419035E+00
   1.3679431E-04   6.8210646E+05   -1.8414050E+00
   1.3742604E-04   6.7634457E+05   -1.8409056E+00
   1.3806069E-04   6.7063290E+05   -1.8404054E+00
   1.3869827E-04   6.6497100E+05   -1.8399043E+00
   1.3933879E-04   6.5935842E+05   -1.8394024E+00
   1.3998227E-04   6.5379473E+05   -1.8388997E+00
   1.4062872E-04   6.4827949E+05   -1.8383961E+00
   1.4127816E-04   6.4281226E+05   -1.8378918E+00
   1.4193060E-04   6.3739263E+05   -1.8373866E+00
   1.4258605E-04   6.3202016E+05   -1.8368806E+00
   1.4324453E-04   6.2669443E+05   -1.8363738E+00
   1.4390605E-04   6.2141504E+05   -1.8358662E+00
   1.4457062E-04   6.1618156E+05   -1.8353578E+00
   1.4523826E-04   6.1099359E+05   -1.8348485E+00
   1.4590899E-04   6.0585073E+05   -1.8343385E+00
   1.4658281E-04   6.0075257E+05   -1.8338277E+00
   1.4725974E-04   5.9569870E+05   -1.8333161E+00
   1.4793981E-04   5.9068875E+05   -1.8328037E+00
   1.4862301E-04   5.8572232E+05   -1.8322906E+00
   1.4930936E-04   5.8079902E+05   -1.8317766E+00
   1.4999889E-04   5.7591846E+05   -1.8312619E+00
   1.5069160E-04   5.7108028E+05   -1.8307464E+00
   1.5138751E-04   5.6628408E+05   -1.8302301E+00
   1.5208663E-04   5.6152950E+05   -1.8297131E+00
   1.5278899E-04   5.5681617E+05   -1.8291953E+00
   1.5349458E-04   5.5214372E+05   -1.8286768E+00
   1.5420343E-04   5.4751179E+05   -1.8281575E+00
   1.5491556E-04   5.4292001E+05   -1.8276374E+00
   1.5563098E-04   5.3836804E+05   -1.8271166E+00
   1.5634970E-04   5.3385551E+05   -1.8265951E+00
   1.5707174E-04   5.2938208E+05   -1.8260728E+00
   1.5779711E-04   5.2494740E+05   -1.8255498E+00
   1.5852584E-04   5.2055112E+05   -1.8250261E+00
   1.5925792E-04   5.1619290E+05   -1.8245017E+00
   1.5999339E-04   5.1187241E+05   -1.8239765E+00
   1.6073226E-04   5.0758932E+05   -1.8234506E+00
   1.6147454E-04   5.0334328E+05   -1.8229240E+00
   1.6222024E-04   4.9913397E+05   -1.8223967E+00
   1.6296939E-04   4.9496107E+05   -1.8218686E+00
   1.6372200E-04   4.9082425E+05   -1.8213399E+00
   1.6447809E-04   4.8672319E+05   -1.8208105E+00
   1.6523767E-04   4.8265758E+05   -1.8202804E+00
   1.6600075E-04   4.7862709E+05   -1.8197496E+00
   1.6676736E-04   4.7463142E+05   -1.8192181E+00
   1.6753751E-04   4.7067027E+05   -1.8186860E+00
   1.6831122E-04   4.6674331E+05   -1.8181532E+00
   1.6908849E-04   4.6285026E+05   -1.8176197E+00
   1.6986936E-04   4.5899081E+05   -1.8170855E+00
   1.7065384E-04   4.5516466E+05   -1.8165507E+00
   1.7144193E-04   4.5137152E+05   -1.8160152E+00
   1.7223367E-04   4.4761109E+05   -1.8154791E+00
   1.7302906E-04   4.4388309E+05   -1.8149423E+00
   1.7382813E-04   4.4018723E+05   -1.8144048E+00
   1.7463089E-04   4.3652322E+05   -1.8138668E+00
   1.7543735E-04   4.3289079E+05   -1.8133281E+00
   1.7624754E-04   4.2928965E+05   -1.8127888E+00
   1.7706147E-04   4.2571952E+05   -1.8122488E+00
   1.7787916E-04   4.2218014E+05   -1.8117082E+00
   1.7870062E-04   4.1867122E+05   -1.8111670E+00
   1.7952588E-04   4.1519250E+05   -1.8106252E+00
   1.8035495E-04   4.1174372E+05   -1.8100828E+00
   1.8118785E-04   4.0832460E+05   -1.8095398E+00
   1.8202459E-04   4.0493489E+05   -1.8089962E+00
   1.8286520E-04   4.0157433E+05   -1.8084520E+00
   1.8370969E-04   3.9824266E+05   -1.8079073E+00
   1.8455808E-04   3.9493961E+05   -1.8073619E+00
   1.8541039E-04   3.9166495E+05   -1.8068160E+00
   1.8626663E-04   3.8841842E+05   -1.8062695E+00
   1.8712683E-04   3.8519977E+05   -1.8057224E+00
   1.8799100E-04   3.8200876E+05   -1.8051747E+00
   1.8885917E-04   3.7884513E+05   -1.8046265E+00
   1.8973134E-04   3.7570866E+05   -1.8040778E+00
   1.9060754E-04   3.7259909E+05   -1.8035285E+00
   1.9148778E-04   3.6951620E+05   -1.8029786E+00
   1.9237209E-04   3.6645974E+05   -1.8024283E+00
   1.9326049E-04   3.6342948E+05   -1.8018774E+00
   1.9415299E-04   3.6042520E+05   -1.8013259E+00
   1.9504960E-04   3.5744667E+05   -1.8007740E+00
   1.9595036E-04   3.5449365E+05   -1.8002215E+00
   1.9685528E-04   3.5156592E+05   -1.7996685E+00
   1.9776438E-04   3.4866326E+05   -1.7991150E+00
   1.9867768E-04   3.4578544E+05   -1.7985610E+00
   1.9959519E-04   3.4293226E+05   -1.7980065E+00
   2.0051694E-04   3.4010348E+05   -1.7974515E+00
   2.0144295E-04   3.3729891E+05   -1.7968961E+00
   2.0237324E-04   3.3451832E+05   -1.7963401E+00
   2.0330782E-04   3.3176150E+05   -1.7957837E+00
   2.0424671E-04   3.2902824E+05   -1.7952268E+00
   2.0518995E-04   3.2631834E+05   -1.7946694E+00
   2.0613754E-04   3.2363159E+05   -1.7941116E+00
   2.0708950E-04   3.2096778E+05   -1.7935533E+00
   2.0804586E-04   3.1832673E+05   -1.7929946E+00
   2.0900664E-04   3.1570821E+05   -1.7924354E+00
   2.0997185E-04   3.1311205E+05   -1.7918758E+00
   2.1094152E-04   3.1053803E+05   -1.7913158E+00
   2.1191567E-04   3.0798597E+05   -1.7907553E+00
   2.1289432E-04   3.0545567E+05   -1.7901944E+00
   2.1387749E-04   3.0294694E+05   -1.7896331E+00
   2.1486520E-04   3.0045959E+05   -1.7890714E+00
   2.1585747E-04   2.9799344E+05   -1.7885093E+00
   2.1685432E-04   2.9554830E+05   -1.7879468E+00
   2.1785578E-04   2.9312397E+05   -1.7873839E+00
   2.1886186E-04   2.9072029E+05   -1.7868206E+00
   2.1987259E-04   2.8833707E+05   -1.7862569E+00
   2.2088798E-04   2.8597413E+05   -1.7856929E+00
   2.2190807E-04   2.8363129E+05   -1.7851284E+00
   2.2293286E-04   2.8130837E+05   -1.7845636E+00
   2.2396239E-04   2.7900521E+05   -1.7839985E+00
   2.2499667E-04   2.7672162E+05   -1.7834330E+00
   2.2603573E-04   2.7445744E+05   -1.7828671E+00
   2.2707958E-04   2.7221250E+05   -1.7823009E+00
   2.2812826E-04   2.6998662E+05   -1.7817344E+00
   2.2918178E-04   2.6777964E+05   -1.7811675E+00
   2.3024017E-04   2.6559140E+05   -1.7806003E+00
   2.3130344E-04   2.6342173E+05   -1.7800328E+00
   2.3237162E-04   2.6127046E+05   -1.7794649E+00
   2.3344474E-04   2.5913745E+05   -1.7788968E+00
   2.3452281E-04   2.5702252E+05   -1.7783284E+00
   2.3560586E-04   2.5492551E+05   -1.7777596E+00
   2.3669392E-04   2.5284628E+05   -1.7771906E+00
   2.3778699E-04   2.5078467E+05   -1.7766213E+00
   2.3888512E-04   2.4874052E+05   -1.7760517E+00
   2.3998831E-04   2.4671368E+05   -1.7754818E+00
   2.4109661E-04   2.4470399E+05   -1.7749116E+00
   2.4221001E-04   2.4271132E+05   -1.7743412E+00
   2.4332857E-04   2.4073550E+05   -1.7737706E+00
   2.4445228E-04   2.3877640E+05   -1.7731997E+00
   2.4558119E-04   2.3683386E+05   -1.7726285E+00
   2.4671531E-04   2.3490774E+05   -1.7720571E+00
   2.4785467E-04   2.3299791E+05   -1.7714855E+00
   2.4899928E-04   2.3110421E+05   -1.7709136E+00
   2.5014919E-04   2.2922650E+05   -1.7703416E+00
   2.5130440E-04   2.2736465E+05   -1.7697693E+00
   2.5246495E-04   2.2551852E+05   -1.7691968E+00
   2.5363086E-04   2.2368796E+05   -1.7686241E+00
   2.5480216E-04   2.2187285E+05   -1.7680512E+00
   2.5597886E-04   2.2007305E+05   -1.7674781E+00
   2.5716100E-04   2.1828843E+05   -1.7669048E+00
   2.5834859E-04   2.1651885E+05   -1.7663314E+00
   2.5954168E-04   2.1476419E+05   -1.7657577E+00
   2.6074027E-04   2.1302430E+05   -1.7651840E+00
   2.6194439E-04   2.1129907E+05   -1.7646100E+00
   2.6315408E-04   2.0958837E+05   -1.7640359E+00
   2.6436935E-04   2.0789207E+05   -1.7634616E+00
   2.6559024E-04   2.0621004E+05   -1.7628872E+00
   2.6681676E-04   2.0454216E+05   -1.7623127E+00
   2.6804895E-04   2.0288831E+05   -1.7617380E+00
   2.6928683E-04   2.0124837E+05   -1.7611632E+00
   2.7053042E-04   1.9962221E+05   -1.7605883E+00
   2.7177976E-04   1.9800971E+05   -1.7600133E+00
   2.7303487E-04   1.9641076E+05   -1.7594382E+00
   2.7429577E-04   1.9482524E+05   -1.7588629E+00
   2.7556250E-04   1.9325303E+05   -1.7582876E+00
   2.7683507E-04   1.9169401E+05   -1.7577122E+00
   2.7811353E-04   1.9014808E+05   -1.7571367E+00
   2.7939788E-04   1.8861511E+05   -1.7565611E+00
   2.8068817E-04   1.8709500E+05   -1.7559855E+00
   2.8198442E-04   1.8558763E+05   -1.7554098E+00
   2.8328665E-04   1.8409290E+05   -1.7548340E+00
   2.8459490E-04   1.8261068E+05   -1.7542582E+00
   2.8590919E-04   1.8114089E+05   -1.7536823E+00
   2.8722955E-04   1.7968340E+05   -1.7531064E+00
   2.8855600E-04   1.7823810E+05   -1.7525305E+00
   2.8988859E-04   1.7680491E+05   -1.7519545E+00
   2.9122732E-04   1.7538370E+05   -1.7513785E+00
   2.9257224E-04   1.7397438E+05   -1.7508025E+00
   2.9392337E-04   1.7257684E+05   -1.7502265E+00
   2.9528074E-04   1.7119098E+05   -1.7496505E+00
   2.9664438E-04   1.6981671E+05   -1.7490745E+00
   2.9801431E-04   1.6845391E+05   -1.7484985E+00
   2.9939057E-04   1.6710249E+05   -1.7479225E+00
   3.0077319E-04   1.6576235E+05   -1.7473466E+00
   3.0216219E-04   1.6443340E+05   -1.7467706E+00
   3.0355761E-04   1.6311554E+05   -1.7461947E+00
   3.0495947E-04   1.6180866E+05   -1.7456189E+00
   3.0636780E-04   1.6051268E+05   -1.7450431E+00
   3.0778264E-04   1.5922751E+05   -1.7444673E+00
   3.0920401E-04   1.5795304E+05   -1.7438916E+00
   3.1063195E-04   1.5668919E+05   -1.7433159E+00
   3.1206648E-04   1.5543587E+05   -1.7427404E+00
   3.1350764E-04   1.5419298E+05   -1.7421649E+00
   3.1495545E-04   1.5296043E+05   -1.7415895E+00
   3.1640994E-04   1.5173814E+05   -1.7410141E+00
   3.1787116E-04   1.5052601E+05   -1.7404389E+00
   3.1933912E-04   1.4932397E+05   -1.7398638E+00
   3.2081386E-04   1.4813191E+05   -1.7392888E+00
   3.2229541E-04   1.4694976E+05   -1.7387139E+00
   3.2378381E-04   1.4577743E+05   -1.7381391E+00
   3.2527908E-04   1.4461484E+05   -1.7375644E+00
   3.2678125E-04   1.4346189E+05   -1.7369899E+00
   3.2829036E-04   1.4231852E+05   -1.7364155E+00
   3.2980644E-04   1.4118463E+05   -1.7358412E+00
   3.3132952E-04   1.4006015E+05   -1.7352671E+00
   3.3285963E-04   1.3894498E+05   -1.7346932E+00
   3.3439681E-04   1.3783907E+05   -1.7341194E+00
   3.3594109E-04   1.3674232E+05   -1.7335458E+00
   3.3749250E-04   1.3565465E+05   -1.7329723E+00
   3.3905108E-04   1.3457599E+05   -1.7323991E+00
   3.4061685E-04   1.3350626E+05   -1.7318260E+00
   3.4218986E-04   1.3244538E+05   -1.7312531E+00
   3.4377013E-04   1.3139328E+05   -1.7306804E+00
   3.4535769E-04   1.3034988E+05   -1.7301079E+00
   3.4695259E-04   1.2931510E+05   -1.7295356E+00
   3.4855485E-04   1.2828888E+05   -1.7289636E+00
   3.5016452E-04   1.2727114E+05   -1.7283917E+00
   3.5178161E-04   1.2626180E+05   -1.7278201E+00
   3.5340618E-04   1.2526080E+05   -1.7272487E+00
   3.5503824E-04   1.2426807E+05   -1.7266776E+00
   3.5667785E-04   1.2328352E+05   -1.7261067E+00
   3.5832502E-04   1.2230710E+05   -1.7255360E+00
   3.5997981E-04   1.2133873E+05   -1.7249656E+00
   3.6164223E-04   1.2037834E+05   -1.7243955E+00
   3.6331233E-04   1.1942587E+05   -1.7238256E+00
   3.6499015E-04   1.1848124E+05   -1.7232560E+00
   3.6667571E-04   1.1754440E+05   -1.7226867E+00
   3.6836906E-04   1.1661526E+05   -1.7221177E+00
   3.7007022E-04   1.1569378E+05   -1.7215490E+00
   3.7177925E-04   1.1477988E+05   -1.7209805E+00
   3.7349616E-04   1.1387349E+05   -1.7204124E+00
   3.7522101E-04   1.1297456E+05   -1.7198446E+00
   3.7695382E-04   1.1208302E+05   -1.7192771E+00
   3.7869463E-04   1.1119880E+05   -1.7187099E+00
   3.8044348E-04   1.1032185E+05   -1.7181430E+00
   3.8220041E-04   1.0945210E+05   -1.7175765E+00
   3.8396545E-04   1.0858949E+05   -1.7170103E+00
   3.8573864E-04   1.0773396E+05   -1.7164445E+00
   3.8752002E-04   1.0688545E+05   -1.7158790E+00
   3.8930963E-04   1.0604390E+05   -1.7153138E+00
   3.9110750E-04   1.0520924E+05   -1.7147490E+00
   3.9291368E-04   1.0438143E+05   -1.7141846E+00
   3.9472820E-04   1.0356040E+05   -1.7136206E+00
   3.9655109E-04   1.0274610E+05   -1.7130569E+00
   3.9838241E-04   1.0193846E+05   -1.7124936E+00
   4.0022218E-04   1.0113744E+05   -1.7119307E+00
   4.0207045E-04   1.0034296E+05   -1.7113682E+00
   4.0392725E-04   9.9554992E+04   -1.7108061E+00
   4.0579263E-04   9.8773463E+04   -1.7102444E+00
   4.0766662E-04   9.7998323E+04   -1.7096831E+00
   4.0954927E-04   9.7229517E+04   -1.7091223E+00
   4.1144061E-04   9.6466991E+04   -1.7085618E+00
   4.1334068E-04   9.5710693E+04   -1.7080018E+00
   4.1524953E-04   9.4960569E+04   -1.7074422E+00
   4.1716720E-04   9.4216567E+04   -1.7068830E+00
   4.1909372E-04   9.3478635E+04   -1.7063243E+00
   4.2102914E-04   9.2746721E+04   -1.7057661E+00
   4.2297350E-04   9.2020774E+04   -1.7052083E+00
   4.2492683E-04   9.1300744E+04   -1.7046509E+00
   4.2688919E-04   9.0586581E+04   -1.7040940E+00
   4.2886061E-04   8.9878234E+04   -1.7035376E+00
   4.3084113E-04   8.9175655E+04   -1.7029817E+00
   4.3283080E-04   8.8478795E+04   -1.7024262E+00
   4.3482966E-04   8.7787604E+04   -1.7018713E+00
   4.3683775E-04   8.7102036E+04   -1.7013168E+00
   4.3885511E-04   8.6422042E+04   -1.7007628E+00
   4.4088179E-04   8.5747576E+04   -1.7002093E+00
   4.4291783E-04   8.5078590E+04   -1.6996563E+00
   4.4496327E-04   8.4415039E+04   -1.6991039E+00
   4.4701816E-04   8.3756876E+04   -1.6985519E+00
   4.4908253E-04   8.3104055E+04   -1.6980005E+00
   4.5115644E-04   8.2456533E+04   -1.6974496E+00
   4.5323993E-04   8.1814263E+04   -1.6968993E+00
   4.5533304E-04   8.1177202E+04   -1.6963494E+00
   4.5743582E-04   8.0545305E+04   -1.6958002E+00
   4.5954830E-04   7.9918529E+04   -1.6952514E+00
   4.6167054E-04   7.9296831E+04   -1.6947032E+00
   4.6380259E-04   7.8680168E+04   -1.6941556E+00
   4.6594448E-04   7.8068497E+04   -1.6936085E+00
   4.6809626E-04   7.7461777E+04   -1.6930620E+00
   4.7025797E-04   7.6859965E+04   -1.6925161E+00
   4.7242967E-04   7.6263021E+04   -1.6919708E+00
   4.7461140E-04   7.5670903E+04   -1.6914260E+00
   4.7680321E-04   7.5083570E+04   -1.6908818E+00
   4.7900514E-04   7.4500983E+04   -1.6903382E+00
   4.8121723E-04   7.3923101E+04   -1.6897953E+00
   4.8343954E-04   7.3349885E+04   -1.6892529E+00
   4.8567212E-04   7.2781296E+04   -1.6887111E+00
   4.8791500E-04   7.2217295E+04   -1.6881699E+00
   4.9016825E-04   7.1657843E+04   -1.6876294E+00
   4.9243189E-04   7.1102901E+04   -1.6870894E+00
   4.9470600E-04   7.0552433E+04   -1.6865501E+00
   4.9699060E-04   7.0006400E+04   -1.6860114E+00
   4.9928575E-04   6.9464766E+04   -1.6854734E+00
   5.0159151E-04   6.8927493E+04   -1.6849360E+00
   5.0390791E-04   6.8394544E+04   -1.6843992E+00
   5.0623501E-04   6.7865884E+04   -1.6838631E+00
   5.0857286E-04   6.7341477E+04   -1.6833276E+00
   5.1092150E-04   6.6821286E+04   -1.6827928E+00
   5.1328099E-04   6.6305278E+04   -1.6822586E+00
   5.1565137E-04   6.5793416E+04   -1.6817252E+00
   5.1803270E-04   6.5285665E+04   -1.6811923E+00
   5.2042503E-04   6.4781992E+04   -1.6806602E+00
   5.2282841E-04   6.4282363E+04   -1.6801287E+00
   5.2524289E-04   6.3786742E+04   -1.6795980E+00
   5.2766851E-04   6.3295098E+04   -1.6790679E+00
   5.3010534E-04   6.2807396E+04   -1.6785385E+00
   5.3255342E-04   6.2323605E+04   -1.6780097E+00
   5.3501281E-04   6.1843690E+04   -1.6774817E+00
   5.3748356E-04   6.1367620E+04   -1.6769544E+00
   5.3996571E-04   6.0895362E+04   -1.6764278E+00
   5.4245933E-04   6.0426886E+04   -1.6759020E+00
   5.4496446E-04   5.9962158E+04   -1.6753768E+00
   5.4748117E-04   5.9501149E+04   -1.6748524E+00
   5.5000949E-04   5.9043827E+04   -1.6743286E+00
   5.5254949E-04   5.8590161E+04   -1.6738056E+00
   5.5510123E-04   5.8140120E+04   -1.6732834E+00
   5.5766474E-04   5.7693675E+04   -1.6727619E+00
   5.6024010E-04   5.7250796E+04   -1.6722411E+00
   5.6282734E-04   5.6811453E+04   -1.6717211E+00
   5.6542654E-04   5.6375616E+04   -1.6712018E+00
   5.6803774E-04   5.5943256E+04   -1.6706832E+00
   5.7066099E-04   5.5514345E+04   -1.6701654E+00
   5.7329637E-04   5.5088854E+04   -1.6696484E+00
   5.7594391E-04   5.4666754E+04   -1.6691322E+00
   5.7860368E-04   5.4248017E+04   -1.6686167E+00
   5.8127573E-04   5.3832616E+04   -1.6681020E+00
   5.8396012E-04   5.3420522E+04   -1.6675880E+00
   5.8665691E-04   5.3011708E+04   -1.6670749E+00
   5.8936616E-04   5.2606146E+04   -1.6665625E+00
   5.9208791E-04   5.2203811E+04   -1.6660509E+00
   5.9482223E-04   5.1804675E+04   -1.6655401E+00
   5.9756919E-04   5.1408711E+04   -1.6650301E+00
   6.0032882E-04   5.1015894E+04   -1.6645209E+00
   6.0310120E-04   5.0626196E+04   -1.6640125E+00
   6.0588639E-04   5.0239594E+04   -1.6635048E+00
   6.0868443E-04   4.9856059E+04   -1.6629980E+00
   6.1149540E-04   4.9475569E+04   -1.6624921E+00
   6.1431935E-04   4.9098096E+04   -1.6619869E+00
   6.1715634E-04   4.8723617E+04   -1.6614825E+00
   6.2000644E-04   4.8352107E+04   -1.6609790E+00
   6.2286969E-04   4.7983540E+04   -1.6604763E+00
