#        a       HoverH0(a)       dlogHdloga_of_a(a)
   1.0000000E-04   1.1438814E+06   -1.8586454E+00
   1.0046181E-04   1.1341286E+06   -1.8581777E+00
   1.0092575E-04   1.1244615E+06   -1.8577091E+00
   1.0139184E-04   1.1148791E+06   -1.8572396E+00
   1.0186008E-04   1.1053808E+06   -1.8567692E+00
   1.0233048E-04   1.0959657E+06   -1.8562978E+00
   1.0280305E-04   1.0866333E+06   -1.8558255E+00
   1.0327781E-04   1.0773826E+06   -1.8553523E+00
   1.0375475E-04   1.0682130E+06   -1.8548782E+00
   1.0423390E-04   1.0591238E+06   -1.8544032E+00
   1.0471527E-04   1.0501143E+06   -1.8539272E+00
   1.0519885E-04   1.0411836E+06   -1.8534503E+00
   1.0568467E-04   1.0323312E+06   -1.8529725E+00
   1.0617274E-04   1.0235563E+06   -1.8524938E+00
   1.0666305E-04   1.0148582E+06   -1.8520142E+00
   1.0715563E-04   1.0062363E+06   -1.8515337E+00
   1.0765049E-04   9.9768978E+05   -1.8510523E+00
   1.0814763E-04   9.8921809E+05   -1.8505700E+00
   1.0864707E-04   9.8082051E+05   -1.8500869E+00
   1.0914881E-04   9.7249639E+05   -1.8496028E+00
   1.0965287E-04   9.6424507E+05   -1.8491178E+00
   1.1015926E-04   9.5606590E+05   -1.8486319E+00
   1.1066799E-04   9.4795823E+05   -1.8481452E+00
   1.1117906E-04   9.3992143E+05   -1.8476576E+00
   1.1169250E-04   9.3195486E+05   -1.8471691E+00
   1.1220831E-04   9.2405789E+05   -1.8466797E+00
   1.1272650E-04   9.1622990E+05   -1.8461894E+00
   1.1324708E-04   9.0847028E+05   -1.8456983E+00
   1.1377007E-04   9.0077842E+05   -1.8452063E+00
   1.1429547E-04   8.9315372E+05   -1.8447134E+00
   1.1482330E-04   8.8559556E+05   -1.8442197E+00
   1.1535356E-04   8.7810337E+05   -1.8437252E+00
   1.1588628E-04   8.7067654E+05   -1.8432297E+00
   1.1642145E-04   8.6331450E+05   -1.8427334E+00
   1.1695910E-04   8.5601667E+05   -1.8422363E+00
   1.1749923E-04   8.4878248E+05   -1.8417383E+00
   1.1804185E-04   8.4161135E+05   -1.8412395E+00
   1.1858698E-04   8.3450273E+05   -1.8407399E+00
   1.1913463E-04   8.2745606E+05   -1.8402394E+00
   1.1968481E-04   8.2047079E+05   -1.8397380E+00
   1.2023752E-04   8.1354636E+05   -1.8392359E+00
   1.2079279E-04   8.0668225E+05   -1.8387329E+00
   1.2135063E-04   7.9987790E+05   -1.8382291E+00
   1.2191104E-04   7.9313279E+05   -1.8377244E+00
   1.2247403E-04   7.8644639E+05   -1.8372190E+00
   1.2303963E-04   7.7981818E+05   -1.8367127E+00
   1.2360784E-04   7.7324764E+05   -1.8362057E+00
   1.2417868E-04   7.6673424E+05   -1.8356978E+00
   1.2475215E-04   7.6027750E+05   -1.8351891E+00
   1.2532826E-04   7.5387689E+05   -1.8346796E+00
   1.2590704E-04   7.4753193E+05   -1.8341694E+00
   1.2648850E-04   7.4124211E+05   -1.8336583E+00
   1.2707263E-04   7.3500695E+05   -1.8331464E+00
   1.2765947E-04   7.2882595E+05   -1.8326338E+00
   1.2824901E-04   7.2269865E+05   -1.8321204E+00
   1.2884128E-04   7.1662455E+05   -1.8316062E+00
   1.2943628E-04   7.1060319E+05   -1.8310912E+00
   1.3003403E-04   7.0463410E+05   -1.8305755E+00
   1.3063454E-04   6.9871681E+05   -1.8300590E+00
   1.3123783E-04   6.9285086E+05   -1.8295417E+00
   1.3184390E-04   6.8703579E+05   -1.8290237E+00
   1.3245277E-04   6.8127116E+05   -1.8285049E+00
   1.3306445E-04   6.7555651E+05   -1.8279853E+00
   1.3367895E-04   6.6989141E+05   -1.8274650E+00
   1.3429630E-04   6.6427540E+05   -1.8269440E+00
   1.3491649E-04   6.5870805E+05   -1.8264223E+00
   1.3553955E-04   6.5318894E+05   -1.8258997E+00
   1.3616548E-04   6.4771764E+05   -1.8253765E+00
   1.3679431E-04   6.4229371E+05   -1.8248525E+00
   1.3742604E-04   6.3691674E+05   -1.8243279E+00
   1.3806069E-04   6.3158631E+05   -1.8238025E+00
   1.3869827E-04   6.2630201E+05   -1.8232763E+00
   1.3933879E-04   6.2106343E+05   -1.8227495E+00
   1.3998227E-04   6.1587016E+05   -1.8222220E+00
   1.4062872E-04   6.1072180E+05   -1.8216937E+00
   1.4127816E-04   6.0561795E+05   -1.8211648E+00
   1.4193060E-04   6.0055822E+05   -1.8206351E+00
   1.4258605E-04   5.9554222E+05   -1.8201048E+00
   1.4324453E-04   5.9056956E+05   -1.8195738E+00
   1.4390605E-04   5.8563985E+05   -1.8190421E+00
   1.4457062E-04   5.8075271E+05   -1.8185097E+00
   1.4523826E-04   5.7590778E+05   -1.8179767E+00
   1.4590899E-04   5.7110466E+05   -1.8174430E+00
   1.4658281E-04   5.6634300E+05   -1.8169086E+00
   1.4725974E-04   5.6162242E+05   -1.8163736E+00
   1.4793981E-04   5.5694256E+05   -1.8158379E+00
   1.4862301E-04   5.5230306E+05   -1.8153015E+00
   1.4930936E-04   5.4770357E+05   -1.8147646E+00
   1.4999889E-04   5.4314372E+05   -1.8142269E+00
   1.5069160E-04   5.3862317E+05   -1.8136887E+00
   1.5138751E-04   5.3414157E+05   -1.8131498E+00
   1.5208663E-04   5.2969857E+05   -1.8126102E+00
   1.5278899E-04   5.2529384E+05   -1.8120701E+00
   1.5349458E-04   5.2092704E+05   -1.8115293E+00
   1.5420343E-04   5.1659782E+05   -1.8109880E+00
   1.5491556E-04   5.1230586E+05   -1.8104460E+00
   1.5563098E-04   5.0805083E+05   -1.8099034E+00
   1.5634970E-04   5.0383240E+05   -1.8093602E+00
   1.5707174E-04   4.9965024E+05   -1.8088164E+00
   1.5779711E-04   4.9550405E+05   -1.8082720E+00
   1.5852584E-04   4.9139349E+05   -1.8077270E+00
   1.5925792E-04   4.8731826E+05   -1.8071815E+00
   1.5999339E-04   4.8327803E+05   -1.8066354E+00
   1.6073226E-04   4.7927251E+05   -1.8060887E+00
   1.6147454E-04   4.7530139E+05   -1.8055414E+00
   1.6222024E-04   4.7136436E+05   -1.8049936E+00
   1.6296939E-04   4.6746113E+05   -1.8044453E+00
   1.6372200E-04   4.6359138E+05   -1.8038963E+00
   1.6447809E-04   4.5975484E+05   -1.8033469E+00
   1.6523767E-04   4.5595120E+05   -1.8027969E+00
   1.6600075E-04   4.5218017E+05   -1.8022463E+00
   1.6676736E-04   4.4844147E+05   -1.8016952E+00
   1.6753751E-04   4.4473481E+05   -1.8011436E+00
   1.6831122E-04   4.4105992E+05   -1.8005915E+00
   1.6908849E-04   4.3741650E+05   -1.8000389E+00
   1.6986936E-04   4.3380428E+05   -1.7994857E+00
   1.7065384E-04   4.3022299E+05   -1.7989321E+00
   1.7144193E-04   4.2667235E+05   -1.7983779E+00
   1.7223367E-04   4.2315210E+05   -1.7978233E+00
   1.7302906E-04   4.1966197E+05   -1.7972681E+00
   1.7382813E-04   4.1620169E+05   -1.7967125E+00
   1.7463089E-04   4.1277099E+05   -1.7961564E+00
   1.7543735E-04   4.0936963E+05   -1.7955999E+00
   1.7624754E-04   4.0599733E+05   -1.7950428E+00
   1.7706147E-04   4.0265385E+05   -1.7944853E+00
   1.7787916E-04   3.9933893E+05   -1.7939274E+00
   1.7870062E-04   3.9605232E+05   -1.7933690E+00
   1.7952588E-04   3.9279376E+05   -1.7928101E+00
   1.8035495E-04   3.8956302E+05   -1.7922508E+00
   1.8118785E-04   3.8635985E+05   -1.7916911E+00
   1.8202459E-04   3.8318401E+05   -1.7911309E+00
   1.8286520E-04   3.8003525E+05   -1.7905703E+00
   1.8370969E-04   3.7691335E+05   -1.7900093E+00
   1.8455808E-04   3.7381805E+05   -1.7894479E+00
   1.8541039E-04   3.7074913E+05   -1.7888860E+00
   1.8626663E-04   3.6770636E+05   -1.7883238E+00
   1.8712683E-04   3.6468951E+05   -1.7877612E+00
   1.8799100E-04   3.6169835E+05   -1.7871981E+00
   1.8885917E-04   3.5873265E+05   -1.7866347E+00
   1.8973134E-04   3.5579219E+05   -1.7860709E+00
   1.9060754E-04   3.5287675E+05   -1.7855068E+00
   1.9148778E-04   3.4998611E+05   -1.7849422E+00
   1.9237209E-04   3.4712005E+05   -1.7843773E+00
   1.9326049E-04   3.4427836E+05   -1.7838121E+00
   1.9415299E-04   3.4146083E+05   -1.7832464E+00
   1.9504960E-04   3.3866723E+05   -1.7826805E+00
   1.9595036E-04   3.3589737E+05   -1.7821142E+00
   1.9685528E-04   3.3315103E+05   -1.7815476E+00
   1.9776438E-04   3.3042800E+05   -1.7809806E+00
   1.9867768E-04   3.2772809E+05   -1.7804133E+00
   1.9959519E-04   3.2505109E+05   -1.7798457E+00
   2.0051694E-04   3.2239680E+05   -1.7792778E+00
   2.0144295E-04   3.1976502E+05   -1.7787095E+00
   2.0237324E-04   3.1715556E+05   -1.7781410E+00
   2.0330782E-04   3.1456821E+05   -1.7775722E+00
   2.0424671E-04   3.1200279E+05   -1.7770031E+00
   2.0518995E-04   3.0945911E+05   -1.7764337E+00
   2.0613754E-04   3.0693696E+05   -1.7758640E+00
   2.0708950E-04   3.0443618E+05   -1.7752940E+00
   2.0804586E-04   3.0195656E+05   -1.7747238E+00
   2.0900664E-04   2.9949792E+05   -1.7741534E+00
   2.0997185E-04   2.9706009E+05   -1.7735826E+00
   2.1094152E-04   2.9464287E+05   -1.7730117E+00
   2.1191567E-04   2.9224609E+05   -1.7724404E+00
   2.1289432E-04   2.8986957E+05   -1.7718690E+00
   2.1387749E-04   2.8751313E+05   -1.7712973E+00
   2.1486520E-04   2.8517660E+05   -1.7707254E+00
   2.1585747E-04   2.8285981E+05   -1.7701533E+00
   2.1685432E-04   2.8056257E+05   -1.7695809E+00
   2.1785578E-04   2.7828473E+05   -1.7690084E+00
   2.1886186E-04   2.7602611E+05   -1.7684356E+00
   2.1987259E-04   2.7378654E+05   -1.7678627E+00
   2.2088798E-04   2.7156586E+05   -1.7672895E+00
   2.2190807E-04   2.6936391E+05   -1.7667162E+00
   2.2293286E-04   2.6718051E+05   -1.7661427E+00
   2.2396239E-04   2.6501551E+05   -1.7655691E+00
   2.2499667E-04   2.6286876E+05   -1.7649952E+00
   2.2603573E-04   2.6074008E+05   -1.7644212E+00
   2.2707958E-04   2.5862932E+05   -1.7638471E+00
   2.2812826E-04   2.5653632E+05   -1.7632728E+00
   2.2918178E-04   2.5446094E+05   -1.7626984E+00
   2.3024017E-04   2.5240302E+05   -1.7621238E+00
   2.3130344E-04   2.5036240E+05   -1.7615491E+00
   2.3237162E-04   2.4833894E+05   -1.7609743E+00
   2.3344474E-04   2.4633249E+05   -1.7603994E+00
   2.3452281E-04   2.4434289E+05   -1.7598243E+00
   2.3560586E-04   2.4237001E+05   -1.7592492E+00
   2.3669392E-04   2.4041369E+05   -1.7586739E+00
   2.3778699E-04   2.3847379E+05   -1.7580986E+00
   2.3888512E-04   2.3655018E+05   -1.7575232E+00
   2.3998831E-04   2.3464270E+05   -1.7569477E+00
   2.4109661E-04   2.3275122E+05   -1.7563721E+00
   2.4221001E-04   2.3087561E+05   -1.7557965E+00
   2.4332857E-04   2.2901571E+05   -1.7552207E+00
   2.4445228E-04   2.2717140E+05   -1.7546450E+00
   2.4558119E-04   2.2534254E+05   -1.7540692E+00
   2.4671531E-04   2.2352899E+05   -1.7534933E+00
   2.4785467E-04   2.2173063E+05   -1.7529174E+00
   2.4899928E-04   2.1994733E+05   -1.7523415E+00
   2.5014919E-04   2.1817894E+05   -1.7517655E+00
   2.5130440E-04   2.1642535E+05   -1.7511896E+00
   2.5246495E-04   2.1468642E+05   -1.7506136E+00
   2.5363086E-04   2.1296202E+05   -1.7500376E+00
   2.5480216E-04   2.1125204E+05   -1.7494616E+00
   2.5597886E-04   2.0955635E+05   -1.7488856E+00
   2.5716100E-04   2.0787481E+05   -1.7483096E+00
   2.5834859E-04   2.0620732E+05   -1.7477337E+00
   2.5954168E-04   2.0455375E+05   -1.7471577E+00
   2.6074027E-04   2.0291397E+05   -1.7465818E+00
   2.6194439E-04   2.0128788E+05   -1.7460060E+00
   2.6315408E-04   1.9967534E+05   -1.7454301E+00
   2.6436935E-04   1.9807625E+05   -1.7448544E+00
   2.6559024E-04   1.9649049E+05   -1.7442786E+00
   2.6681676E-04   1.9491793E+05   -1.7437030E+00
   2.6804895E-04   1.9335848E+05   -1.7431274E+00
   2.6928683E-04   1.9181201E+05   -1.7425519E+00
   2.7053042E-04   1.9027842E+05   -1.7419764E+00
   2.7177976E-04   1.8875758E+05   -1.7414011E+00
   2.7303487E-04   1.8724940E+05   -1.7408258E+00
   2.7429577E-04   1.8575376E+05   -1.7402506E+00
   2.7556250E-04   1.8427056E+05   -1.7396755E+00
   2.7683507E-04   1.8279968E+05   -1.7391006E+00
   2.7811353E-04   1.8134103E+05   -1.7385257E+00
   2.7939788E-04   1.7989449E+05   -1.7379510E+00
   2.8068817E-04   1.7845996E+05   -1.7373764E+00
   2.8198442E-04   1.7703734E+05   -1.7368019E+00
   2.8328665E-04   1.7562653E+05   -1.7362276E+00
   2.8459490E-04   1.7422742E+05   -1.7356534E+00
   2.8590919E-04   1.7283991E+05   -1.7350794E+00
   2.8722955E-04   1.7146390E+05   -1.7345055E+00
   2.8855600E-04   1.7009930E+05   -1.7339318E+00
   2.8988859E-04   1.6874601E+05   -1.7333583E+00
   2.9122732E-04   1.6740392E+05   -1.7327849E+00
   2.9257224E-04   1.6607295E+05   -1.7322117E+00
   2.9392337E-04   1.6475299E+05   -1.7316387E+00
   2.9528074E-04   1.6344396E+05   -1.7310659E+00
   2.9664438E-04   1.6214576E+05   -1.7304933E+00
   2.9801431E-04   1.6085829E+05   -1.7299209E+00
   2.9939057E-04   1.5958146E+05   -1.7293488E+00
   3.0077319E-04   1.5831519E+05   -1.7287768E+00
   3.0216219E-04   1.5705938E+05   -1.7282050E+00
   3.0355761E-04   1.5581394E+05   -1.7276335E+00
   3.0495947E-04   1.5457878E+05   -1.7270622E+00
   3.0636780E-04   1.5335382E+05   -1.7264912E+00
   3.0778264E-04   1.5213897E+05   -1.7259204E+00
   3.0920401E-04   1.5093413E+05   -1.7253499E+00
   3.1063195E-04   1.4973924E+05   -1.7247796E+00
   3.1206648E-04   1.4855419E+05   -1.7242096E+00
   3.1350764E-04   1.4737890E+05   -1.7236398E+00
   3.1495545E-04   1.4621330E+05   -1.7230704E+00
   3.1640994E-04   1.4505730E+05   -1.7225012E+00
   3.1787116E-04   1.4391082E+05   -1.7219323E+00
   3.1933912E-04   1.4277377E+05   -1.7213637E+00
   3.2081386E-04   1.4164607E+05   -1.7207954E+00
   3.2229541E-04   1.4052765E+05   -1.7202273E+00
   3.2378381E-04   1.3941843E+05   -1.7196597E+00
   3.2527908E-04   1.3831832E+05   -1.7190923E+00
   3.2678125E-04   1.3722726E+05   -1.7185252E+00
   3.2829036E-04   1.3614515E+05   -1.7179585E+00
   3.2980644E-04   1.3507193E+05   -1.7173921E+00
   3.3132952E-04   1.3400752E+05   -1.7168261E+00
   3.3285963E-04   1.3295184E+05   -1.7162604E+00
   3.3439681E-04   1.3190483E+05   -1.7156950E+00
   3.3594109E-04   1.3086640E+05   -1.7151300E+00
   3.3749250E-04   1.2983648E+05   -1.7145654E+00
   3.3905108E-04   1.2881501E+05   -1.7140011E+00
   3.4061685E-04   1.2780190E+05   -1.7134372E+00
   3.4218986E-04   1.2679709E+05   -1.7128737E+00
   3.4377013E-04   1.2580051E+05   -1.7123106E+00
   3.4535769E-04   1.2481208E+05   -1.7117478E+00
   3.4695259E-04   1.2383174E+05   -1.7111855E+00
   3.4855485E-04   1.2285942E+05   -1.7106236E+00
   3.5016452E-04   1.2189505E+05   -1.7100620E+00
   3.5178161E-04   1.2093856E+05   -1.7095009E+00
   3.5340618E-04   1.1998988E+05   -1.7089402E+00
   3.5503824E-04   1.1904896E+05   -1.7083799E+00
   3.5667785E-04   1.1811572E+05   -1.7078201E+00
   3.5832502E-04   1.1719009E+05   -1.7072607E+00
   3.5997981E-04   1.1627202E+05   -1.7067017E+00
   3.6164223E-04   1.1536144E+05   -1.7061431E+00
   3.6331233E-04   1.1445829E+05   -1.7055851E+00
   3.6499015E-04   1.1356250E+05   -1.7050274E+00
   3.6667571E-04   1.1267400E+05   -1.7044703E+00
   3.6836906E-04   1.1179275E+05   -1.7039136E+00
   3.7007022E-04   1.1091867E+05   -1.7033574E+00
   3.7177925E-04   1.1005171E+05   -1.7028016E+00
   3.7349616E-04   1.0919180E+05   -1.7022463E+00
   3.7522101E-04   1.0833890E+05   -1.7016916E+00
   3.7695382E-04   1.0749292E+05   -1.7011373E+00
   3.7869463E-04   1.0665383E+05   -1.7005835E+00
   3.8044348E-04   1.0582155E+05   -1.7000302E+00
   3.8220041E-04   1.0499604E+05   -1.6994774E+00
   3.8396545E-04   1.0417723E+05   -1.6989252E+00
   3.8573864E-04   1.0336508E+05   -1.6983734E+00
   3.8752002E-04   1.0255951E+05   -1.6978222E+00
   3.8930963E-04   1.0176048E+05   -1.6972715E+00
   3.9110750E-04   1.0096793E+05   -1.6967214E+00
   3.9291368E-04   1.0018181E+05   -1.6961718E+00
   3.9472820E-04   9.9402056E+04   -1.6956227E+00
   3.9655109E-04   9.8628624E+04   -1.6950742E+00
   3.9838241E-04   9.7861457E+04   -1.6945262E+00
   4.0022218E-04   9.7100503E+04   -1.6939788E+00
   4.0207045E-04   9.6345708E+04   -1.6934320E+00
   4.0392725E-04   9.5597022E+04   -1.6928857E+00
   4.0579263E-04   9.4854392E+04   -1.6923400E+00
   4.0766662E-04   9.4117768E+04   -1.6917949E+00
   4.0954927E-04   9.3387098E+04   -1.6912503E+00
   4.1144061E-04   9.2662333E+04   -1.6907064E+00
   4.1334068E-04   9.1943424E+04   -1.6901630E+00
   4.1524953E-04   9.1230320E+04   -1.6896203E+00
   4.1716720E-04   9.0522973E+04   -1.6890781E+00
   4.1909372E-04   8.9821335E+04   -1.6885366E+00
   4.2102914E-04   8.9125357E+04   -1.6879956E+00
   4.2297350E-04   8.8434992E+04   -1.6874553E+00
   4.2492683E-04   8.7750194E+04   -1.6869156E+00
   4.2688919E-04   8.7070914E+04   -1.6863766E+00
   4.2886061E-04   8.6397108E+04   -1.6858381E+00
   4.3084113E-04   8.5728728E+04   -1.6853003E+00
   4.3283080E-04   8.5065729E+04   -1.6847632E+00
   4.3482966E-04   8.4408067E+04   -1.6842266E+00
   4.3683775E-04   8.3755696E+04   -1.6836908E+00
   4.3885511E-04   8.3108573E+04   -1.6831556E+00
   4.4088179E-04   8.2466652E+04   -1.6826210E+00
   4.4291783E-04   8.1829891E+04   -1.6820871E+00
   4.4496327E-04   8.1198246E+04   -1.6815539E+00
   4.4701816E-04   8.0571675E+04   -1.6810213E+00
   4.4908253E-04   7.9950134E+04   -1.6804894E+00
   4.5115644E-04   7.9333583E+04   -1.6799582E+00
   4.5323993E-04   7.8721979E+04   -1.6794277E+00
   4.5533304E-04   7.8115281E+04   -1.6788979E+00
   4.5743582E-04   7.7513447E+04   -1.6783688E+00
   4.5954830E-04   7.6916438E+04   -1.6778403E+00
   4.6167054E-04   7.6324213E+04   -1.6773126E+00
   4.6380259E-04   7.5736731E+04   -1.6767856E+00
   4.6594448E-04   7.5153954E+04   -1.6762593E+00
   4.6809626E-04   7.4575842E+04   -1.6757337E+00
   4.7025797E-04   7.4002356E+04   -1.6752088E+00
   4.7242967E-04   7.3433458E+04   -1.6746846E+00
   4.7461140E-04   7.2869109E+04   -1.6741612E+00
   4.7680321E-04   7.2309271E+04   -1.6736385E+00
   4.7900514E-04   7.1753907E+04   -1.6731165E+00
   4.8121723E-04   7.1202979E+04   -1.6725952E+00
   4.8343954E-04   7.0656452E+04   -1.6720747E+00
   4.8567212E-04   7.0114287E+04   -1.6715550E+00
   4.8791500E-04   6.9576449E+04   -1.6710360E+00
   4.9016825E-04   6.9042902E+04   -1.6705178E+00
   4.9243189E-04   6.8513609E+04   -1.6700003E+00
   4.9470600E-04   6.7988537E+04   -1.6694835E+00
   4.9699060E-04   6.7467648E+04   -1.6689676E+00
   4.9928575E-04   6.6950910E+04   -1.6684524E+00
   5.0159151E-04   6.6438286E+04   -1.6679380E+00
   5.0390791E-04   6.5929744E+04   -1.6674243E+00
   5.0623501E-04   6.5425250E+04   -1.6669115E+00
   5.0857286E-04   6.4924768E+04   -1.6663994E+00
   5.1092150E-04   6.4428268E+04   -1.6658881E+00
   5.1328099E-04   6.3935714E+04   -1.6653776E+00
   5.1565137E-04   6.3447076E+04   -1.6648679E+00
   5.1803270E-04   6.2962320E+04   -1.6643590E+00
   5.2042503E-04   6.2481414E+04   -1.6638509E+00
   5.2282841E-04   6.2004325E+04   -1.6633436E+00
   5.2524289E-04   6.1531024E+04   -1.6628371E+00
   5.2766851E-04   6.1061478E+04   -1.6623314E+00
   5.3010534E-04   6.0595656E+04   -1.6618266E+00
   5.3255342E-04   6.0133527E+04   -1.6613225E+00
   5.3501281E-04   5.9675061E+04   -1.6608193E+00
   5.3748356E-04   5.9220228E+04   -1.6603169E+00
   5.3996571E-04   5.8768998E+04   -1.6598153E+00
   5.4245933E-04   5.8321340E+04   -1.6593146E+00
   5.4496446E-04   5.7877226E+04   -1.6588147E+00
   5.4748117E-04   5.7436625E+04   -1.6583156E+00
   5.5000949E-04   5.6999510E+04   -1.6578174E+00
   5.5254949E-04   5.6565851E+04   -1.6573200E+00
   5.5510123E-04   5.6135621E+04   -1.6568235E+00
   5.5766474E-04   5.5708789E+04   -1.6563278E+00
   5.6024010E-04   5.5285329E+04   -1.6558330E+00
   5.6282734E-04   5.4865213E+04   -1.6553390E+00
   5.6542654E-04   5.4448414E+04   -1.6548459E+00
   5.6803774E-04   5.4034903E+04   -1.6543537E+00
   5.7066099E-04   5.3624654E+04   -1.6538623E+00
   5.7329637E-04   5.3217641E+04   -1.6533718E+00
   5.7594391E-04   5.2813836E+04   -1.6528822E+00
   5.7860368E-04   5.2413213E+04   -1.6523934E+00
   5.8127573E-04   5.2015746E+04   -1.6519055E+00
   5.8396012E-04   5.1621409E+04   -1.6514185E+00
   5.8665691E-04   5.1230176E+04   -1.6509324E+00
   5.8936616E-04   5.0842023E+04   -1.6504472E+00
   5.9208791E-04   5.0456923E+04   -1.6499628E+00
   5.9482223E-04   5.0074851E+04   -1.6494794E+00
   5.9756919E-04   4.9695783E+04   -1.6489968E+00
   6.0032882E-04   4.9319695E+04   -1.6485151E+00
   6.0310120E-04   4.8946561E+04   -1.6480344E+00
   6.0588639E-04   4.8576357E+04   -1.6475545E+00
   6.0868443E-04   4.8209060E+04   -1.6470755E+00
   6.1149540E-04   4.7844646E+04   -1.6465975E+00
   6.1431935E-04   4.7483091E+04   -1.6461203E+00
   6.1715634E-04   4.7124371E+04   -1.6456441E+00
   6.2000644E-04   4.6768464E+04   -1.6451688E+00
   6.2286969E-04   4.6415347E+04   -1.6446944E+00
