#        a       HoverH0(a)       dlogHdloga_of_a(a)
   1.0000000E-04   1.0584093E+06   -1.8788938E+00
   1.0046181E-04   1.0492872E+06   -1.8784705E+00
   1.0092575E-04   1.0402458E+06   -1.8780461E+00
   1.0139184E-04   1.0312844E+06   -1.8776207E+00
   1.0186008E-04   1.0224021E+06   -1.8771944E+00
   1.0233048E-04   1.0135984E+06   -1.8767670E+00
   1.0280305E-04   1.0048724E+06   -1.8763386E+00
   1.0327781E-04   9.9622355E+05   -1.8759093E+00
   1.0375475E-04   9.8765107E+05   -1.8754789E+00
   1.0423390E-04   9.7915430E+05   -1.8750476E+00
   1.0471527E-04   9.7073256E+05   -1.8746152E+00
   1.0519885E-04   9.6238518E+05   -1.8741819E+00
   1.0568467E-04   9.5411148E+05   -1.8737475E+00
   1.0617274E-04   9.4591080E+05   -1.8733122E+00
   1.0666305E-04   9.3778250E+05   -1.8728759E+00
   1.0715563E-04   9.2972591E+05   -1.8724385E+00
   1.0765049E-04   9.2174040E+05   -1.8720002E+00
   1.0814763E-04   9.1382533E+05   -1.8715610E+00
   1.0864707E-04   9.0598005E+05   -1.8711207E+00
   1.0914881E-04   8.9820396E+05   -1.8706794E+00
   1.0965287E-04   8.9049642E+05   -1.8702372E+00
   1.1015926E-04   8.8285682E+05   -1.8697940E+00
   1.1066799E-04   8.7528454E+05   -1.8693498E+00
   1.1117906E-04   8.6777900E+05   -1.8689046E+00
   1.1169250E-04   8.6033958E+05   -1.8684584E+00
   1.1220831E-04   8.5296569E+05   -1.8680113E+00
   1.1272650E-04   8.4565675E+05   -1.8675632E+00
   1.1324708E-04   8.3841217E+05   -1.8671141E+00
   1.1377007E-04   8.3123137E+05   -1.8666641E+00
   1.1429547E-04   8.2411379E+05   -1.8662131E+00
   1.1482330E-04   8.1705886E+05   -1.8657611E+00
   1.1535356E-04   8.1006600E+05   -1.8653081E+00
   1.1588628E-04   8.0313468E+05   -1.8648542E+00
   1.1642145E-04   7.9626433E+05   -1.8643993E+00
   1.1695910E-04   7.8945440E+05   -1.8639435E+00
   1.1749923E-04   7.8270437E+05   -1.8634867E+00
   1.1804185E-04   7.7601368E+05   -1.8630290E+00
   1.1858698E-04   7.6938181E+05   -1.8625703E+00
   1.1913463E-04   7.6280823E+05   -1.8621106E+00
   1.1968481E-04   7.5629241E+05   -1.8616500E+00
   1.2023752E-04   7.4983385E+05   -1.8611885E+00
   1.2079279E-04   7.4343203E+05   -1.8607259E+00
   1.2135063E-04   7.3708643E+05   -1.8602625E+00
   1.2191104E-04   7.3079656E+05   -1.8597981E+00
   1.2247403E-04   7.2456192E+05   -1.8593328E+00
   1.2303963E-04   7.1838201E+05   -1.8588665E+00
   1.2360784E-04   7.1225633E+05   -1.8583993E+00
   1.2417868E-04   7.0618442E+05   -1.8579312E+00
   1.2475215E-04   7.0016578E+05   -1.8574621E+00
   1.2532826E-04   6.9419993E+05   -1.8569921E+00
   1.2590704E-04   6.8828641E+05   -1.8565211E+00
   1.2648850E-04   6.8242475E+05   -1.8560493E+00
   1.2707263E-04   6.7661447E+05   -1.8555765E+00
   1.2765947E-04   6.7085513E+05   -1.8551028E+00
   1.2824901E-04   6.6514627E+05   -1.8546282E+00
   1.2884128E-04   6.5948743E+05   -1.8541527E+00
   1.2943628E-04   6.5387818E+05   -1.8536762E+00
   1.3003403E-04   6.4831805E+05   -1.8531988E+00
   1.3063454E-04   6.4280662E+05   -1.8527206E+00
   1.3123783E-04   6.3734345E+05   -1.8522414E+00
   1.3184390E-04   6.3192810E+05   -1.8517613E+00
   1.3245277E-04   6.2656016E+05   -1.8512803E+00
   1.3306445E-04   6.2123919E+05   -1.8507984E+00
   1.3367895E-04   6.1596477E+05   -1.8503157E+00
   1.3429630E-04   6.1073650E+05   -1.8498320E+00
   1.3491649E-04   6.0555396E+05   -1.8493474E+00
   1.3553955E-04   6.0041673E+05   -1.8488620E+00
   1.3616548E-04   5.9532442E+05   -1.8483757E+00
   1.3679431E-04   5.9027663E+05   -1.8478884E+00
   1.3742604E-04   5.8527295E+05   -1.8474003E+00
   1.3806069E-04   5.8031299E+05   -1.8469114E+00
   1.3869827E-04   5.7539636E+05   -1.8464215E+00
   1.3933879E-04   5.7052268E+05   -1.8459308E+00
   1.3998227E-04   5.6569155E+05   -1.8454392E+00
   1.4062872E-04   5.6090261E+05   -1.8449467E+00
   1.4127816E-04   5.5615547E+05   -1.8444534E+00
   1.4193060E-04   5.5144977E+05   -1.8439592E+00
   1.4258605E-04   5.4678512E+05   -1.8434642E+00
   1.4324453E-04   5.4216117E+05   -1.8429683E+00
   1.4390605E-04   5.3757756E+05   -1.8424716E+00
   1.4457062E-04   5.3303391E+05   -1.8419740E+00
   1.4523826E-04   5.2852988E+05   -1.8414756E+00
   1.4590899E-04   5.2406512E+05   -1.8409763E+00
   1.4658281E-04   5.1963927E+05   -1.8404762E+00
   1.4725974E-04   5.1525198E+05   -1.8399752E+00
   1.4793981E-04   5.1090291E+05   -1.8394735E+00
   1.4862301E-04   5.0659173E+05   -1.8389709E+00
   1.4930936E-04   5.0231809E+05   -1.8384674E+00
   1.4999889E-04   4.9808165E+05   -1.8379632E+00
   1.5069160E-04   4.9388210E+05   -1.8374581E+00
   1.5138751E-04   4.8971909E+05   -1.8369522E+00
   1.5208663E-04   4.8559231E+05   -1.8364455E+00
   1.5278899E-04   4.8150143E+05   -1.8359380E+00
   1.5349458E-04   4.7744613E+05   -1.8354297E+00
   1.5420343E-04   4.7342609E+05   -1.8349206E+00
   1.5491556E-04   4.6944101E+05   -1.8344107E+00
   1.5563098E-04   4.6549056E+05   -1.8339000E+00
   1.5634970E-04   4.6157444E+05   -1.8333885E+00
   1.5707174E-04   4.5769235E+05   -1.8328762E+00
   1.5779711E-04   4.5384398E+05   -1.8323632E+00
   1.5852584E-04   4.5002904E+05   -1.8318493E+00
   1.5925792E-04   4.4624722E+05   -1.8313347E+00
   1.5999339E-04   4.4249823E+05   -1.8308193E+00
   1.6073226E-04   4.3878177E+05   -1.8303032E+00
   1.6147454E-04   4.3509757E+05   -1.8297862E+00
   1.6222024E-04   4.3144533E+05   -1.8292686E+00
   1.6296939E-04   4.2782477E+05   -1.8287501E+00
   1.6372200E-04   4.2423560E+05   -1.8282309E+00
   1.6447809E-04   4.2067756E+05   -1.8277110E+00
   1.6523767E-04   4.1715035E+05   -1.8271903E+00
   1.6600075E-04   4.1365371E+05   -1.8266689E+00
   1.6676736E-04   4.1018737E+05   -1.8261467E+00
   1.6753751E-04   4.0675106E+05   -1.8256238E+00
   1.6831122E-04   4.0334450E+05   -1.8251002E+00
   1.6908849E-04   3.9996744E+05   -1.8245758E+00
   1.6986936E-04   3.9661961E+05   -1.8240507E+00
   1.7065384E-04   3.9330076E+05   -1.8235249E+00
   1.7144193E-04   3.9001062E+05   -1.8229984E+00
   1.7223367E-04   3.8674895E+05   -1.8224712E+00
   1.7302906E-04   3.8351548E+05   -1.8219433E+00
   1.7382813E-04   3.8030998E+05   -1.8214147E+00
   1.7463089E-04   3.7713219E+05   -1.8208853E+00
   1.7543735E-04   3.7398186E+05   -1.8203553E+00
   1.7624754E-04   3.7085876E+05   -1.8198246E+00
   1.7706147E-04   3.6776263E+05   -1.8192932E+00
   1.7787916E-04   3.6469325E+05   -1.8187612E+00
   1.7870062E-04   3.6165037E+05   -1.8182284E+00
   1.7952588E-04   3.5863376E+05   -1.8176950E+00
   1.8035495E-04   3.5564319E+05   -1.8171609E+00
   1.8118785E-04   3.5267843E+05   -1.8166262E+00
   1.8202459E-04   3.4973924E+05   -1.8160908E+00
   1.8286520E-04   3.4682540E+05   -1.8155548E+00
   1.8370969E-04   3.4393669E+05   -1.8150181E+00
   1.8455808E-04   3.4107288E+05   -1.8144807E+00
   1.8541039E-04   3.3823376E+05   -1.8139428E+00
   1.8626663E-04   3.3541910E+05   -1.8134041E+00
   1.8712683E-04   3.3262870E+05   -1.8128649E+00
   1.8799100E-04   3.2986232E+05   -1.8123250E+00
   1.8885917E-04   3.2711977E+05   -1.8117845E+00
   1.8973134E-04   3.2440082E+05   -1.8112434E+00
   1.9060754E-04   3.2170528E+05   -1.8107017E+00
   1.9148778E-04   3.1903293E+05   -1.8101594E+00
   1.9237209E-04   3.1638357E+05   -1.8096165E+00
   1.9326049E-04   3.1375700E+05   -1.8090730E+00
   1.9415299E-04   3.1115302E+05   -1.8085288E+00
   1.9504960E-04   3.0857142E+05   -1.8079841E+00
   1.9595036E-04   3.0601200E+05   -1.8074389E+00
   1.9685528E-04   3.0347458E+05   -1.8068930E+00
   1.9776438E-04   3.0095896E+05   -1.8063466E+00
   1.9867768E-04   2.9846494E+05   -1.8057996E+00
   1.9959519E-04   2.9599234E+05   -1.8052520E+00
   2.0051694E-04   2.9354096E+05   -1.8047039E+00
   2.0144295E-04   2.9111061E+05   -1.8041552E+00
   2.0237324E-04   2.8870112E+05   -1.8036060E+00
   2.0330782E-04   2.8631230E+05   -1.8030562E+00
   2.0424671E-04   2.8394396E+05   -1.8025059E+00
   2.0518995E-04   2.8159593E+05   -1.8019550E+00
   2.0613754E-04   2.7926803E+05   -1.8014037E+00
   2.0708950E-04   2.7696007E+05   -1.8008518E+00
   2.0804586E-04   2.7467188E+05   -1.8002994E+00
   2.0900664E-04   2.7240330E+05   -1.7997464E+00
   2.0997185E-04   2.7015414E+05   -1.7991930E+00
   2.1094152E-04   2.6792423E+05   -1.7986391E+00
   2.1191567E-04   2.6571341E+05   -1.7980847E+00
   2.1289432E-04   2.6352150E+05   -1.7975297E+00
   2.1387749E-04   2.6134834E+05   -1.7969743E+00
   2.1486520E-04   2.5919377E+05   -1.7964184E+00
   2.1585747E-04   2.5705762E+05   -1.7958621E+00
   2.1685432E-04   2.5493973E+05   -1.7953052E+00
   2.1785578E-04   2.5283993E+05   -1.7947479E+00
   2.1886186E-04   2.5075808E+05   -1.7941902E+00
   2.1987259E-04   2.4869401E+05   -1.7936320E+00
   2.2088798E-04   2.4664756E+05   -1.7930733E+00
   2.2190807E-04   2.4461858E+05   -1.7925142E+00
   2.2293286E-04   2.4260692E+05   -1.7919546E+00
   2.2396239E-04   2.4061242E+05   -1.7913946E+00
   2.2499667E-04   2.3863493E+05   -1.7908342E+00
   2.2603573E-04   2.3667431E+05   -1.7902734E+00
   2.2707958E-04   2.3473040E+05   -1.7897122E+00
   2.2812826E-04   2.3280306E+05   -1.7891505E+00
   2.2918178E-04   2.3089214E+05   -1.7885884E+00
   2.3024017E-04   2.2899751E+05   -1.7880260E+00
   2.3130344E-04   2.2711900E+05   -1.7874631E+00
   2.3237162E-04   2.2525649E+05   -1.7868999E+00
   2.3344474E-04   2.2340984E+05   -1.7863362E+00
   2.3452281E-04   2.2157890E+05   -1.7857722E+00
   2.3560586E-04   2.1976354E+05   -1.7852078E+00
   2.3669392E-04   2.1796361E+05   -1.7846431E+00
   2.3778699E-04   2.1617900E+05   -1.7840780E+00
   2.3888512E-04   2.1440955E+05   -1.7835125E+00
   2.3998831E-04   2.1265514E+05   -1.7829467E+00
   2.4109661E-04   2.1091563E+05   -1.7823805E+00
   2.4221001E-04   2.0919090E+05   -1.7818140E+00
   2.4332857E-04   2.0748081E+05   -1.7812472E+00
   2.4445228E-04   2.0578525E+05   -1.7806800E+00
   2.4558119E-04   2.0410407E+05   -1.7801125E+00
   2.4671531E-04   2.0243715E+05   -1.7795447E+00
   2.4785467E-04   2.0078438E+05   -1.7789766E+00
   2.4899928E-04   1.9914562E+05   -1.7784082E+00
   2.5014919E-04   1.9752075E+05   -1.7778395E+00
   2.5130440E-04   1.9590966E+05   -1.7772705E+00
   2.5246495E-04   1.9431221E+05   -1.7767012E+00
   2.5363086E-04   1.9272830E+05   -1.7761317E+00
   2.5480216E-04   1.9115780E+05   -1.7755618E+00
   2.5597886E-04   1.8960059E+05   -1.7749917E+00
   2.5716100E-04   1.8805656E+05   -1.7744213E+00
   2.5834859E-04   1.8652560E+05   -1.7738507E+00
   2.5954168E-04   1.8500759E+05   -1.7732798E+00
   2.6074027E-04   1.8350241E+05   -1.7727087E+00
   2.6194439E-04   1.8200996E+05   -1.7721373E+00
   2.6315408E-04   1.8053013E+05   -1.7715657E+00
   2.6436935E-04   1.7906279E+05   -1.7709939E+00
   2.6559024E-04   1.7760785E+05   -1.7704219E+00
   2.6681676E-04   1.7616520E+05   -1.7698496E+00
   2.6804895E-04   1.7473473E+05   -1.7692771E+00
   2.6928683E-04   1.7331633E+05   -1.7687044E+00
   2.7053042E-04   1.7190989E+05   -1.7681315E+00
   2.7177976E-04   1.7051532E+05   -1.7675585E+00
   2.7303487E-04   1.6913251E+05   -1.7669852E+00
   2.7429577E-04   1.6776136E+05   -1.7664118E+00
   2.7556250E-04   1.6640176E+05   -1.7658382E+00
   2.7683507E-04   1.6505362E+05   -1.7652644E+00
   2.7811353E-04   1.6371683E+05   -1.7646905E+00
   2.7939788E-04   1.6239130E+05   -1.7641164E+00
   2.8068817E-04   1.6107693E+05   -1.7635421E+00
   2.8198442E-04   1.5977361E+05   -1.7629677E+00
   2.8328665E-04   1.5848127E+05   -1.7623932E+00
   2.8459490E-04   1.5719979E+05   -1.7618185E+00
   2.8590919E-04   1.5592909E+05   -1.7612438E+00
   2.8722955E-04   1.5466907E+05   -1.7606689E+00
   2.8855600E-04   1.5341963E+05   -1.7600938E+00
   2.8988859E-04   1.5218070E+05   -1.7595187E+00
   2.9122732E-04   1.5095216E+05   -1.7589435E+00
   2.9257224E-04   1.4973395E+05   -1.7583682E+00
   2.9392337E-04   1.4852595E+05   -1.7577927E+00
   2.9528074E-04   1.4732810E+05   -1.7572172E+00
   2.9664438E-04   1.4614029E+05   -1.7566417E+00
   2.9801431E-04   1.4496244E+05   -1.7560660E+00
   2.9939057E-04   1.4379447E+05   -1.7554903E+00
   3.0077319E-04   1.4263629E+05   -1.7549146E+00
   3.0216219E-04   1.4148781E+05   -1.7543387E+00
   3.0355761E-04   1.4034895E+05   -1.7537629E+00
   3.0495947E-04   1.3921962E+05   -1.7531870E+00
   3.0636780E-04   1.3809975E+05   -1.7526110E+00
   3.0778264E-04   1.3698926E+05   -1.7520351E+00
   3.0920401E-04   1.3588805E+05   -1.7514591E+00
   3.1063195E-04   1.3479605E+05   -1.7508831E+00
   3.1206648E-04   1.3371318E+05   -1.7503070E+00
   3.1350764E-04   1.3263936E+05   -1.7497310E+00
   3.1495545E-04   1.3157452E+05   -1.7491550E+00
   3.1640994E-04   1.3051857E+05   -1.7485790E+00
   3.1787116E-04   1.2947144E+05   -1.7480030E+00
   3.1933912E-04   1.2843305E+05   -1.7474270E+00
   3.2081386E-04   1.2740333E+05   -1.7468511E+00
   3.2229541E-04   1.2638220E+05   -1.7462751E+00
   3.2378381E-04   1.2536958E+05   -1.7456993E+00
   3.2527908E-04   1.2436541E+05   -1.7451234E+00
   3.2678125E-04   1.2336961E+05   -1.7445477E+00
   3.2829036E-04   1.2238211E+05   -1.7439719E+00
   3.2980644E-04   1.2140283E+05   -1.7433963E+00
   3.3132952E-04   1.2043171E+05   -1.7428207E+00
   3.3285963E-04   1.1946868E+05   -1.7422452E+00
   3.3439681E-04   1.1851366E+05   -1.7416697E+00
   3.3594109E-04   1.1756658E+05   -1.7410944E+00
   3.3749250E-04   1.1662738E+05   -1.7405191E+00
   3.3905108E-04   1.1569600E+05   -1.7399440E+00
   3.4061685E-04   1.1477235E+05   -1.7393689E+00
   3.4218986E-04   1.1385638E+05   -1.7387940E+00
   3.4377013E-04   1.1294802E+05   -1.7382192E+00
   3.4535769E-04   1.1204720E+05   -1.7376445E+00
   3.4695259E-04   1.1115386E+05   -1.7370699E+00
   3.4855485E-04   1.1026794E+05   -1.7364955E+00
   3.5016452E-04   1.0938937E+05   -1.7359212E+00
   3.5178161E-04   1.0851808E+05   -1.7353471E+00
   3.5340618E-04   1.0765402E+05   -1.7347731E+00
   3.5503824E-04   1.0679712E+05   -1.7341993E+00
   3.5667785E-04   1.0594732E+05   -1.7336256E+00
   3.5832502E-04   1.0510456E+05   -1.7330521E+00
   3.5997981E-04   1.0426878E+05   -1.7324788E+00
   3.6164223E-04   1.0343992E+05   -1.7319057E+00
   3.6331233E-04   1.0261792E+05   -1.7313328E+00
   3.6499015E-04   1.0180272E+05   -1.7307600E+00
   3.6667571E-04   1.0099427E+05   -1.7301875E+00
   3.6836906E-04   1.0019249E+05   -1.7296152E+00
   3.7007022E-04   9.9397347E+04   -1.7290431E+00
   3.7177925E-04   9.8608771E+04   -1.7284712E+00
   3.7349616E-04   9.7826710E+04   -1.7278995E+00
   3.7522101E-04   9.7051106E+04   -1.7273281E+00
   3.7695382E-04   9.6281905E+04   -1.7267569E+00
   3.7869463E-04   9.5519053E+04   -1.7261860E+00
   3.8044348E-04   9.4762493E+04   -1.7256153E+00
   3.8220041E-04   9.4012174E+04   -1.7250448E+00
   3.8396545E-04   9.3268040E+04   -1.7244746E+00
   3.8573864E-04   9.2530039E+04   -1.7239047E+00
   3.8752002E-04   9.1798119E+04   -1.7233351E+00
   3.8930963E-04   9.1072227E+04   -1.7227657E+00
   3.9110750E-04   9.0352312E+04   -1.7221966E+00
   3.9291368E-04   8.9638323E+04   -1.7216279E+00
   3.9472820E-04   8.8930209E+04   -1.7210594E+00
   3.9655109E-04   8.8227920E+04   -1.7204912E+00
   3.9838241E-04   8.7531406E+04   -1.7199233E+00
   4.0022218E-04   8.6840618E+04   -1.7193557E+00
   4.0207045E-04   8.6155507E+04   -1.7187885E+00
   4.0392725E-04   8.5476024E+04   -1.7182216E+00
   4.0579263E-04   8.4802122E+04   -1.7176550E+00
   4.0766662E-04   8.4133752E+04   -1.7170887E+00
   4.0954927E-04   8.3470868E+04   -1.7165228E+00
   4.1144061E-04   8.2813422E+04   -1.7159573E+00
   4.1334068E-04   8.2161369E+04   -1.7153920E+00
   4.1524953E-04   8.1514662E+04   -1.7148272E+00
   4.1716720E-04   8.0873255E+04   -1.7142627E+00
   4.1909372E-04   8.0237105E+04   -1.7136986E+00
   4.2102914E-04   7.9606165E+04   -1.7131349E+00
   4.2297350E-04   7.8980391E+04   -1.7125715E+00
   4.2492683E-04   7.8359740E+04   -1.7120085E+00
   4.2688919E-04   7.7744168E+04   -1.7114460E+00
   4.2886061E-04   7.7133631E+04   -1.7108838E+00
   4.3084113E-04   7.6528088E+04   -1.7103220E+00
   4.3283080E-04   7.5927494E+04   -1.7097607E+00
   4.3482966E-04   7.5331809E+04   -1.7091997E+00
   4.3683775E-04   7.4740991E+04   -1.7086392E+00
   4.3885511E-04   7.4154997E+04   -1.7080791E+00
   4.4088179E-04   7.3573788E+04   -1.7075194E+00
   4.4291783E-04   7.2997322E+04   -1.7069602E+00
   4.4496327E-04   7.2425559E+04   -1.7064014E+00
   4.4701816E-04   7.1858460E+04   -1.7058431E+00
   4.4908253E-04   7.1295985E+04   -1.7052852E+00
   4.5115644E-04   7.0738094E+04   -1.7047278E+00
   4.5323993E-04   7.0184749E+04   -1.7041708E+00
   4.5533304E-04   6.9635911E+04   -1.7036143E+00
   4.5743582E-04   6.9091542E+04   -1.7030583E+00
   4.5954830E-04   6.8551604E+04   -1.7025027E+00
   4.6167054E-04   6.8016059E+04   -1.7019477E+00
   4.6380259E-04   6.7484871E+04   -1.7013931E+00
   4.6594448E-04   6.6958002E+04   -1.7008391E+00
   4.6809626E-04   6.6435417E+04   -1.7002855E+00
   4.7025797E-04   6.5917078E+04   -1.6997324E+00
   4.7242967E-04   6.5402949E+04   -1.6991799E+00
   4.7461140E-04   6.4892996E+04   -1.6986278E+00
   4.7680321E-04   6.4387182E+04   -1.6980763E+00
   4.7900514E-04   6.3885474E+04   -1.6975253E+00
   4.8121723E-04   6.3387835E+04   -1.6969749E+00
   4.8343954E-04   6.2894233E+04   -1.6964250E+00
   4.8567212E-04   6.2404632E+04   -1.6958756E+00
   4.8791500E-04   6.1918999E+04   -1.6953268E+00
   4.9016825E-04   6.1437301E+04   -1.6947785E+00
   4.9243189E-04   6.0959504E+04   -1.6942308E+00
   4.9470600E-04   6.0485575E+04   -1.6936836E+00
   4.9699060E-04   6.0015482E+04   -1.6931370E+00
   4.9928575E-04   5.9549193E+04   -1.6925910E+00
   5.0159151E-04   5.9086675E+04   -1.6920455E+00
   5.0390791E-04   5.8627896E+04   -1.6915007E+00
   5.0623501E-04   5.8172826E+04   -1.6909564E+00
   5.0857286E-04   5.7721432E+04   -1.6904127E+00
   5.1092150E-04   5.7273685E+04   -1.6898696E+00
   5.1328099E-04   5.6829553E+04   -1.6893271E+00
   5.1565137E-04   5.6389006E+04   -1.6887852E+00
   5.1803270E-04   5.5952014E+04   -1.6882440E+00
   5.2042503E-04   5.5518546E+04   -1.6877033E+00
   5.2282841E-04   5.5088574E+04   -1.6871633E+00
   5.2524289E-04   5.4662068E+04   -1.6866238E+00
   5.2766851E-04   5.4238998E+04   -1.6860850E+00
   5.3010534E-04   5.3819337E+04   -1.6855469E+00
   5.3255342E-04   5.3403055E+04   -1.6850094E+00
   5.3501281E-04   5.2990123E+04   -1.6844725E+00
   5.3748356E-04   5.2580515E+04   -1.6839363E+00
   5.3996571E-04   5.2174202E+04   -1.6834007E+00
   5.4245933E-04   5.1771156E+04   -1.6828658E+00
   5.4496446E-04   5.1371351E+04   -1.6823315E+00
   5.4748117E-04   5.0974758E+04   -1.6817979E+00
   5.5000949E-04   5.0581351E+04   -1.6812650E+00
   5.5254949E-04   5.0191104E+04   -1.6807327E+00
   5.5510123E-04   4.9803990E+04   -1.6802011E+00
   5.5766474E-04   4.9419982E+04   -1.6796702E+00
   5.6024010E-04   4.9039055E+04   -1.6791400E+00
   5.6282734E-04   4.8661183E+04   -1.6786105E+00
   5.6542654E-04   4.8286340E+04   -1.6780817E+00
   5.6803774E-04   4.7914502E+04   -1.6775536E+00
   5.7066099E-04   4.7545642E+04   -1.6770261E+00
   5.7329637E-04   4.7179737E+04   -1.6764994E+00
   5.7594391E-04   4.6816761E+04   -1.6759734E+00
   5.7860368E-04   4.6456690E+04   -1.6754481E+00
   5.8127573E-04   4.6099501E+04   -1.6749236E+00
   5.8396012E-04   4.5745168E+04   -1.6743997E+00
   5.8665691E-04   4.5393667E+04   -1.6738766E+00
   5.8936616E-04   4.5044977E+04   -1.6733542E+00
   5.9208791E-04   4.4699072E+04   -1.6728326E+00
   5.9482223E-04   4.4355930E+04   -1.6723117E+00
   5.9756919E-04   4.4015528E+04   -1.6717915E+00
   6.0032882E-04   4.3677842E+04   -1.6712721E+00
   6.0310120E-04   4.3342851E+04   -1.6707534E+00
   6.0588639E-04   4.3010532E+04   -1.6702355E+00
   6.0868443E-04   4.2680863E+04   -1.6697184E+00
   6.1149540E-04   4.2353822E+04   -1.6692020E+00
   6.1431935E-04   4.2029386E+04   -1.6686864E+00
   6.1715634E-04   4.1707535E+04   -1.6681715E+00
   6.2000644E-04   4.1388246E+04   -1.6676575E+00
   6.2286969E-04   4.1071499E+04   -1.6671442E+00
