#        a       HoverH0(a)       dlogHdloga_of_a(a)
   1.0000000E-04   1.1079662E+06   -1.8990352E+00
   1.0046181E-04   1.0983150E+06   -1.8986634E+00
   1.0092575E-04   1.0887497E+06   -1.8982906E+00
   1.0139184E-04   1.0792696E+06   -1.8979168E+00
   1.0186008E-04   1.0698739E+06   -1.8975420E+00
   1.0233048E-04   1.0605618E+06   -1.8971661E+00
   1.0280305E-04   1.0513326E+06   -1.8967892E+00
   1.0327781E-04   1.0421855E+06   -1.8964113E+00
   1.0375475E-04   1.0331198E+06   -1.8960324E+00
   1.0423390E-04   1.0241348E+06   -1.8956525E+00
   1.0471527E-04   1.0152296E+06   -1.8952715E+00
   1.0519885E-04   1.0064037E+06   -1.8948895E+00
   1.0568467E-04   9.9765628E+05   -1.8945065E+00
   1.0617274E-04   9.8898662E+05   -1.8941225E+00
   1.0666305E-04   9.8039404E+05   -1.8937374E+00
   1.0715563E-04   9.7187784E+05   -1.8933513E+00
   1.0765049E-04   9.6343733E+05   -1.8929642E+00
   1.0814763E-04   9.5507183E+05   -1.8925761E+00
   1.0864707E-04   9.4678066E+05   -1.8921870E+00
   1.0914881E-04   9.3856316E+05   -1.8917968E+00
   1.0965287E-04   9.3041865E+05   -1.8914056E+00
   1.1015926E-04   9.2234648E+05   -1.8910134E+00
   1.1066799E-04   9.1434600E+05   -1.8906202E+00
   1.1117906E-04   9.0641656E+05   -1.8902260E+00
   1.1169250E-04   8.9855752E+05   -1.8898307E+00
   1.1220831E-04   8.9076825E+05   -1.8894344E+00
   1.1272650E-04   8.8304811E+05   -1.8890371E+00
   1.1324708E-04   8.7539649E+05   -1.8886388E+00
   1.1377007E-04   8.6781276E+05   -1.8882394E+00
   1.1429547E-04   8.6029632E+05   -1.8878391E+00
   1.1482330E-04   8.5284656E+05   -1.8874377E+00
   1.1535356E-04   8.4546287E+05   -1.8870353E+00
   1.1588628E-04   8.3814467E+05   -1.8866319E+00
   1.1642145E-04   8.3089135E+05   -1.8862274E+00
   1.1695910E-04   8.2370235E+05   -1.8858220E+00
   1.1749923E-04   8.1657707E+05   -1.8854155E+00
   1.1804185E-04   8.0951494E+05   -1.8850080E+00
   1.1858698E-04   8.0251540E+05   -1.8845995E+00
   1.1913463E-04   7.9557788E+05   -1.8841900E+00
   1.1968481E-04   7.8870182E+05   -1.8837795E+00
   1.2023752E-04   7.8188667E+05   -1.8833679E+00
   1.2079279E-04   7.7513189E+05   -1.8829554E+00
   1.2135063E-04   7.6843692E+05   -1.8825418E+00
   1.2191104E-04   7.6180123E+05   -1.8821272E+00
   1.2247403E-04   7.5522429E+05   -1.8817117E+00
   1.2303963E-04   7.4870557E+05   -1.8812951E+00
   1.2360784E-04   7.4224453E+05   -1.8808774E+00
   1.2417868E-04   7.3584067E+05   -1.8804588E+00
   1.2475215E-04   7.2949347E+05   -1.8800392E+00
   1.2532826E-04   7.2320242E+05   -1.8796186E+00
   1.2590704E-04   7.1696701E+05   -1.8791969E+00
   1.2648850E-04   7.1078675E+05   -1.8787743E+00
   1.2707263E-04   7.0466113E+05   -1.8783506E+00
   1.2765947E-04   6.9858967E+05   -1.8779260E+00
   1.2824901E-04   6.9257188E+05   -1.8775003E+00
   1.2884128E-04   6.8660728E+05   -1.8770737E+00
   1.2943628E-04   6.8069539E+05   -1.8766460E+00
   1.3003403E-04   6.7483573E+05   -1.8762174E+00
   1.3063454E-04   6.6902783E+05   -1.8757877E+00
   1.3123783E-04   6.6327124E+05   -1.8753571E+00
   1.3184390E-04   6.5756548E+05   -1.8749254E+00
   1.3245277E-04   6.5191010E+05   -1.8744928E+00
   1.3306445E-04   6.4630465E+05   -1.8740591E+00
   1.3367895E-04   6.4074869E+05   -1.8736245E+00
   1.3429630E-04   6.3524175E+05   -1.8731889E+00
   1.3491649E-04   6.2978342E+05   -1.8727523E+00
   1.3553955E-04   6.2437324E+05   -1.8723147E+00
   1.3616548E-04   6.1901079E+05   -1.8718761E+00
   1.3679431E-04   6.1369563E+05   -1.8714365E+00
   1.3742604E-04   6.0842735E+05   -1.8709959E+00
   1.3806069E-04   6.0320552E+05   -1.8705544E+00
   1.3869827E-04   5.9802972E+05   -1.8701119E+00
   1.3933879E-04   5.9289955E+05   -1.8696684E+00
   1.3998227E-04   5.8781458E+05   -1.8692239E+00
   1.4062872E-04   5.8277442E+05   -1.8687784E+00
   1.4127816E-04   5.7777867E+05   -1.8683320E+00
   1.4193060E-04   5.7282692E+05   -1.8678846E+00
   1.4258605E-04   5.6791877E+05   -1.8674362E+00
   1.4324453E-04   5.6305385E+05   -1.8669868E+00
   1.4390605E-04   5.5823176E+05   -1.8665365E+00
   1.4457062E-04   5.5345212E+05   -1.8660852E+00
   1.4523826E-04   5.4871454E+05   -1.8656329E+00
   1.4590899E-04   5.4401865E+05   -1.8651797E+00
   1.4658281E-04   5.3936408E+05   -1.8647255E+00
   1.4725974E-04   5.3475045E+05   -1.8642703E+00
   1.4793981E-04   5.3017740E+05   -1.8638142E+00
   1.4862301E-04   5.2564456E+05   -1.8633571E+00
   1.4930936E-04   5.2115157E+05   -1.8628991E+00
   1.4999889E-04   5.1669808E+05   -1.8624401E+00
   1.5069160E-04   5.1228373E+05   -1.8619802E+00
   1.5138751E-04   5.0790818E+05   -1.8615193E+00
   1.5208663E-04   5.0357106E+05   -1.8610575E+00
   1.5278899E-04   4.9927204E+05   -1.8605947E+00
   1.5349458E-04   4.9501079E+05   -1.8601310E+00
   1.5420343E-04   4.9078695E+05   -1.8596663E+00
   1.5491556E-04   4.8660020E+05   -1.8592007E+00
   1.5563098E-04   4.8245019E+05   -1.8587341E+00
   1.5634970E-04   4.7833661E+05   -1.8582666E+00
   1.5707174E-04   4.7425913E+05   -1.8577982E+00
   1.5779711E-04   4.7021742E+05   -1.8573289E+00
   1.5852584E-04   4.6621116E+05   -1.8568586E+00
   1.5925792E-04   4.6224004E+05   -1.8563874E+00
   1.5999339E-04   4.5830374E+05   -1.8559153E+00
   1.6073226E-04   4.5440195E+05   -1.8554422E+00
   1.6147454E-04   4.5053436E+05   -1.8549682E+00
   1.6222024E-04   4.4670067E+05   -1.8544933E+00
   1.6296939E-04   4.4290057E+05   -1.8540175E+00
   1.6372200E-04   4.3913376E+05   -1.8535408E+00
   1.6447809E-04   4.3539994E+05   -1.8530632E+00
   1.6523767E-04   4.3169883E+05   -1.8525846E+00
   1.6600075E-04   4.2803011E+05   -1.8521052E+00
   1.6676736E-04   4.2439352E+05   -1.8516248E+00
   1.6753751E-04   4.2078875E+05   -1.8511436E+00
   1.6831122E-04   4.1721553E+05   -1.8506614E+00
   1.6908849E-04   4.1367357E+05   -1.8501784E+00
   1.6986936E-04   4.1016259E+05   -1.8496944E+00
   1.7065384E-04   4.0668232E+05   -1.8492096E+00
   1.7144193E-04   4.0323248E+05   -1.8487239E+00
   1.7223367E-04   3.9981280E+05   -1.8482373E+00
   1.7302906E-04   3.9642302E+05   -1.8477498E+00
   1.7382813E-04   3.9306285E+05   -1.8472615E+00
   1.7463089E-04   3.8973205E+05   -1.8467722E+00
   1.7543735E-04   3.8643034E+05   -1.8462821E+00
   1.7624754E-04   3.8315747E+05   -1.8457911E+00
   1.7706147E-04   3.7991318E+05   -1.8452993E+00
   1.7787916E-04   3.7669722E+05   -1.8448066E+00
   1.7870062E-04   3.7350932E+05   -1.8443130E+00
   1.7952588E-04   3.7034925E+05   -1.8438185E+00
   1.8035495E-04   3.6721675E+05   -1.8433233E+00
   1.8118785E-04   3.6411158E+05   -1.8428271E+00
   1.8202459E-04   3.6103349E+05   -1.8423301E+00
   1.8286520E-04   3.5798224E+05   -1.8418323E+00
   1.8370969E-04   3.5495760E+05   -1.8413336E+00
   1.8455808E-04   3.5195932E+05   -1.8408341E+00
   1.8541039E-04   3.4898717E+05   -1.8403337E+00
   1.8626663E-04   3.4604091E+05   -1.8398325E+00
   1.8712683E-04   3.4312033E+05   -1.8393305E+00
   1.8799100E-04   3.4022518E+05   -1.8388276E+00
   1.8885917E-04   3.3735524E+05   -1.8383239E+00
   1.8973134E-04   3.3451028E+05   -1.8378194E+00
   1.9060754E-04   3.3169009E+05   -1.8373141E+00
   1.9148778E-04   3.2889445E+05   -1.8368080E+00
   1.9237209E-04   3.2612312E+05   -1.8363010E+00
   1.9326049E-04   3.2337591E+05   -1.8357933E+00
   1.9415299E-04   3.2065259E+05   -1.8352847E+00
   1.9504960E-04   3.1795294E+05   -1.8347754E+00
   1.9595036E-04   3.1527677E+05   -1.8342652E+00
   1.9685528E-04   3.1262386E+05   -1.8337543E+00
   1.9776438E-04   3.0999400E+05   -1.8332426E+00
   1.9867768E-04   3.0738699E+05   -1.8327300E+00
   1.9959519E-04   3.0480263E+05   -1.8322167E+00
   2.0051694E-04   3.0224070E+05   -1.8317026E+00
   2.0144295E-04   2.9970103E+05   -1.8311878E+00
   2.0237324E-04   2.9718339E+05   -1.8306722E+00
   2.0330782E-04   2.9468761E+05   -1.8301558E+00
   2.0424671E-04   2.9221348E+05   -1.8296386E+00
   2.0518995E-04   2.8976082E+05   -1.8291207E+00
   2.0613754E-04   2.8732943E+05   -1.8286020E+00
   2.0708950E-04   2.8491912E+05   -1.8280826E+00
   2.0804586E-04   2.8252971E+05   -1.8275624E+00
   2.0900664E-04   2.8016101E+05   -1.8270415E+00
   2.0997185E-04   2.7781283E+05   -1.8265198E+00
   2.1094152E-04   2.7548500E+05   -1.8259974E+00
   2.1191567E-04   2.7317733E+05   -1.8254743E+00
   2.1289432E-04   2.7088965E+05   -1.8249504E+00
   2.1387749E-04   2.6862177E+05   -1.8244259E+00
   2.1486520E-04   2.6637352E+05   -1.8239006E+00
   2.1585747E-04   2.6414473E+05   -1.8233745E+00
   2.1685432E-04   2.6193523E+05   -1.8228478E+00
   2.1785578E-04   2.5974483E+05   -1.8223204E+00
   2.1886186E-04   2.5757338E+05   -1.8217922E+00
   2.1987259E-04   2.5542071E+05   -1.8212634E+00
   2.2088798E-04   2.5328664E+05   -1.8207338E+00
   2.2190807E-04   2.5117102E+05   -1.8202036E+00
   2.2293286E-04   2.4907367E+05   -1.8196727E+00
   2.2396239E-04   2.4699445E+05   -1.8191411E+00
   2.2499667E-04   2.4493318E+05   -1.8186088E+00
   2.2603573E-04   2.4288971E+05   -1.8180759E+00
   2.2707958E-04   2.4086388E+05   -1.8175422E+00
   2.2812826E-04   2.3885554E+05   -1.8170080E+00
   2.2918178E-04   2.3686452E+05   -1.8164730E+00
   2.3024017E-04   2.3489068E+05   -1.8159374E+00
   2.3130344E-04   2.3293386E+05   -1.8154011E+00
   2.3237162E-04   2.3099392E+05   -1.8148642E+00
   2.3344474E-04   2.2907070E+05   -1.8143267E+00
   2.3452281E-04   2.2716406E+05   -1.8137885E+00
   2.3560586E-04   2.2527384E+05   -1.8132497E+00
   2.3669392E-04   2.2339991E+05   -1.8127103E+00
   2.3778699E-04   2.2154211E+05   -1.8121702E+00
   2.3888512E-04   2.1970032E+05   -1.8116295E+00
   2.3998831E-04   2.1787437E+05   -1.8110882E+00
   2.4109661E-04   2.1606415E+05   -1.8105463E+00
   2.4221001E-04   2.1426949E+05   -1.8100038E+00
   2.4332857E-04   2.1249028E+05   -1.8094606E+00
   2.4445228E-04   2.1072637E+05   -1.8089169E+00
   2.4558119E-04   2.0897762E+05   -1.8083726E+00
   2.4671531E-04   2.0724391E+05   -1.8078277E+00
   2.4785467E-04   2.0552509E+05   -1.8072822E+00
   2.4899928E-04   2.0382105E+05   -1.8067362E+00
   2.5014919E-04   2.0213164E+05   -1.8061896E+00
   2.5130440E-04   2.0045674E+05   -1.8056424E+00
   2.5246495E-04   1.9879622E+05   -1.8050946E+00
   2.5363086E-04   1.9714995E+05   -1.8045463E+00
   2.5480216E-04   1.9551781E+05   -1.8039974E+00
   2.5597886E-04   1.9389967E+05   -1.8034480E+00
   2.5716100E-04   1.9229541E+05   -1.8028981E+00
   2.5834859E-04   1.9070491E+05   -1.8023476E+00
   2.5954168E-04   1.8912804E+05   -1.8017966E+00
   2.6074027E-04   1.8756469E+05   -1.8012450E+00
   2.6194439E-04   1.8601473E+05   -1.8006930E+00
   2.6315408E-04   1.8447805E+05   -1.8001404E+00
   2.6436935E-04   1.8295453E+05   -1.7995873E+00
   2.6559024E-04   1.8144406E+05   -1.7990337E+00
   2.6681676E-04   1.7994651E+05   -1.7984796E+00
   2.6804895E-04   1.7846179E+05   -1.7979250E+00
   2.6928683E-04   1.7698976E+05   -1.7973699E+00
   2.7053042E-04   1.7553033E+05   -1.7968143E+00
   2.7177976E-04   1.7408337E+05   -1.7962582E+00
   2.7303487E-04   1.7264879E+05   -1.7957017E+00
   2.7429577E-04   1.7122646E+05   -1.7951447E+00
   2.7556250E-04   1.6981630E+05   -1.7945872E+00
   2.7683507E-04   1.6841817E+05   -1.7940293E+00
   2.7811353E-04   1.6703199E+05   -1.7934709E+00
   2.7939788E-04   1.6565764E+05   -1.7929121E+00
   2.8068817E-04   1.6429503E+05   -1.7923529E+00
   2.8198442E-04   1.6294404E+05   -1.7917931E+00
   2.8328665E-04   1.6160458E+05   -1.7912330E+00
   2.8459490E-04   1.6027654E+05   -1.7906724E+00
   2.8590919E-04   1.5895983E+05   -1.7901115E+00
   2.8722955E-04   1.5765434E+05   -1.7895501E+00
   2.8855600E-04   1.5635998E+05   -1.7889883E+00
   2.8988859E-04   1.5507665E+05   -1.7884260E+00
   2.9122732E-04   1.5380425E+05   -1.7878634E+00
   2.9257224E-04   1.5254268E+05   -1.7873004E+00
   2.9392337E-04   1.5129186E+05   -1.7867370E+00
   2.9528074E-04   1.5005168E+05   -1.7861732E+00
   2.9664438E-04   1.4882205E+05   -1.7856091E+00
   2.9801431E-04   1.4760288E+05   -1.7850446E+00
   2.9939057E-04   1.4639409E+05   -1.7844797E+00
   3.0077319E-04   1.4519557E+05   -1.7839144E+00
   3.0216219E-04   1.4400723E+05   -1.7833488E+00
   3.0355761E-04   1.4282900E+05   -1.7827829E+00
   3.0495947E-04   1.4166077E+05   -1.7822166E+00
   3.0636780E-04   1.4050247E+05   -1.7816499E+00
   3.0778264E-04   1.3935400E+05   -1.7810830E+00
   3.0920401E-04   1.3821528E+05   -1.7805157E+00
   3.1063195E-04   1.3708622E+05   -1.7799481E+00
   3.1206648E-04   1.3596675E+05   -1.7793802E+00
   3.1350764E-04   1.3485676E+05   -1.7788119E+00
   3.1495545E-04   1.3375619E+05   -1.7782434E+00
   3.1640994E-04   1.3266495E+05   -1.7776746E+00
   3.1787116E-04   1.3158296E+05   -1.7771054E+00
   3.1933912E-04   1.3051013E+05   -1.7765360E+00
   3.2081386E-04   1.2944639E+05   -1.7759664E+00
   3.2229541E-04   1.2839166E+05   -1.7753964E+00
   3.2378381E-04   1.2734585E+05   -1.7748262E+00
   3.2527908E-04   1.2630890E+05   -1.7742557E+00
   3.2678125E-04   1.2528072E+05   -1.7736849E+00
   3.2829036E-04   1.2426123E+05   -1.7731139E+00
   3.2980644E-04   1.2325037E+05   -1.7725427E+00
   3.3132952E-04   1.2224805E+05   -1.7719712E+00
   3.3285963E-04   1.2125420E+05   -1.7713995E+00
   3.3439681E-04   1.2026875E+05   -1.7708276E+00
   3.3594109E-04   1.1929162E+05   -1.7702554E+00
   3.3749250E-04   1.1832275E+05   -1.7696831E+00
   3.3905108E-04   1.1736205E+05   -1.7691105E+00
   3.4061685E-04   1.1640946E+05   -1.7685377E+00
   3.4218986E-04   1.1546490E+05   -1.7679647E+00
   3.4377013E-04   1.1452831E+05   -1.7673916E+00
   3.4535769E-04   1.1359962E+05   -1.7668182E+00
   3.4695259E-04   1.1267876E+05   -1.7662447E+00
   3.4855485E-04   1.1176566E+05   -1.7656710E+00
   3.5016452E-04   1.1086025E+05   -1.7650971E+00
   3.5178161E-04   1.0996246E+05   -1.7645231E+00
   3.5340618E-04   1.0907224E+05   -1.7639489E+00
   3.5503824E-04   1.0818950E+05   -1.7633746E+00
   3.5667785E-04   1.0731420E+05   -1.7628001E+00
   3.5832502E-04   1.0644626E+05   -1.7622255E+00
   3.5997981E-04   1.0558562E+05   -1.7616507E+00
   3.6164223E-04   1.0473221E+05   -1.7610759E+00
   3.6331233E-04   1.0388598E+05   -1.7605009E+00
   3.6499015E-04   1.0304686E+05   -1.7599258E+00
   3.6667571E-04   1.0221478E+05   -1.7593506E+00
   3.6836906E-04   1.0138970E+05   -1.7587753E+00
   3.7007022E-04   1.0057154E+05   -1.7581999E+00
   3.7177925E-04   9.9760245E+04   -1.7576244E+00
   3.7349616E-04   9.8955759E+04   -1.7570488E+00
   3.7522101E-04   9.8158021E+04   -1.7564732E+00
   3.7695382E-04   9.7366972E+04   -1.7558975E+00
   3.7869463E-04   9.6582555E+04   -1.7553217E+00
   3.8044348E-04   9.5804711E+04   -1.7547459E+00
   3.8220041E-04   9.5033385E+04   -1.7541700E+00
   3.8396545E-04   9.4268518E+04   -1.7535941E+00
   3.8573864E-04   9.3510055E+04   -1.7530181E+00
   3.8752002E-04   9.2757941E+04   -1.7524421E+00
   3.8930963E-04   9.2012120E+04   -1.7518661E+00
   3.9110750E-04   9.1272538E+04   -1.7512900E+00
   3.9291368E-04   9.0539142E+04   -1.7507140E+00
   3.9472820E-04   8.9811876E+04   -1.7501379E+00
   3.9655109E-04   8.9090689E+04   -1.7495618E+00
   3.9838241E-04   8.8375528E+04   -1.7489857E+00
   4.0022218E-04   8.7666340E+04   -1.7484097E+00
   4.0207045E-04   8.6963074E+04   -1.7478336E+00
   4.0392725E-04   8.6265679E+04   -1.7472576E+00
   4.0579263E-04   8.5574103E+04   -1.7466816E+00
   4.0766662E-04   8.4888297E+04   -1.7461057E+00
   4.0954927E-04   8.4208211E+04   -1.7455297E+00
   4.1144061E-04   8.3533795E+04   -1.7449539E+00
   4.1334068E-04   8.2865000E+04   -1.7443781E+00
   4.1524953E-04   8.2201778E+04   -1.7438023E+00
   4.1716720E-04   8.1544080E+04   -1.7432266E+00
   4.1909372E-04   8.0891859E+04   -1.7426510E+00
   4.2102914E-04   8.0245067E+04   -1.7420754E+00
   4.2297350E-04   7.9603658E+04   -1.7415000E+00
   4.2492683E-04   7.8967585E+04   -1.7409246E+00
   4.2688919E-04   7.8336803E+04   -1.7403493E+00
   4.2886061E-04   7.7711265E+04   -1.7397741E+00
   4.3084113E-04   7.7090927E+04   -1.7391990E+00
   4.3283080E-04   7.6475743E+04   -1.7386241E+00
   4.3482966E-04   7.5865669E+04   -1.7380492E+00
   4.3683775E-04   7.5260661E+04   -1.7374745E+00
   4.3885511E-04   7.4660676E+04   -1.7368999E+00
   4.4088179E-04   7.4065670E+04   -1.7363255E+00
   4.4291783E-04   7.3475600E+04   -1.7357512E+00
   4.4496327E-04   7.2890424E+04   -1.7351770E+00
   4.4701816E-04   7.2310100E+04   -1.7346030E+00
   4.4908253E-04   7.1734585E+04   -1.7340292E+00
   4.5115644E-04   7.1163840E+04   -1.7334555E+00
   4.5323993E-04   7.0597822E+04   -1.7328820E+00
   4.5533304E-04   7.0036491E+04   -1.7323087E+00
   4.5743582E-04   6.9479807E+04   -1.7317356E+00
   4.5954830E-04   6.8927729E+04   -1.7311627E+00
   4.6167054E-04   6.8380219E+04   -1.7305899E+00
   4.6380259E-04   6.7837237E+04   -1.7300174E+00
   4.6594448E-04   6.7298743E+04   -1.7294451E+00
   4.6809626E-04   6.6764701E+04   -1.7288730E+00
   4.7025797E-04   6.6235071E+04   -1.7283011E+00
   4.7242967E-04   6.5709815E+04   -1.7277294E+00
   4.7461140E-04   6.5188896E+04   -1.7271580E+00
   4.7680321E-04   6.4672277E+04   -1.7265868E+00
   4.7900514E-04   6.4159922E+04   -1.7260158E+00
   4.8121723E-04   6.3651792E+04   -1.7254452E+00
   4.8343954E-04   6.3147854E+04   -1.7248747E+00
   4.8567212E-04   6.2648069E+04   -1.7243045E+00
   4.8791500E-04   6.2152403E+04   -1.7237346E+00
   4.9016825E-04   6.1660821E+04   -1.7231650E+00
   4.9243189E-04   6.1173287E+04   -1.7225957E+00
   4.9470600E-04   6.0689767E+04   -1.7220266E+00
   4.9699060E-04   6.0210227E+04   -1.7214578E+00
   4.9928575E-04   5.9734632E+04   -1.7208894E+00
   5.0159151E-04   5.9262950E+04   -1.7203212E+00
   5.0390791E-04   5.8795145E+04   -1.7197533E+00
   5.0623501E-04   5.8331186E+04   -1.7191858E+00
   5.0857286E-04   5.7871039E+04   -1.7186186E+00
   5.1092150E-04   5.7414673E+04   -1.7180517E+00
   5.1328099E-04   5.6962054E+04   -1.7174851E+00
   5.1565137E-04   5.6513150E+04   -1.7169189E+00
   5.1803270E-04   5.6067931E+04   -1.7163530E+00
   5.2042503E-04   5.5626364E+04   -1.7157875E+00
   5.2282841E-04   5.5188418E+04   -1.7152223E+00
   5.2524289E-04   5.4754063E+04   -1.7146575E+00
   5.2766851E-04   5.4323268E+04   -1.7140930E+00
   5.3010534E-04   5.3896002E+04   -1.7135289E+00
   5.3255342E-04   5.3472235E+04   -1.7129652E+00
   5.3501281E-04   5.3051939E+04   -1.7124019E+00
   5.3748356E-04   5.2635082E+04   -1.7118390E+00
   5.3996571E-04   5.2221636E+04   -1.7112765E+00
   5.4245933E-04   5.1811573E+04   -1.7107143E+00
   5.4496446E-04   5.1404862E+04   -1.7101526E+00
   5.4748117E-04   5.1001476E+04   -1.7095913E+00
   5.5000949E-04   5.0601386E+04   -1.7090304E+00
   5.5254949E-04   5.0204564E+04   -1.7084699E+00
   5.5510123E-04   4.9810983E+04   -1.7079098E+00
   5.5766474E-04   4.9420615E+04   -1.7073502E+00
   5.6024010E-04   4.9033432E+04   -1.7067910E+00
   5.6282734E-04   4.8649409E+04   -1.7062323E+00
   5.6542654E-04   4.8268517E+04   -1.7056740E+00
   5.6803774E-04   4.7890730E+04   -1.7051162E+00
   5.7066099E-04   4.7516022E+04   -1.7045588E+00
   5.7329637E-04   4.7144367E+04   -1.7040019E+00
   5.7594391E-04   4.6775739E+04   -1.7034454E+00
   5.7860368E-04   4.6410112E+04   -1.7028895E+00
   5.8127573E-04   4.6047461E+04   -1.7023340E+00
   5.8396012E-04   4.5687761E+04   -1.7017790E+00
   5.8665691E-04   4.5330987E+04   -1.7012245E+00
   5.8936616E-04   4.4977113E+04   -1.7006705E+00
   5.9208791E-04   4.4626116E+04   -1.7001170E+00
   5.9482223E-04   4.4277970E+04   -1.6995640E+00
   5.9756919E-04   4.3932653E+04   -1.6990115E+00
   6.0032882E-04   4.3590139E+04   -1.6984595E+00
   6.0310120E-04   4.3250406E+04   -1.6979081E+00
   6.0588639E-04   4.2913430E+04   -1.6973572E+00
   6.0868443E-04   4.2579187E+04   -1.6968068E+00
   6.1149540E-04   4.2247655E+04   -1.6962569E+00
   6.1431935E-04   4.1918810E+04   -1.6957076E+00
   6.1715634E-04   4.1592630E+04   -1.6951589E+00
   6.2000644E-04   4.1269092E+04   -1.6946106E+00
   6.2286969E-04   4.0948175E+04   -1.6940630E+00
