#        a       HoverH0(a)       dlogHdloga_of_a(a)
   1.0000000E-04   1.1764740E+06   -1.8788139E+00
   1.0046181E-04   1.1663349E+06   -1.8783904E+00
   1.0092575E-04   1.1562854E+06   -1.8779658E+00
   1.0139184E-04   1.1463247E+06   -1.8775403E+00
   1.0186008E-04   1.1364520E+06   -1.8771137E+00
   1.0233048E-04   1.1266666E+06   -1.8766862E+00
   1.0280305E-04   1.1169677E+06   -1.8762576E+00
   1.0327781E-04   1.1073544E+06   -1.8758281E+00
   1.0375475E-04   1.0978261E+06   -1.8753975E+00
   1.0423390E-04   1.0883819E+06   -1.8749660E+00
   1.0471527E-04   1.0790211E+06   -1.8745334E+00
   1.0519885E-04   1.0697429E+06   -1.8740999E+00
   1.0568467E-04   1.0605467E+06   -1.8736654E+00
   1.0617274E-04   1.0514316E+06   -1.8732299E+00
   1.0666305E-04   1.0423969E+06   -1.8727933E+00
   1.0715563E-04   1.0334420E+06   -1.8723558E+00
   1.0765049E-04   1.0245660E+06   -1.8719174E+00
   1.0814763E-04   1.0157684E+06   -1.8714779E+00
   1.0864707E-04   1.0070483E+06   -1.8710374E+00
   1.0914881E-04   9.9840510E+05   -1.8705960E+00
   1.0965287E-04   9.8983811E+05   -1.8701536E+00
   1.1015926E-04   9.8134663E+05   -1.8697102E+00
   1.1066799E-04   9.7292998E+05   -1.8692658E+00
   1.1117906E-04   9.6458750E+05   -1.8688204E+00
   1.1169250E-04   9.5631852E+05   -1.8683741E+00
   1.1220831E-04   9.4812238E+05   -1.8679268E+00
   1.1272650E-04   9.3999842E+05   -1.8674785E+00
   1.1324708E-04   9.3194599E+05   -1.8670292E+00
   1.1377007E-04   9.2396447E+05   -1.8665790E+00
   1.1429547E-04   9.1605320E+05   -1.8661278E+00
   1.1482330E-04   9.0821156E+05   -1.8656756E+00
   1.1535356E-04   9.0043893E+05   -1.8652225E+00
   1.1588628E-04   8.9273468E+05   -1.8647684E+00
   1.1642145E-04   8.8509820E+05   -1.8643133E+00
   1.1695910E-04   8.7752889E+05   -1.8638573E+00
   1.1749923E-04   8.7002614E+05   -1.8634004E+00
   1.1804185E-04   8.6258935E+05   -1.8629424E+00
   1.1858698E-04   8.5521794E+05   -1.8624835E+00
   1.1913463E-04   8.4791132E+05   -1.8620237E+00
   1.1968481E-04   8.4066890E+05   -1.8615629E+00
   1.2023752E-04   8.3349012E+05   -1.8611012E+00
   1.2079279E-04   8.2637440E+05   -1.8606385E+00
   1.2135063E-04   8.1932118E+05   -1.8601749E+00
   1.2191104E-04   8.1232989E+05   -1.8597103E+00
   1.2247403E-04   8.0539999E+05   -1.8592448E+00
   1.2303963E-04   7.9853092E+05   -1.8587783E+00
   1.2360784E-04   7.9172214E+05   -1.8583110E+00
   1.2417868E-04   7.8497310E+05   -1.8578426E+00
   1.2475215E-04   7.7828328E+05   -1.8573734E+00
   1.2532826E-04   7.7165214E+05   -1.8569032E+00
   1.2590704E-04   7.6507916E+05   -1.8564321E+00
   1.2648850E-04   7.5856381E+05   -1.8559601E+00
   1.2707263E-04   7.5210559E+05   -1.8554871E+00
   1.2765947E-04   7.4570398E+05   -1.8550132E+00
   1.2824901E-04   7.3935847E+05   -1.8545385E+00
   1.2884128E-04   7.3306857E+05   -1.8540627E+00
   1.2943628E-04   7.2683376E+05   -1.8535861E+00
   1.3003403E-04   7.2065357E+05   -1.8531086E+00
   1.3063454E-04   7.1452751E+05   -1.8526301E+00
   1.3123783E-04   7.0845508E+05   -1.8521508E+00
   1.3184390E-04   7.0243581E+05   -1.8516705E+00
   1.3245277E-04   6.9646923E+05   -1.8511894E+00
   1.3306445E-04   6.9055485E+05   -1.8507073E+00
   1.3367895E-04   6.8469223E+05   -1.8502244E+00
   1.3429630E-04   6.7888089E+05   -1.8497406E+00
   1.3491649E-04   6.7312037E+05   -1.8492558E+00
   1.3553955E-04   6.6741023E+05   -1.8487702E+00
   1.3616548E-04   6.6175001E+05   -1.8482837E+00
   1.3679431E-04   6.5613926E+05   -1.8477963E+00
   1.3742604E-04   6.5057755E+05   -1.8473081E+00
   1.3806069E-04   6.4506444E+05   -1.8468189E+00
   1.3869827E-04   6.3959948E+05   -1.8463289E+00
   1.3933879E-04   6.3418226E+05   -1.8458380E+00
   1.3998227E-04   6.2881235E+05   -1.8453463E+00
   1.4062872E-04   6.2348931E+05   -1.8448536E+00
   1.4127816E-04   6.1821275E+05   -1.8443602E+00
   1.4193060E-04   6.1298223E+05   -1.8438658E+00
   1.4258605E-04   6.0779735E+05   -1.8433706E+00
   1.4324453E-04   6.0265770E+05   -1.8428746E+00
   1.4390605E-04   5.9756288E+05   -1.8423777E+00
   1.4457062E-04   5.9251250E+05   -1.8418799E+00
   1.4523826E-04   5.8750614E+05   -1.8413813E+00
   1.4590899E-04   5.8254343E+05   -1.8408819E+00
   1.4658281E-04   5.7762396E+05   -1.8403817E+00
   1.4725974E-04   5.7274736E+05   -1.8398806E+00
   1.4793981E-04   5.6791325E+05   -1.8393786E+00
   1.4862301E-04   5.6312123E+05   -1.8388759E+00
   1.4930936E-04   5.5837095E+05   -1.8383723E+00
   1.4999889E-04   5.5366203E+05   -1.8378679E+00
   1.5069160E-04   5.4899409E+05   -1.8373626E+00
   1.5138751E-04   5.4436677E+05   -1.8368566E+00
   1.5208663E-04   5.3977972E+05   -1.8363498E+00
   1.5278899E-04   5.3523257E+05   -1.8358421E+00
   1.5349458E-04   5.3072497E+05   -1.8353336E+00
   1.5420343E-04   5.2625657E+05   -1.8348244E+00
   1.5491556E-04   5.2182701E+05   -1.8343143E+00
   1.5563098E-04   5.1743596E+05   -1.8338035E+00
   1.5634970E-04   5.1308306E+05   -1.8332918E+00
   1.5707174E-04   5.0876798E+05   -1.8327794E+00
   1.5779711E-04   5.0449038E+05   -1.8322662E+00
   1.5852584E-04   5.0024993E+05   -1.8317522E+00
   1.5925792E-04   4.9604630E+05   -1.8312374E+00
   1.5999339E-04   4.9187916E+05   -1.8307219E+00
   1.6073226E-04   4.8774819E+05   -1.8302056E+00
   1.6147454E-04   4.8365306E+05   -1.8296885E+00
   1.6222024E-04   4.7959346E+05   -1.8291707E+00
   1.6296939E-04   4.7556907E+05   -1.8286521E+00
   1.6372200E-04   4.7157957E+05   -1.8281328E+00
   1.6447809E-04   4.6762466E+05   -1.8276127E+00
   1.6523767E-04   4.6370404E+05   -1.8270919E+00
   1.6600075E-04   4.5981739E+05   -1.8265703E+00
   1.6676736E-04   4.5596441E+05   -1.8260480E+00
   1.6753751E-04   4.5214480E+05   -1.8255250E+00
   1.6831122E-04   4.4835828E+05   -1.8250012E+00
   1.6908849E-04   4.4460453E+05   -1.8244767E+00
   1.6986936E-04   4.4088328E+05   -1.8239515E+00
   1.7065384E-04   4.3719424E+05   -1.8234255E+00
   1.7144193E-04   4.3353711E+05   -1.8228989E+00
   1.7223367E-04   4.2991162E+05   -1.8223716E+00
   1.7302906E-04   4.2631749E+05   -1.8218435E+00
   1.7382813E-04   4.2275443E+05   -1.8213147E+00
   1.7463089E-04   4.1922218E+05   -1.8207853E+00
   1.7543735E-04   4.1572045E+05   -1.8202552E+00
   1.7624754E-04   4.1224898E+05   -1.8197243E+00
   1.7706147E-04   4.0880749E+05   -1.8191928E+00
   1.7787916E-04   4.0539573E+05   -1.8186606E+00
   1.7870062E-04   4.0201343E+05   -1.8181278E+00
   1.7952588E-04   3.9866033E+05   -1.8175942E+00
   1.8035495E-04   3.9533617E+05   -1.8170600E+00
   1.8118785E-04   3.9204069E+05   -1.8165252E+00
   1.8202459E-04   3.8877365E+05   -1.8159896E+00
   1.8286520E-04   3.8553477E+05   -1.8154535E+00
   1.8370969E-04   3.8232383E+05   -1.8149167E+00
   1.8455808E-04   3.7914057E+05   -1.8143792E+00
   1.8541039E-04   3.7598475E+05   -1.8138411E+00
   1.8626663E-04   3.7285611E+05   -1.8133024E+00
   1.8712683E-04   3.6975443E+05   -1.8127630E+00
   1.8799100E-04   3.6667947E+05   -1.8122230E+00
   1.8885917E-04   3.6363098E+05   -1.8116824E+00
   1.8973134E-04   3.6060873E+05   -1.8111412E+00
   1.9060754E-04   3.5761249E+05   -1.8105994E+00
   1.9148778E-04   3.5464204E+05   -1.8100569E+00
   1.9237209E-04   3.5169714E+05   -1.8095139E+00
   1.9326049E-04   3.4877756E+05   -1.8089702E+00
   1.9415299E-04   3.4588309E+05   -1.8084260E+00
   1.9504960E-04   3.4301350E+05   -1.8078812E+00
   1.9595036E-04   3.4016857E+05   -1.8073358E+00
   1.9685528E-04   3.3734809E+05   -1.8067898E+00
   1.9776438E-04   3.3455184E+05   -1.8062433E+00
   1.9867768E-04   3.3177959E+05   -1.8056962E+00
   1.9959519E-04   3.2903115E+05   -1.8051485E+00
   2.0051694E-04   3.2630630E+05   -1.8046003E+00
   2.0144295E-04   3.2360484E+05   -1.8040515E+00
   2.0237324E-04   3.2092655E+05   -1.8035022E+00
   2.0330782E-04   3.1827124E+05   -1.8029523E+00
   2.0424671E-04   3.1563869E+05   -1.8024019E+00
   2.0518995E-04   3.1302871E+05   -1.8018510E+00
   2.0613754E-04   3.1044111E+05   -1.8012995E+00
   2.0708950E-04   3.0787567E+05   -1.8007475E+00
   2.0804586E-04   3.0533222E+05   -1.8001950E+00
   2.0900664E-04   3.0281054E+05   -1.7996420E+00
   2.0997185E-04   3.0031046E+05   -1.7990884E+00
   2.1094152E-04   2.9783178E+05   -1.7985344E+00
   2.1191567E-04   2.9537431E+05   -1.7979799E+00
   2.1289432E-04   2.9293787E+05   -1.7974249E+00
   2.1387749E-04   2.9052227E+05   -1.7968694E+00
   2.1486520E-04   2.8812733E+05   -1.7963134E+00
   2.1585747E-04   2.8575286E+05   -1.7957570E+00
   2.1685432E-04   2.8339868E+05   -1.7952000E+00
   2.1785578E-04   2.8106463E+05   -1.7946426E+00
   2.1886186E-04   2.7875051E+05   -1.7940848E+00
   2.1987259E-04   2.7645615E+05   -1.7935265E+00
   2.2088798E-04   2.7418139E+05   -1.7929677E+00
   2.2190807E-04   2.7192604E+05   -1.7924085E+00
   2.2293286E-04   2.6968994E+05   -1.7918489E+00
   2.2396239E-04   2.6747292E+05   -1.7912889E+00
   2.2499667E-04   2.6527481E+05   -1.7907284E+00
   2.2603573E-04   2.6309544E+05   -1.7901675E+00
   2.2707958E-04   2.6093466E+05   -1.7896061E+00
   2.2812826E-04   2.5879228E+05   -1.7890444E+00
   2.2918178E-04   2.5666816E+05   -1.7884822E+00
   2.3024017E-04   2.5456214E+05   -1.7879197E+00
   2.3130344E-04   2.5247405E+05   -1.7873568E+00
   2.3237162E-04   2.5040374E+05   -1.7867934E+00
   2.3344474E-04   2.4835105E+05   -1.7862297E+00
   2.3452281E-04   2.4631583E+05   -1.7856657E+00
   2.3560586E-04   2.4429792E+05   -1.7851012E+00
   2.3669392E-04   2.4229717E+05   -1.7845364E+00
   2.3778699E-04   2.4031343E+05   -1.7839712E+00
   2.3888512E-04   2.3834656E+05   -1.7834057E+00
   2.3998831E-04   2.3639640E+05   -1.7828398E+00
   2.4109661E-04   2.3446281E+05   -1.7822736E+00
   2.4221001E-04   2.3254564E+05   -1.7817070E+00
   2.4332857E-04   2.3064475E+05   -1.7811401E+00
   2.4445228E-04   2.2875999E+05   -1.7805729E+00
   2.4558119E-04   2.2689123E+05   -1.7800053E+00
   2.4671531E-04   2.2503833E+05   -1.7794375E+00
   2.4785467E-04   2.2320114E+05   -1.7788693E+00
   2.4899928E-04   2.2137953E+05   -1.7783009E+00
   2.5014919E-04   2.1957336E+05   -1.7777321E+00
   2.5130440E-04   2.1778250E+05   -1.7771630E+00
   2.5246495E-04   2.1600681E+05   -1.7765937E+00
   2.5363086E-04   2.1424616E+05   -1.7760241E+00
   2.5480216E-04   2.1250042E+05   -1.7754542E+00
   2.5597886E-04   2.1076945E+05   -1.7748840E+00
   2.5716100E-04   2.0905314E+05   -1.7743136E+00
   2.5834859E-04   2.0735135E+05   -1.7737429E+00
   2.5954168E-04   2.0566395E+05   -1.7731720E+00
   2.6074027E-04   2.0399082E+05   -1.7726008E+00
   2.6194439E-04   2.0233184E+05   -1.7720294E+00
   2.6315408E-04   2.0068687E+05   -1.7714578E+00
   2.6436935E-04   1.9905581E+05   -1.7708859E+00
   2.6559024E-04   1.9743852E+05   -1.7703138E+00
   2.6681676E-04   1.9583488E+05   -1.7697415E+00
   2.6804895E-04   1.9424479E+05   -1.7691690E+00
   2.6928683E-04   1.9266811E+05   -1.7685963E+00
   2.7053042E-04   1.9110474E+05   -1.7680234E+00
   2.7177976E-04   1.8955455E+05   -1.7674502E+00
   2.7303487E-04   1.8801743E+05   -1.7668770E+00
   2.7429577E-04   1.8649327E+05   -1.7663035E+00
   2.7556250E-04   1.8498195E+05   -1.7657298E+00
   2.7683507E-04   1.8348337E+05   -1.7651560E+00
   2.7811353E-04   1.8199741E+05   -1.7645821E+00
   2.7939788E-04   1.8052396E+05   -1.7640079E+00
   2.8068817E-04   1.7906291E+05   -1.7634337E+00
   2.8198442E-04   1.7761416E+05   -1.7628593E+00
   2.8328665E-04   1.7617760E+05   -1.7622847E+00
   2.8459490E-04   1.7475311E+05   -1.7617100E+00
   2.8590919E-04   1.7334061E+05   -1.7611352E+00
   2.8722955E-04   1.7193998E+05   -1.7605603E+00
   2.8855600E-04   1.7055111E+05   -1.7599852E+00
   2.8988859E-04   1.6917391E+05   -1.7594101E+00
   2.9122732E-04   1.6780828E+05   -1.7588349E+00
   2.9257224E-04   1.6645412E+05   -1.7582595E+00
   2.9392337E-04   1.6511131E+05   -1.7576841E+00
   2.9528074E-04   1.6377978E+05   -1.7571086E+00
   2.9664438E-04   1.6245942E+05   -1.7565330E+00
   2.9801431E-04   1.6115012E+05   -1.7559573E+00
   2.9939057E-04   1.5985180E+05   -1.7553816E+00
   3.0077319E-04   1.5856437E+05   -1.7548058E+00
   3.0216219E-04   1.5728772E+05   -1.7542300E+00
   3.0355761E-04   1.5602176E+05   -1.7536541E+00
   3.0495947E-04   1.5476640E+05   -1.7530782E+00
   3.0636780E-04   1.5352155E+05   -1.7525023E+00
   3.0778264E-04   1.5228712E+05   -1.7519263E+00
   3.0920401E-04   1.5106301E+05   -1.7513503E+00
   3.1063195E-04   1.4984914E+05   -1.7507743E+00
   3.1206648E-04   1.4864542E+05   -1.7501983E+00
   3.1350764E-04   1.4745176E+05   -1.7496223E+00
   3.1495545E-04   1.4626808E+05   -1.7490462E+00
   3.1640994E-04   1.4509428E+05   -1.7484702E+00
   3.1787116E-04   1.4393028E+05   -1.7478942E+00
   3.1933912E-04   1.4277600E+05   -1.7473183E+00
   3.2081386E-04   1.4163135E+05   -1.7467423E+00
   3.2229541E-04   1.4049625E+05   -1.7461664E+00
   3.2378381E-04   1.3937062E+05   -1.7455905E+00
   3.2527908E-04   1.3825438E+05   -1.7450147E+00
   3.2678125E-04   1.3714744E+05   -1.7444389E+00
   3.2829036E-04   1.3604972E+05   -1.7438632E+00
   3.2980644E-04   1.3496114E+05   -1.7432876E+00
   3.3132952E-04   1.3388163E+05   -1.7427120E+00
   3.3285963E-04   1.3281111E+05   -1.7421365E+00
   3.3439681E-04   1.3174950E+05   -1.7415611E+00
   3.3594109E-04   1.3069672E+05   -1.7409858E+00
   3.3749250E-04   1.2965269E+05   -1.7404105E+00
   3.3905108E-04   1.2861735E+05   -1.7398354E+00
   3.4061685E-04   1.2759061E+05   -1.7392604E+00
   3.4218986E-04   1.2657241E+05   -1.7386854E+00
   3.4377013E-04   1.2556266E+05   -1.7381107E+00
   3.4535769E-04   1.2456130E+05   -1.7375360E+00
   3.4695259E-04   1.2356825E+05   -1.7369614E+00
   3.4855485E-04   1.2258344E+05   -1.7363870E+00
   3.5016452E-04   1.2160680E+05   -1.7358128E+00
   3.5178161E-04   1.2063826E+05   -1.7352387E+00
   3.5340618E-04   1.1967775E+05   -1.7346647E+00
   3.5503824E-04   1.1872521E+05   -1.7340909E+00
   3.5667785E-04   1.1778056E+05   -1.7335173E+00
   3.5832502E-04   1.1684373E+05   -1.7329439E+00
   3.5997981E-04   1.1591466E+05   -1.7323706E+00
   3.6164223E-04   1.1499328E+05   -1.7317975E+00
   3.6331233E-04   1.1407952E+05   -1.7312246E+00
   3.6499015E-04   1.1317333E+05   -1.7306519E+00
   3.6667571E-04   1.1227463E+05   -1.7300794E+00
   3.6836906E-04   1.1138336E+05   -1.7295072E+00
   3.7007022E-04   1.1049946E+05   -1.7289351E+00
   3.7177925E-04   1.0962286E+05   -1.7283632E+00
   3.7349616E-04   1.0875350E+05   -1.7277916E+00
   3.7522101E-04   1.0789132E+05   -1.7272202E+00
   3.7695382E-04   1.0703625E+05   -1.7266491E+00
   3.7869463E-04   1.0618824E+05   -1.7260782E+00
   3.8044348E-04   1.0534723E+05   -1.7255075E+00
   3.8220041E-04   1.0451315E+05   -1.7249371E+00
   3.8396545E-04   1.0368595E+05   -1.7243670E+00
   3.8573864E-04   1.0286557E+05   -1.7237971E+00
   3.8752002E-04   1.0205195E+05   -1.7232276E+00
   3.8930963E-04   1.0124502E+05   -1.7226583E+00
   3.9110750E-04   1.0044474E+05   -1.7220892E+00
   3.9291368E-04   9.9651049E+04   -1.7215205E+00
   3.9472820E-04   9.8863886E+04   -1.7209521E+00
   3.9655109E-04   9.8083199E+04   -1.7203839E+00
   3.9838241E-04   9.7308931E+04   -1.7198161E+00
   4.0022218E-04   9.6541027E+04   -1.7192486E+00
   4.0207045E-04   9.5779434E+04   -1.7186814E+00
   4.0392725E-04   9.5024097E+04   -1.7181146E+00
   4.0579263E-04   9.4274963E+04   -1.7175480E+00
   4.0766662E-04   9.3531979E+04   -1.7169819E+00
   4.0954927E-04   9.2795092E+04   -1.7164160E+00
   4.1144061E-04   9.2064251E+04   -1.7158505E+00
   4.1334068E-04   9.1339404E+04   -1.7152854E+00
   4.1524953E-04   9.0620499E+04   -1.7147206E+00
   4.1716720E-04   8.9907487E+04   -1.7141562E+00
   4.1909372E-04   8.9200316E+04   -1.7135921E+00
   4.2102914E-04   8.8498938E+04   -1.7130285E+00
   4.2297350E-04   8.7803303E+04   -1.7124652E+00
   4.2492683E-04   8.7113361E+04   -1.7119023E+00
   4.2688919E-04   8.6429065E+04   -1.7113398E+00
   4.2886061E-04   8.5750367E+04   -1.7107777E+00
   4.3084113E-04   8.5077219E+04   -1.7102160E+00
   4.3283080E-04   8.4409573E+04   -1.7096547E+00
   4.3482966E-04   8.3747383E+04   -1.7090939E+00
   4.3683775E-04   8.3090602E+04   -1.7085334E+00
   4.3885511E-04   8.2439185E+04   -1.7079734E+00
   4.4088179E-04   8.1793086E+04   -1.7074138E+00
   4.4291783E-04   8.1152260E+04   -1.7068547E+00
   4.4496327E-04   8.0516662E+04   -1.7062960E+00
   4.4701816E-04   7.9886247E+04   -1.7057377E+00
   4.4908253E-04   7.9260972E+04   -1.7051799E+00
   4.5115644E-04   7.8640793E+04   -1.7046226E+00
   4.5323993E-04   7.8025668E+04   -1.7040657E+00
   4.5533304E-04   7.7415552E+04   -1.7035093E+00
   4.5743582E-04   7.6810404E+04   -1.7029534E+00
   4.5954830E-04   7.6210181E+04   -1.7023979E+00
   4.6167054E-04   7.5614842E+04   -1.7018430E+00
   4.6380259E-04   7.5024346E+04   -1.7012885E+00
   4.6594448E-04   7.4438651E+04   -1.7007345E+00
   4.6809626E-04   7.3857716E+04   -1.7001810E+00
   4.7025797E-04   7.3281503E+04   -1.6996281E+00
   4.7242967E-04   7.2709969E+04   -1.6990756E+00
   4.7461140E-04   7.2143077E+04   -1.6985237E+00
   4.7680321E-04   7.1580787E+04   -1.6979723E+00
   4.7900514E-04   7.1023059E+04   -1.6974214E+00
   4.8121723E-04   7.0469856E+04   -1.6968710E+00
   4.8343954E-04   6.9921139E+04   -1.6963212E+00
   4.8567212E-04   6.9376871E+04   -1.6957719E+00
   4.8791500E-04   6.8837013E+04   -1.6952232E+00
   4.9016825E-04   6.8301528E+04   -1.6946750E+00
   4.9243189E-04   6.7770381E+04   -1.6941274E+00
   4.9470600E-04   6.7243533E+04   -1.6935804E+00
   4.9699060E-04   6.6720949E+04   -1.6930339E+00
   4.9928575E-04   6.6202593E+04   -1.6924880E+00
   5.0159151E-04   6.5688429E+04   -1.6919426E+00
   5.0390791E-04   6.5178422E+04   -1.6913979E+00
   5.0623501E-04   6.4672537E+04   -1.6908537E+00
   5.0857286E-04   6.4170739E+04   -1.6903101E+00
   5.1092150E-04   6.3672994E+04   -1.6897672E+00
   5.1328099E-04   6.3179268E+04   -1.6892248E+00
   5.1565137E-04   6.2689527E+04   -1.6886830E+00
   5.1803270E-04   6.2203738E+04   -1.6881418E+00
   5.2042503E-04   6.1721866E+04   -1.6876013E+00
   5.2282841E-04   6.1243880E+04   -1.6870614E+00
   5.2524289E-04   6.0769747E+04   -1.6865221E+00
   5.2766851E-04   6.0299434E+04   -1.6859834E+00
   5.3010534E-04   5.9832909E+04   -1.6854454E+00
   5.3255342E-04   5.9370141E+04   -1.6849080E+00
   5.3501281E-04   5.8911098E+04   -1.6843712E+00
   5.3748356E-04   5.8455748E+04   -1.6838351E+00
   5.3996571E-04   5.8004062E+04   -1.6832997E+00
   5.4245933E-04   5.7556007E+04   -1.6827649E+00
   5.4496446E-04   5.7111554E+04   -1.6822307E+00
   5.4748117E-04   5.6670673E+04   -1.6816972E+00
   5.5000949E-04   5.6233333E+04   -1.6811644E+00
   5.5254949E-04   5.5799505E+04   -1.6806323E+00
   5.5510123E-04   5.5369160E+04   -1.6801009E+00
   5.5766474E-04   5.4942268E+04   -1.6795701E+00
   5.6024010E-04   5.4518800E+04   -1.6790400E+00
   5.6282734E-04   5.4098729E+04   -1.6785106E+00
   5.6542654E-04   5.3682025E+04   -1.6779819E+00
   5.6803774E-04   5.3268660E+04   -1.6774539E+00
   5.7066099E-04   5.2858607E+04   -1.6769267E+00
   5.7329637E-04   5.2451838E+04   -1.6764001E+00
   5.7594391E-04   5.2048325E+04   -1.6758742E+00
   5.7860368E-04   5.1648042E+04   -1.6753491E+00
   5.8127573E-04   5.1250961E+04   -1.6748246E+00
   5.8396012E-04   5.0857055E+04   -1.6743009E+00
   5.8665691E-04   5.0466299E+04   -1.6737780E+00
   5.8936616E-04   5.0078666E+04   -1.6732557E+00
   5.9208791E-04   4.9694129E+04   -1.6727342E+00
   5.9482223E-04   4.9312664E+04   -1.6722134E+00
   5.9756919E-04   4.8934244E+04   -1.6716934E+00
   6.0032882E-04   4.8558845E+04   -1.6711741E+00
   6.0310120E-04   4.8186440E+04   -1.6706556E+00
   6.0588639E-04   4.7817006E+04   -1.6701379E+00
   6.0868443E-04   4.7450517E+04   -1.6696209E+00
   6.1149540E-04   4.7086949E+04   -1.6691046E+00
   6.1431935E-04   4.6726278E+04   -1.6685892E+00
   6.1715634E-04   4.6368480E+04   -1.6680745E+00
   6.2000644E-04   4.6013531E+04   -1.6675605E+00
   6.2286969E-04   4.5661406E+04   -1.6670474E+00
