#        a       HoverH0(a)       dlogHdloga_of_a(a)
   1.0000000E-04   1.1114587E+06   -1.8876917E+00
   1.0046181E-04   1.1018348E+06   -1.8872899E+00
   1.0092575E-04   1.0922962E+06   -1.8868872E+00
   1.0139184E-04   1.0828422E+06   -1.8864834E+00
   1.0186008E-04   1.0734720E+06   -1.8860786E+00
   1.0233048E-04   1.0641848E+06   -1.8856728E+00
   1.0280305E-04   1.0549800E+06   -1.8852659E+00
   1.0327781E-04   1.0458568E+06   -1.8848581E+00
   1.0375475E-04   1.0368144E+06   -1.8844492E+00
   1.0423390E-04   1.0278522E+06   -1.8840393E+00
   1.0471527E-04   1.0189693E+06   -1.8836284E+00
   1.0519885E-04   1.0101652E+06   -1.8832165E+00
   1.0568467E-04   1.0014389E+06   -1.8828036E+00
   1.0617274E-04   9.9279001E+05   -1.8823897E+00
   1.0666305E-04   9.8421766E+05   -1.8819747E+00
   1.0715563E-04   9.7572119E+05   -1.8815588E+00
   1.0765049E-04   9.6729993E+05   -1.8811418E+00
   1.0814763E-04   9.5895319E+05   -1.8807238E+00
   1.0864707E-04   9.5068031E+05   -1.8803048E+00
   1.0914881E-04   9.4248062E+05   -1.8798849E+00
   1.0965287E-04   9.3435346E+05   -1.8794639E+00
   1.1015926E-04   9.2629818E+05   -1.8790419E+00
   1.1066799E-04   9.1831414E+05   -1.8786188E+00
   1.1117906E-04   9.1040069E+05   -1.8781948E+00
   1.1169250E-04   9.0255720E+05   -1.8777698E+00
   1.1220831E-04   8.9478303E+05   -1.8773438E+00
   1.1272650E-04   8.8707758E+05   -1.8769168E+00
   1.1324708E-04   8.7944021E+05   -1.8764888E+00
   1.1377007E-04   8.7187032E+05   -1.8760597E+00
   1.1429547E-04   8.6436730E+05   -1.8756297E+00
   1.1482330E-04   8.5693054E+05   -1.8751987E+00
   1.1535356E-04   8.4955946E+05   -1.8747667E+00
   1.1588628E-04   8.4225346E+05   -1.8743337E+00
   1.1642145E-04   8.3501196E+05   -1.8738997E+00
   1.1695910E-04   8.2783438E+05   -1.8734647E+00
   1.1749923E-04   8.2072014E+05   -1.8730287E+00
   1.1804185E-04   8.1366867E+05   -1.8725918E+00
   1.1858698E-04   8.0667942E+05   -1.8721538E+00
   1.1913463E-04   7.9975181E+05   -1.8717149E+00
   1.1968481E-04   7.9288531E+05   -1.8712749E+00
   1.2023752E-04   7.8607935E+05   -1.8708340E+00
   1.2079279E-04   7.7933341E+05   -1.8703921E+00
   1.2135063E-04   7.7264693E+05   -1.8699492E+00
   1.2191104E-04   7.6601938E+05   -1.8695054E+00
   1.2247403E-04   7.5945023E+05   -1.8690605E+00
   1.2303963E-04   7.5293897E+05   -1.8686147E+00
   1.2360784E-04   7.4648506E+05   -1.8681679E+00
   1.2417868E-04   7.4008801E+05   -1.8677202E+00
   1.2475215E-04   7.3374728E+05   -1.8672714E+00
   1.2532826E-04   7.2746239E+05   -1.8668217E+00
   1.2590704E-04   7.2123282E+05   -1.8663710E+00
   1.2648850E-04   7.1505809E+05   -1.8659194E+00
   1.2707263E-04   7.0893770E+05   -1.8654668E+00
   1.2765947E-04   7.0287116E+05   -1.8650132E+00
   1.2824901E-04   6.9685800E+05   -1.8645587E+00
   1.2884128E-04   6.9089772E+05   -1.8641032E+00
   1.2943628E-04   6.8498987E+05   -1.8636467E+00
   1.3003403E-04   6.7913396E+05   -1.8631893E+00
   1.3063454E-04   6.7332953E+05   -1.8627309E+00
   1.3123783E-04   6.6757613E+05   -1.8622716E+00
   1.3184390E-04   6.6187328E+05   -1.8618113E+00
   1.3245277E-04   6.5622055E+05   -1.8613501E+00
   1.3306445E-04   6.5061748E+05   -1.8608879E+00
   1.3367895E-04   6.4506362E+05   -1.8604248E+00
   1.3429630E-04   6.3955854E+05   -1.8599607E+00
   1.3491649E-04   6.3410180E+05   -1.8594957E+00
   1.3553955E-04   6.2869297E+05   -1.8590297E+00
   1.3616548E-04   6.2333161E+05   -1.8585629E+00
   1.3679431E-04   6.1801730E+05   -1.8580950E+00
   1.3742604E-04   6.1274962E+05   -1.8576263E+00
   1.3806069E-04   6.0752816E+05   -1.8571566E+00
   1.3869827E-04   6.0235249E+05   -1.8566860E+00
   1.3933879E-04   5.9722221E+05   -1.8562145E+00
   1.3998227E-04   5.9213692E+05   -1.8557420E+00
   1.4062872E-04   5.8709620E+05   -1.8552686E+00
   1.4127816E-04   5.8209967E+05   -1.8547943E+00
   1.4193060E-04   5.7714692E+05   -1.8543191E+00
   1.4258605E-04   5.7223757E+05   -1.8538430E+00
   1.4324453E-04   5.6737122E+05   -1.8533659E+00
   1.4390605E-04   5.6254749E+05   -1.8528879E+00
   1.4457062E-04   5.5776601E+05   -1.8524091E+00
   1.4523826E-04   5.5302639E+05   -1.8519293E+00
   1.4590899E-04   5.4832825E+05   -1.8514486E+00
   1.4658281E-04   5.4367123E+05   -1.8509671E+00
   1.4725974E-04   5.3905497E+05   -1.8504846E+00
   1.4793981E-04   5.3447909E+05   -1.8500012E+00
   1.4862301E-04   5.2994323E+05   -1.8495170E+00
   1.4930936E-04   5.2544704E+05   -1.8490318E+00
   1.4999889E-04   5.2099016E+05   -1.8485458E+00
   1.5069160E-04   5.1657224E+05   -1.8480589E+00
   1.5138751E-04   5.1219294E+05   -1.8475711E+00
   1.5208663E-04   5.0785190E+05   -1.8470824E+00
   1.5278899E-04   5.0354879E+05   -1.8465929E+00
   1.5349458E-04   4.9928327E+05   -1.8461024E+00
   1.5420343E-04   4.9505501E+05   -1.8456112E+00
   1.5491556E-04   4.9086366E+05   -1.8451190E+00
   1.5563098E-04   4.8670890E+05   -1.8446260E+00
   1.5634970E-04   4.8259041E+05   -1.8441321E+00
   1.5707174E-04   4.7850786E+05   -1.8436374E+00
   1.5779711E-04   4.7446092E+05   -1.8431418E+00
   1.5852584E-04   4.7044929E+05   -1.8426453E+00
   1.5925792E-04   4.6647265E+05   -1.8421480E+00
   1.5999339E-04   4.6253068E+05   -1.8416499E+00
   1.6073226E-04   4.5862307E+05   -1.8411509E+00
   1.6147454E-04   4.5474952E+05   -1.8406511E+00
   1.6222024E-04   4.5090973E+05   -1.8401504E+00
   1.6296939E-04   4.4710340E+05   -1.8396489E+00
   1.6372200E-04   4.4333022E+05   -1.8391466E+00
   1.6447809E-04   4.3958990E+05   -1.8386434E+00
   1.6523767E-04   4.3588215E+05   -1.8381395E+00
   1.6600075E-04   4.3220668E+05   -1.8376347E+00
   1.6676736E-04   4.2856319E+05   -1.8371291E+00
   1.6753751E-04   4.2495141E+05   -1.8366227E+00
   1.6831122E-04   4.2137106E+05   -1.8361154E+00
   1.6908849E-04   4.1782185E+05   -1.8356074E+00
   1.6986936E-04   4.1430350E+05   -1.8350986E+00
   1.7065384E-04   4.1081574E+05   -1.8345889E+00
   1.7144193E-04   4.0735830E+05   -1.8340785E+00
   1.7223367E-04   4.0393091E+05   -1.8335673E+00
   1.7302906E-04   4.0053331E+05   -1.8330553E+00
   1.7382813E-04   3.9716522E+05   -1.8325425E+00
   1.7463089E-04   3.9382638E+05   -1.8320289E+00
   1.7543735E-04   3.9051653E+05   -1.8315145E+00
   1.7624754E-04   3.8723542E+05   -1.8309994E+00
   1.7706147E-04   3.8398279E+05   -1.8304835E+00
   1.7787916E-04   3.8075839E+05   -1.8299669E+00
   1.7870062E-04   3.7756196E+05   -1.8294494E+00
   1.7952588E-04   3.7439326E+05   -1.8289312E+00
   1.8035495E-04   3.7125204E+05   -1.8284123E+00
   1.8118785E-04   3.6813806E+05   -1.8278926E+00
   1.8202459E-04   3.6505107E+05   -1.8273722E+00
   1.8286520E-04   3.6199083E+05   -1.8268510E+00
   1.8370969E-04   3.5895711E+05   -1.8263291E+00
   1.8455808E-04   3.5594968E+05   -1.8258064E+00
   1.8541039E-04   3.5296829E+05   -1.8252830E+00
   1.8626663E-04   3.5001271E+05   -1.8247589E+00
   1.8712683E-04   3.4708273E+05   -1.8242341E+00
   1.8799100E-04   3.4417810E+05   -1.8237085E+00
   1.8885917E-04   3.4129861E+05   -1.8231823E+00
   1.8973134E-04   3.3844403E+05   -1.8226553E+00
   1.9060754E-04   3.3561414E+05   -1.8221276E+00
   1.9148778E-04   3.3280872E+05   -1.8215992E+00
   1.9237209E-04   3.3002756E+05   -1.8210701E+00
   1.9326049E-04   3.2727044E+05   -1.8205404E+00
   1.9415299E-04   3.2453714E+05   -1.8200099E+00
   1.9504960E-04   3.2182746E+05   -1.8194787E+00
   1.9595036E-04   3.1914118E+05   -1.8189469E+00
   1.9685528E-04   3.1647810E+05   -1.8184144E+00
   1.9776438E-04   3.1383802E+05   -1.8178812E+00
   1.9867768E-04   3.1122072E+05   -1.8173474E+00
   1.9959519E-04   3.0862601E+05   -1.8168128E+00
   2.0051694E-04   3.0605369E+05   -1.8162777E+00
   2.0144295E-04   3.0350356E+05   -1.8157418E+00
   2.0237324E-04   3.0097541E+05   -1.8152054E+00
   2.0330782E-04   2.9846907E+05   -1.8146682E+00
   2.0424671E-04   2.9598433E+05   -1.8141305E+00
   2.0518995E-04   2.9352100E+05   -1.8135921E+00
   2.0613754E-04   2.9107890E+05   -1.8130530E+00
   2.0708950E-04   2.8865783E+05   -1.8125134E+00
   2.0804586E-04   2.8625761E+05   -1.8119731E+00
   2.0900664E-04   2.8387806E+05   -1.8114322E+00
   2.0997185E-04   2.8151898E+05   -1.8108907E+00
   2.1094152E-04   2.7918021E+05   -1.8103486E+00
   2.1191567E-04   2.7686157E+05   -1.8098059E+00
   2.1289432E-04   2.7456286E+05   -1.8092625E+00
   2.1387749E-04   2.7228392E+05   -1.8087186E+00
   2.1486520E-04   2.7002458E+05   -1.8081741E+00
   2.1585747E-04   2.6778465E+05   -1.8076290E+00
   2.1685432E-04   2.6556398E+05   -1.8070833E+00
   2.1785578E-04   2.6336238E+05   -1.8065371E+00
   2.1886186E-04   2.6117969E+05   -1.8059903E+00
   2.1987259E-04   2.5901574E+05   -1.8054429E+00
   2.2088798E-04   2.5687037E+05   -1.8048950E+00
   2.2190807E-04   2.5474342E+05   -1.8043465E+00
   2.2293286E-04   2.5263471E+05   -1.8037974E+00
   2.2396239E-04   2.5054410E+05   -1.8032478E+00
   2.2499667E-04   2.4847141E+05   -1.8026977E+00
   2.2603573E-04   2.4641650E+05   -1.8021470E+00
   2.2707958E-04   2.4437920E+05   -1.8015958E+00
   2.2812826E-04   2.4235936E+05   -1.8010441E+00
   2.2918178E-04   2.4035682E+05   -1.8004919E+00
   2.3024017E-04   2.3837144E+05   -1.7999391E+00
   2.3130344E-04   2.3640306E+05   -1.7993859E+00
   2.3237162E-04   2.3445153E+05   -1.7988321E+00
   2.3344474E-04   2.3251671E+05   -1.7982778E+00
   2.3452281E-04   2.3059844E+05   -1.7977231E+00
   2.3560586E-04   2.2869658E+05   -1.7971678E+00
   2.3669392E-04   2.2681099E+05   -1.7966121E+00
   2.3778699E-04   2.2494152E+05   -1.7960559E+00
   2.3888512E-04   2.2308804E+05   -1.7954992E+00
   2.3998831E-04   2.2125039E+05   -1.7949420E+00
   2.4109661E-04   2.1942844E+05   -1.7943844E+00
   2.4221001E-04   2.1762206E+05   -1.7938263E+00
   2.4332857E-04   2.1583110E+05   -1.7932678E+00
   2.4445228E-04   2.1405543E+05   -1.7927089E+00
   2.4558119E-04   2.1229492E+05   -1.7921495E+00
   2.4671531E-04   2.1054943E+05   -1.7915896E+00
   2.4785467E-04   2.0881883E+05   -1.7910293E+00
   2.4899928E-04   2.0710299E+05   -1.7904686E+00
   2.5014919E-04   2.0540178E+05   -1.7899075E+00
   2.5130440E-04   2.0371507E+05   -1.7893460E+00
   2.5246495E-04   2.0204274E+05   -1.7887841E+00
   2.5363086E-04   2.0038465E+05   -1.7882217E+00
   2.5480216E-04   1.9874068E+05   -1.7876590E+00
   2.5597886E-04   1.9711072E+05   -1.7870959E+00
   2.5716100E-04   1.9549462E+05   -1.7865323E+00
   2.5834859E-04   1.9389229E+05   -1.7859684E+00
   2.5954168E-04   1.9230358E+05   -1.7854042E+00
   2.6074027E-04   1.9072839E+05   -1.7848395E+00
   2.6194439E-04   1.8916659E+05   -1.7842745E+00
   2.6315408E-04   1.8761807E+05   -1.7837092E+00
   2.6436935E-04   1.8608272E+05   -1.7831435E+00
   2.6559024E-04   1.8456040E+05   -1.7825774E+00
   2.6681676E-04   1.8305102E+05   -1.7820110E+00
   2.6804895E-04   1.8155446E+05   -1.7814443E+00
   2.6928683E-04   1.8007060E+05   -1.7808772E+00
   2.7053042E-04   1.7859934E+05   -1.7803099E+00
   2.7177976E-04   1.7714056E+05   -1.7797422E+00
   2.7303487E-04   1.7569416E+05   -1.7791741E+00
   2.7429577E-04   1.7426002E+05   -1.7786058E+00
   2.7556250E-04   1.7283804E+05   -1.7780372E+00
   2.7683507E-04   1.7142812E+05   -1.7774683E+00
   2.7811353E-04   1.7003014E+05   -1.7768991E+00
   2.7939788E-04   1.6864400E+05   -1.7763296E+00
   2.8068817E-04   1.6726961E+05   -1.7757598E+00
   2.8198442E-04   1.6590685E+05   -1.7751898E+00
   2.8328665E-04   1.6455562E+05   -1.7746195E+00
   2.8459490E-04   1.6321583E+05   -1.7740490E+00
   2.8590919E-04   1.6188737E+05   -1.7734782E+00
   2.8722955E-04   1.6057015E+05   -1.7729071E+00
   2.8855600E-04   1.5926407E+05   -1.7723358E+00
   2.8988859E-04   1.5796902E+05   -1.7717643E+00
   2.9122732E-04   1.5668492E+05   -1.7711925E+00
   2.9257224E-04   1.5541167E+05   -1.7706205E+00
   2.9392337E-04   1.5414917E+05   -1.7700483E+00
   2.9528074E-04   1.5289732E+05   -1.7694759E+00
   2.9664438E-04   1.5165605E+05   -1.7689033E+00
   2.9801431E-04   1.5042525E+05   -1.7683304E+00
   2.9939057E-04   1.4920483E+05   -1.7677574E+00
   3.0077319E-04   1.4799470E+05   -1.7671842E+00
   3.0216219E-04   1.4679478E+05   -1.7666108E+00
   3.0355761E-04   1.4560497E+05   -1.7660372E+00
   3.0495947E-04   1.4442518E+05   -1.7654635E+00
   3.0636780E-04   1.4325533E+05   -1.7648896E+00
   3.0778264E-04   1.4209534E+05   -1.7643156E+00
   3.0920401E-04   1.4094511E+05   -1.7637413E+00
   3.1063195E-04   1.3980456E+05   -1.7631670E+00
   3.1206648E-04   1.3867361E+05   -1.7625925E+00
   3.1350764E-04   1.3755217E+05   -1.7620179E+00
   3.1495545E-04   1.3644016E+05   -1.7614431E+00
   3.1640994E-04   1.3533750E+05   -1.7608682E+00
   3.1787116E-04   1.3424410E+05   -1.7602932E+00
   3.1933912E-04   1.3315990E+05   -1.7597181E+00
   3.2081386E-04   1.3208479E+05   -1.7591429E+00
   3.2229541E-04   1.3101872E+05   -1.7585676E+00
   3.2378381E-04   1.2996160E+05   -1.7579922E+00
   3.2527908E-04   1.2891334E+05   -1.7574167E+00
   3.2678125E-04   1.2787388E+05   -1.7568412E+00
   3.2829036E-04   1.2684314E+05   -1.7562655E+00
   3.2980644E-04   1.2582104E+05   -1.7556898E+00
   3.3132952E-04   1.2480751E+05   -1.7551140E+00
   3.3285963E-04   1.2380247E+05   -1.7545382E+00
   3.3439681E-04   1.2280585E+05   -1.7539624E+00
   3.3594109E-04   1.2181757E+05   -1.7533864E+00
   3.3749250E-04   1.2083757E+05   -1.7528105E+00
   3.3905108E-04   1.1986578E+05   -1.7522345E+00
   3.4061685E-04   1.1890211E+05   -1.7516585E+00
   3.4218986E-04   1.1794650E+05   -1.7510825E+00
   3.4377013E-04   1.1699888E+05   -1.7505065E+00
   3.4535769E-04   1.1605919E+05   -1.7499304E+00
   3.4695259E-04   1.1512735E+05   -1.7493544E+00
   3.4855485E-04   1.1420329E+05   -1.7487783E+00
   3.5016452E-04   1.1328695E+05   -1.7482023E+00
   3.5178161E-04   1.1237826E+05   -1.7476263E+00
   3.5340618E-04   1.1147716E+05   -1.7470503E+00
   3.5503824E-04   1.1058357E+05   -1.7464744E+00
   3.5667785E-04   1.0969744E+05   -1.7458985E+00
   3.5832502E-04   1.0881870E+05   -1.7453226E+00
   3.5997981E-04   1.0794728E+05   -1.7447468E+00
   3.6164223E-04   1.0708313E+05   -1.7441710E+00
   3.6331233E-04   1.0622617E+05   -1.7435953E+00
   3.6499015E-04   1.0537636E+05   -1.7430197E+00
   3.6667571E-04   1.0453361E+05   -1.7424441E+00
   3.6836906E-04   1.0369789E+05   -1.7418686E+00
   3.7007022E-04   1.0286912E+05   -1.7412932E+00
   3.7177925E-04   1.0204724E+05   -1.7407179E+00
   3.7349616E-04   1.0123219E+05   -1.7401427E+00
   3.7522101E-04   1.0042393E+05   -1.7395676E+00
   3.7695382E-04   9.9622377E+04   -1.7389926E+00
   3.7869463E-04   9.8827487E+04   -1.7384177E+00
   3.8044348E-04   9.8039198E+04   -1.7378430E+00
   3.8220041E-04   9.7257455E+04   -1.7372684E+00
   3.8396545E-04   9.6482201E+04   -1.7366939E+00
   3.8573864E-04   9.5713380E+04   -1.7361195E+00
   3.8752002E-04   9.4950936E+04   -1.7355453E+00
   3.8930963E-04   9.4194815E+04   -1.7349712E+00
   3.9110750E-04   9.3444962E+04   -1.7343973E+00
   3.9291368E-04   9.2701324E+04   -1.7338236E+00
   3.9472820E-04   9.1963847E+04   -1.7332500E+00
   3.9655109E-04   9.1232477E+04   -1.7326766E+00
   3.9838241E-04   9.0507164E+04   -1.7321034E+00
   4.0022218E-04   8.9787853E+04   -1.7315304E+00
   4.0207045E-04   8.9074495E+04   -1.7309576E+00
   4.0392725E-04   8.8367037E+04   -1.7303850E+00
   4.0579263E-04   8.7665430E+04   -1.7298125E+00
   4.0766662E-04   8.6969622E+04   -1.7292403E+00
   4.0954927E-04   8.6279565E+04   -1.7286683E+00
   4.1144061E-04   8.5595208E+04   -1.7280966E+00
   4.1334068E-04   8.4916503E+04   -1.7275250E+00
   4.1524953E-04   8.4243402E+04   -1.7269537E+00
   4.1716720E-04   8.3575856E+04   -1.7263827E+00
   4.1909372E-04   8.2913817E+04   -1.7258119E+00
   4.2102914E-04   8.2257239E+04   -1.7252413E+00
   4.2297350E-04   8.1606075E+04   -1.7246710E+00
   4.2492683E-04   8.0960278E+04   -1.7241010E+00
   4.2688919E-04   8.0319803E+04   -1.7235312E+00
   4.2886061E-04   7.9684604E+04   -1.7229617E+00
   4.3084113E-04   7.9054636E+04   -1.7223925E+00
   4.3283080E-04   7.8429854E+04   -1.7218236E+00
   4.3482966E-04   7.7810213E+04   -1.7212550E+00
   4.3683775E-04   7.7195670E+04   -1.7206867E+00
   4.3885511E-04   7.6586181E+04   -1.7201187E+00
   4.4088179E-04   7.5981703E+04   -1.7195510E+00
   4.4291783E-04   7.5382193E+04   -1.7189836E+00
   4.4496327E-04   7.4787609E+04   -1.7184165E+00
   4.4701816E-04   7.4197908E+04   -1.7178498E+00
   4.4908253E-04   7.3613050E+04   -1.7172834E+00
   4.5115644E-04   7.3032992E+04   -1.7167173E+00
   4.5323993E-04   7.2457694E+04   -1.7161516E+00
   4.5533304E-04   7.1887115E+04   -1.7155863E+00
   4.5743582E-04   7.1321214E+04   -1.7150213E+00
   4.5954830E-04   7.0759953E+04   -1.7144566E+00
   4.6167054E-04   7.0203291E+04   -1.7138924E+00
   4.6380259E-04   6.9651189E+04   -1.7133285E+00
   4.6594448E-04   6.9103609E+04   -1.7127650E+00
   4.6809626E-04   6.8560512E+04   -1.7122018E+00
   4.7025797E-04   6.8021859E+04   -1.7116391E+00
   4.7242967E-04   6.7487613E+04   -1.7110768E+00
   4.7461140E-04   6.6957737E+04   -1.7105148E+00
   4.7680321E-04   6.6432192E+04   -1.7099533E+00
   4.7900514E-04   6.5910943E+04   -1.7093922E+00
   4.8121723E-04   6.5393954E+04   -1.7088315E+00
   4.8343954E-04   6.4881187E+04   -1.7082712E+00
   4.8567212E-04   6.4372606E+04   -1.7077113E+00
   4.8791500E-04   6.3868177E+04   -1.7071519E+00
   4.9016825E-04   6.3367864E+04   -1.7065930E+00
   4.9243189E-04   6.2871632E+04   -1.7060344E+00
   4.9470600E-04   6.2379447E+04   -1.7054764E+00
   4.9699060E-04   6.1891273E+04   -1.7049187E+00
   4.9928575E-04   6.1407078E+04   -1.7043616E+00
   5.0159151E-04   6.0926827E+04   -1.7038049E+00
   5.0390791E-04   6.0450487E+04   -1.7032487E+00
   5.0623501E-04   5.9978024E+04   -1.7026929E+00
   5.0857286E-04   5.9509407E+04   -1.7021377E+00
   5.1092150E-04   5.9044602E+04   -1.7015829E+00
   5.1328099E-04   5.8583577E+04   -1.7010287E+00
   5.1565137E-04   5.8126300E+04   -1.7004749E+00
   5.1803270E-04   5.7672740E+04   -1.6999216E+00
   5.2042503E-04   5.7222864E+04   -1.6993688E+00
   5.2282841E-04   5.6776643E+04   -1.6988166E+00
   5.2524289E-04   5.6334044E+04   -1.6982649E+00
   5.2766851E-04   5.5895037E+04   -1.6977137E+00
   5.3010534E-04   5.5459593E+04   -1.6971630E+00
   5.3255342E-04   5.5027680E+04   -1.6966129E+00
   5.3501281E-04   5.4599269E+04   -1.6960633E+00
   5.3748356E-04   5.4174331E+04   -1.6955142E+00
   5.3996571E-04   5.3752835E+04   -1.6949657E+00
   5.4245933E-04   5.3334754E+04   -1.6944178E+00
   5.4496446E-04   5.2920059E+04   -1.6938704E+00
   5.4748117E-04   5.2508720E+04   -1.6933235E+00
   5.5000949E-04   5.2100709E+04   -1.6927773E+00
   5.5254949E-04   5.1695999E+04   -1.6922316E+00
   5.5510123E-04   5.1294562E+04   -1.6916865E+00
   5.5766474E-04   5.0896369E+04   -1.6911420E+00
   5.6024010E-04   5.0501394E+04   -1.6905981E+00
   5.6282734E-04   5.0109610E+04   -1.6900547E+00
   5.6542654E-04   4.9720990E+04   -1.6895120E+00
   5.6803774E-04   4.9335507E+04   -1.6889699E+00
   5.7066099E-04   4.8953135E+04   -1.6884283E+00
   5.7329637E-04   4.8573847E+04   -1.6878874E+00
   5.7594391E-04   4.8197619E+04   -1.6873471E+00
   5.7860368E-04   4.7824423E+04   -1.6868075E+00
   5.8127573E-04   4.7454235E+04   -1.6862684E+00
   5.8396012E-04   4.7087029E+04   -1.6857300E+00
   5.8665691E-04   4.6722781E+04   -1.6851922E+00
   5.8936616E-04   4.6361465E+04   -1.6846551E+00
   5.9208791E-04   4.6003057E+04   -1.6841186E+00
   5.9482223E-04   4.5647532E+04   -1.6835828E+00
   5.9756919E-04   4.5294867E+04   -1.6830476E+00
   6.0032882E-04   4.4945037E+04   -1.6825130E+00
   6.0310120E-04   4.4598019E+04   -1.6819792E+00
   6.0588639E-04   4.4253789E+04   -1.6814460E+00
   6.0868443E-04   4.3912324E+04   -1.6809135E+00
   6.1149540E-04   4.3573600E+04   -1.6803816E+00
   6.1431935E-04   4.3237595E+04   -1.6798504E+00
   6.1715634E-04   4.2904286E+04   -1.6793199E+00
   6.2000644E-04   4.2573651E+04   -1.6787901E+00
   6.2286969E-04   4.2245666E+04   -1.6782610E+00
