#        a       HoverH0(a)       dlogHdloga_of_a(a)
   1.0000000E-04   1.0928671E+06   -1.8806433E+00
   1.0046181E-04   1.0834393E+06   -1.8802242E+00
   1.0092575E-04   1.0740950E+06   -1.8798040E+00
   1.0139184E-04   1.0648333E+06   -1.8793828E+00
   1.0186008E-04   1.0556535E+06   -1.8789606E+00
   1.0233048E-04   1.0465549E+06   -1.8785374E+00
   1.0280305E-04   1.0375367E+06   -1.8781132E+00
   1.0327781E-04   1.0285983E+06   -1.8776880E+00
   1.0375475E-04   1.0197389E+06   -1.8772618E+00
   1.0423390E-04   1.0109577E+06   -1.8768346E+00
   1.0471527E-04   1.0022542E+06   -1.8764064E+00
   1.0519885E-04   9.9362755E+05   -1.8759772E+00
   1.0568467E-04   9.8507710E+05   -1.8755470E+00
   1.0617274E-04   9.7660216E+05   -1.8751158E+00
   1.0666305E-04   9.6820207E+05   -1.8746836E+00
   1.0715563E-04   9.5987614E+05   -1.8742504E+00
   1.0765049E-04   9.5162372E+05   -1.8738162E+00
   1.0814763E-04   9.4344413E+05   -1.8733810E+00
   1.0864707E-04   9.3533672E+05   -1.8729448E+00
   1.0914881E-04   9.2730086E+05   -1.8725077E+00
   1.0965287E-04   9.1933588E+05   -1.8720695E+00
   1.1015926E-04   9.1144116E+05   -1.8716304E+00
   1.1066799E-04   9.0361607E+05   -1.8711903E+00
   1.1117906E-04   8.9585997E+05   -1.8707492E+00
   1.1169250E-04   8.8817226E+05   -1.8703071E+00
   1.1220831E-04   8.8055231E+05   -1.8698640E+00
   1.1272650E-04   8.7299952E+05   -1.8694200E+00
   1.1324708E-04   8.6551329E+05   -1.8689750E+00
   1.1377007E-04   8.5809302E+05   -1.8685290E+00
   1.1429547E-04   8.5073811E+05   -1.8680820E+00
   1.1482330E-04   8.4344798E+05   -1.8676340E+00
   1.1535356E-04   8.3622205E+05   -1.8671851E+00
   1.1588628E-04   8.2905974E+05   -1.8667352E+00
   1.1642145E-04   8.2196049E+05   -1.8662844E+00
   1.1695910E-04   8.1492372E+05   -1.8658325E+00
   1.1749923E-04   8.0794887E+05   -1.8653797E+00
   1.1804185E-04   8.0103539E+05   -1.8649260E+00
   1.1858698E-04   7.9418274E+05   -1.8644712E+00
   1.1913463E-04   7.8739035E+05   -1.8640156E+00
   1.1968481E-04   7.8065770E+05   -1.8635589E+00
   1.2023752E-04   7.7398425E+05   -1.8631013E+00
   1.2079279E-04   7.6736947E+05   -1.8626428E+00
   1.2135063E-04   7.6081283E+05   -1.8621833E+00
   1.2191104E-04   7.5431381E+05   -1.8617228E+00
   1.2247403E-04   7.4787190E+05   -1.8612614E+00
   1.2303963E-04   7.4148657E+05   -1.8607990E+00
   1.2360784E-04   7.3515734E+05   -1.8603357E+00
   1.2417868E-04   7.2888368E+05   -1.8598715E+00
   1.2475215E-04   7.2266511E+05   -1.8594063E+00
   1.2532826E-04   7.1650113E+05   -1.8589402E+00
   1.2590704E-04   7.1039126E+05   -1.8584731E+00
   1.2648850E-04   7.0433500E+05   -1.8580051E+00
   1.2707263E-04   6.9833188E+05   -1.8575362E+00
   1.2765947E-04   6.9238142E+05   -1.8570664E+00
   1.2824901E-04   6.8648316E+05   -1.8565956E+00
   1.2884128E-04   6.8063662E+05   -1.8561239E+00
   1.2943628E-04   6.7484134E+05   -1.8556512E+00
   1.3003403E-04   6.6909687E+05   -1.8551777E+00
   1.3063454E-04   6.6340274E+05   -1.8547032E+00
   1.3123783E-04   6.5775851E+05   -1.8542278E+00
   1.3184390E-04   6.5216372E+05   -1.8537515E+00
   1.3245277E-04   6.4661795E+05   -1.8532743E+00
   1.3306445E-04   6.4112075E+05   -1.8527961E+00
   1.3367895E-04   6.3567168E+05   -1.8523171E+00
   1.3429630E-04   6.3027032E+05   -1.8518372E+00
   1.3491649E-04   6.2491624E+05   -1.8513563E+00
   1.3553955E-04   6.1960901E+05   -1.8508746E+00
   1.3616548E-04   6.1434823E+05   -1.8503919E+00
   1.3679431E-04   6.0913346E+05   -1.8499084E+00
   1.3742604E-04   6.0396431E+05   -1.8494240E+00
   1.3806069E-04   5.9884036E+05   -1.8489387E+00
   1.3869827E-04   5.9376121E+05   -1.8484525E+00
   1.3933879E-04   5.8872646E+05   -1.8479654E+00
   1.3998227E-04   5.8373571E+05   -1.8474774E+00
   1.4062872E-04   5.7878858E+05   -1.8469886E+00
   1.4127816E-04   5.7388466E+05   -1.8464989E+00
   1.4193060E-04   5.6902358E+05   -1.8460083E+00
   1.4258605E-04   5.6420494E+05   -1.8455169E+00
   1.4324453E-04   5.5942839E+05   -1.8450245E+00
   1.4390605E-04   5.5469353E+05   -1.8445314E+00
   1.4457062E-04   5.4999999E+05   -1.8440373E+00
   1.4523826E-04   5.4534742E+05   -1.8435424E+00
   1.4590899E-04   5.4073543E+05   -1.8430467E+00
   1.4658281E-04   5.3616368E+05   -1.8425500E+00
   1.4725974E-04   5.3163179E+05   -1.8420526E+00
   1.4793981E-04   5.2713942E+05   -1.8415543E+00
   1.4862301E-04   5.2268621E+05   -1.8410552E+00
   1.4930936E-04   5.1827181E+05   -1.8405552E+00
   1.4999889E-04   5.1389588E+05   -1.8400544E+00
   1.5069160E-04   5.0955808E+05   -1.8395527E+00
   1.5138751E-04   5.0525805E+05   -1.8390502E+00
   1.5208663E-04   5.0099548E+05   -1.8385469E+00
   1.5278899E-04   4.9677002E+05   -1.8380428E+00
   1.5349458E-04   4.9258134E+05   -1.8375379E+00
   1.5420343E-04   4.8842912E+05   -1.8370321E+00
   1.5491556E-04   4.8431303E+05   -1.8365256E+00
   1.5563098E-04   4.8023275E+05   -1.8360182E+00
   1.5634970E-04   4.7618796E+05   -1.8355100E+00
   1.5707174E-04   4.7217834E+05   -1.8350010E+00
   1.5779711E-04   4.6820359E+05   -1.8344912E+00
   1.5852584E-04   4.6426338E+05   -1.8339806E+00
   1.5925792E-04   4.6035742E+05   -1.8334693E+00
   1.5999339E-04   4.5648539E+05   -1.8329571E+00
   1.6073226E-04   4.5264700E+05   -1.8324442E+00
   1.6147454E-04   4.4884195E+05   -1.8319305E+00
   1.6222024E-04   4.4506994E+05   -1.8314160E+00
   1.6296939E-04   4.4133067E+05   -1.8309007E+00
   1.6372200E-04   4.3762386E+05   -1.8303847E+00
   1.6447809E-04   4.3394922E+05   -1.8298679E+00
   1.6523767E-04   4.3030646E+05   -1.8293503E+00
   1.6600075E-04   4.2669529E+05   -1.8288320E+00
   1.6676736E-04   4.2311544E+05   -1.8283129E+00
   1.6753751E-04   4.1956663E+05   -1.8277931E+00
   1.6831122E-04   4.1604858E+05   -1.8272725E+00
   1.6908849E-04   4.1256102E+05   -1.8267512E+00
   1.6986936E-04   4.0910368E+05   -1.8262291E+00
   1.7065384E-04   4.0567629E+05   -1.8257063E+00
   1.7144193E-04   4.0227858E+05   -1.8251828E+00
   1.7223367E-04   3.9891029E+05   -1.8246586E+00
   1.7302906E-04   3.9557116E+05   -1.8241336E+00
   1.7382813E-04   3.9226093E+05   -1.8236079E+00
   1.7463089E-04   3.8897935E+05   -1.8230815E+00
   1.7543735E-04   3.8572615E+05   -1.8225544E+00
   1.7624754E-04   3.8250109E+05   -1.8220266E+00
   1.7706147E-04   3.7930392E+05   -1.8214981E+00
   1.7787916E-04   3.7613439E+05   -1.8209689E+00
   1.7870062E-04   3.7299226E+05   -1.8204390E+00
   1.7952588E-04   3.6987727E+05   -1.8199084E+00
   1.8035495E-04   3.6678920E+05   -1.8193771E+00
   1.8118785E-04   3.6372780E+05   -1.8188451E+00
   1.8202459E-04   3.6069284E+05   -1.8183125E+00
   1.8286520E-04   3.5768408E+05   -1.8177792E+00
   1.8370969E-04   3.5470129E+05   -1.8172452E+00
   1.8455808E-04   3.5174424E+05   -1.8167106E+00
   1.8541039E-04   3.4881270E+05   -1.8161753E+00
   1.8626663E-04   3.4590645E+05   -1.8156394E+00
   1.8712683E-04   3.4302526E+05   -1.8151028E+00
   1.8799100E-04   3.4016891E+05   -1.8145655E+00
   1.8885917E-04   3.3733718E+05   -1.8140276E+00
   1.8973134E-04   3.3452985E+05   -1.8134891E+00
   1.9060754E-04   3.3174671E+05   -1.8129500E+00
   1.9148778E-04   3.2898754E+05   -1.8124102E+00
   1.9237209E-04   3.2625213E+05   -1.8118698E+00
   1.9326049E-04   3.2354027E+05   -1.8113288E+00
   1.9415299E-04   3.2085175E+05   -1.8107872E+00
   1.9504960E-04   3.1818637E+05   -1.8102450E+00
   1.9595036E-04   3.1554392E+05   -1.8097021E+00
   1.9685528E-04   3.1292420E+05   -1.8091587E+00
   1.9776438E-04   3.1032700E+05   -1.8086147E+00
   1.9867768E-04   3.0775213E+05   -1.8080701E+00
   1.9959519E-04   3.0519939E+05   -1.8075249E+00
   2.0051694E-04   3.0266859E+05   -1.8069791E+00
   2.0144295E-04   3.0015953E+05   -1.8064327E+00
   2.0237324E-04   2.9767201E+05   -1.8058858E+00
   2.0330782E-04   2.9520586E+05   -1.8053384E+00
   2.0424671E-04   2.9276088E+05   -1.8047903E+00
   2.0518995E-04   2.9033688E+05   -1.8042417E+00
   2.0613754E-04   2.8793368E+05   -1.8036926E+00
   2.0708950E-04   2.8555109E+05   -1.8031429E+00
   2.0804586E-04   2.8318894E+05   -1.8025927E+00
   2.0900664E-04   2.8084704E+05   -1.8020419E+00
   2.0997185E-04   2.7852521E+05   -1.8014906E+00
   2.1094152E-04   2.7622328E+05   -1.8009388E+00
   2.1191567E-04   2.7394107E+05   -1.8003865E+00
   2.1289432E-04   2.7167841E+05   -1.7998336E+00
   2.1387749E-04   2.6943513E+05   -1.7992803E+00
   2.1486520E-04   2.6721105E+05   -1.7987264E+00
   2.1585747E-04   2.6500600E+05   -1.7981721E+00
   2.1685432E-04   2.6281983E+05   -1.7976172E+00
   2.1785578E-04   2.6065235E+05   -1.7970619E+00
   2.1886186E-04   2.5850341E+05   -1.7965061E+00
   2.1987259E-04   2.5637285E+05   -1.7959498E+00
   2.2088798E-04   2.5426050E+05   -1.7953930E+00
   2.2190807E-04   2.5216619E+05   -1.7948358E+00
   2.2293286E-04   2.5008979E+05   -1.7942781E+00
   2.2396239E-04   2.4803111E+05   -1.7937200E+00
   2.2499667E-04   2.4599002E+05   -1.7931614E+00
   2.2603573E-04   2.4396635E+05   -1.7926023E+00
   2.2707958E-04   2.4195995E+05   -1.7920428E+00
   2.2812826E-04   2.3997068E+05   -1.7914829E+00
   2.2918178E-04   2.3799837E+05   -1.7909226E+00
   2.3024017E-04   2.3604288E+05   -1.7903618E+00
   2.3130344E-04   2.3410406E+05   -1.7898006E+00
   2.3237162E-04   2.3218177E+05   -1.7892390E+00
   2.3344474E-04   2.3027586E+05   -1.7886770E+00
   2.3452281E-04   2.2838618E+05   -1.7881146E+00
   2.3560586E-04   2.2651260E+05   -1.7875518E+00
   2.3669392E-04   2.2465498E+05   -1.7869886E+00
   2.3778699E-04   2.2281316E+05   -1.7864250E+00
   2.3888512E-04   2.2098702E+05   -1.7858611E+00
   2.3998831E-04   2.1917642E+05   -1.7852968E+00
   2.4109661E-04   2.1738122E+05   -1.7847321E+00
   2.4221001E-04   2.1560128E+05   -1.7841670E+00
   2.4332857E-04   2.1383647E+05   -1.7836016E+00
   2.4445228E-04   2.1208666E+05   -1.7830358E+00
   2.4558119E-04   2.1035172E+05   -1.7824697E+00
   2.4671531E-04   2.0863151E+05   -1.7819033E+00
   2.4785467E-04   2.0692591E+05   -1.7813365E+00
   2.4899928E-04   2.0523480E+05   -1.7807694E+00
   2.5014919E-04   2.0355803E+05   -1.7802019E+00
   2.5130440E-04   2.0189549E+05   -1.7796342E+00
   2.5246495E-04   2.0024706E+05   -1.7790661E+00
   2.5363086E-04   1.9861260E+05   -1.7784978E+00
   2.5480216E-04   1.9699200E+05   -1.7779291E+00
   2.5597886E-04   1.9538514E+05   -1.7773601E+00
   2.5716100E-04   1.9379189E+05   -1.7767909E+00
   2.5834859E-04   1.9221214E+05   -1.7762214E+00
   2.5954168E-04   1.9064576E+05   -1.7756516E+00
   2.6074027E-04   1.8909265E+05   -1.7750815E+00
   2.6194439E-04   1.8755268E+05   -1.7745112E+00
   2.6315408E-04   1.8602575E+05   -1.7739406E+00
   2.6436935E-04   1.8451173E+05   -1.7733697E+00
   2.6559024E-04   1.8301051E+05   -1.7727986E+00
   2.6681676E-04   1.8152198E+05   -1.7722273E+00
   2.6804895E-04   1.8004604E+05   -1.7716557E+00
   2.6928683E-04   1.7858257E+05   -1.7710839E+00
   2.7053042E-04   1.7713146E+05   -1.7705119E+00
   2.7177976E-04   1.7569260E+05   -1.7699397E+00
   2.7303487E-04   1.7426589E+05   -1.7693672E+00
   2.7429577E-04   1.7285123E+05   -1.7687946E+00
   2.7556250E-04   1.7144850E+05   -1.7682217E+00
   2.7683507E-04   1.7005760E+05   -1.7676487E+00
   2.7811353E-04   1.6867843E+05   -1.7670755E+00
   2.7939788E-04   1.6731089E+05   -1.7665021E+00
   2.8068817E-04   1.6595487E+05   -1.7659285E+00
   2.8198442E-04   1.6461028E+05   -1.7653547E+00
   2.8328665E-04   1.6327702E+05   -1.7647808E+00
   2.8459490E-04   1.6195498E+05   -1.7642067E+00
   2.8590919E-04   1.6064407E+05   -1.7636325E+00
   2.8722955E-04   1.5934419E+05   -1.7630581E+00
   2.8855600E-04   1.5805525E+05   -1.7624836E+00
   2.8988859E-04   1.5677716E+05   -1.7619090E+00
   2.9122732E-04   1.5550980E+05   -1.7613342E+00
   2.9257224E-04   1.5425311E+05   -1.7607593E+00
   2.9392337E-04   1.5300697E+05   -1.7601843E+00
   2.9528074E-04   1.5177130E+05   -1.7596092E+00
   2.9664438E-04   1.5054601E+05   -1.7590340E+00
   2.9801431E-04   1.4933101E+05   -1.7584587E+00
   2.9939057E-04   1.4812621E+05   -1.7578833E+00
   3.0077319E-04   1.4693151E+05   -1.7573078E+00
   3.0216219E-04   1.4574684E+05   -1.7567322E+00
   3.0355761E-04   1.4457211E+05   -1.7561566E+00
   3.0495947E-04   1.4340722E+05   -1.7555809E+00
   3.0636780E-04   1.4225210E+05   -1.7550051E+00
   3.0778264E-04   1.4110665E+05   -1.7544293E+00
   3.0920401E-04   1.3997080E+05   -1.7538534E+00
   3.1063195E-04   1.3884446E+05   -1.7532775E+00
   3.1206648E-04   1.3772755E+05   -1.7527016E+00
   3.1350764E-04   1.3661999E+05   -1.7521256E+00
   3.1495545E-04   1.3552169E+05   -1.7515496E+00
   3.1640994E-04   1.3443258E+05   -1.7509736E+00
   3.1787116E-04   1.3335258E+05   -1.7503976E+00
   3.1933912E-04   1.3228160E+05   -1.7498216E+00
   3.2081386E-04   1.3121958E+05   -1.7492456E+00
   3.2229541E-04   1.3016642E+05   -1.7486695E+00
   3.2378381E-04   1.2912206E+05   -1.7480935E+00
   3.2527908E-04   1.2808642E+05   -1.7475176E+00
   3.2678125E-04   1.2705943E+05   -1.7469416E+00
   3.2829036E-04   1.2604100E+05   -1.7463657E+00
   3.2980644E-04   1.2503107E+05   -1.7457898E+00
   3.3132952E-04   1.2402955E+05   -1.7452139E+00
   3.3285963E-04   1.2303639E+05   -1.7446382E+00
   3.3439681E-04   1.2205150E+05   -1.7440624E+00
   3.3594109E-04   1.2107482E+05   -1.7434867E+00
   3.3749250E-04   1.2010628E+05   -1.7429111E+00
   3.3905108E-04   1.1914579E+05   -1.7423356E+00
   3.4061685E-04   1.1819330E+05   -1.7417601E+00
   3.4218986E-04   1.1724874E+05   -1.7411848E+00
   3.4377013E-04   1.1631203E+05   -1.7406095E+00
   3.4535769E-04   1.1538312E+05   -1.7400343E+00
   3.4695259E-04   1.1446192E+05   -1.7394593E+00
   3.4855485E-04   1.1354838E+05   -1.7388843E+00
   3.5016452E-04   1.1264243E+05   -1.7383095E+00
   3.5178161E-04   1.1174400E+05   -1.7377348E+00
   3.5340618E-04   1.1085304E+05   -1.7371602E+00
   3.5503824E-04   1.0996947E+05   -1.7365857E+00
   3.5667785E-04   1.0909323E+05   -1.7360114E+00
   3.5832502E-04   1.0822425E+05   -1.7354372E+00
   3.5997981E-04   1.0736249E+05   -1.7348632E+00
   3.6164223E-04   1.0650786E+05   -1.7342894E+00
   3.6331233E-04   1.0566032E+05   -1.7337157E+00
   3.6499015E-04   1.0481980E+05   -1.7331422E+00
   3.6667571E-04   1.0398625E+05   -1.7325688E+00
   3.6836906E-04   1.0315959E+05   -1.7319957E+00
   3.7007022E-04   1.0233977E+05   -1.7314227E+00
   3.7177925E-04   1.0152674E+05   -1.7308500E+00
   3.7349616E-04   1.0072043E+05   -1.7302774E+00
   3.7522101E-04   9.9920792E+04   -1.7297050E+00
   3.7695382E-04   9.9127762E+04   -1.7291329E+00
   3.7869463E-04   9.8341285E+04   -1.7285610E+00
   3.8044348E-04   9.7561305E+04   -1.7279892E+00
   3.8220041E-04   9.6787766E+04   -1.7274178E+00
   3.8396545E-04   9.6020613E+04   -1.7268465E+00
   3.8573864E-04   9.5259791E+04   -1.7262756E+00
   3.8752002E-04   9.4505246E+04   -1.7257048E+00
   3.8930963E-04   9.3756924E+04   -1.7251343E+00
   3.9110750E-04   9.3014772E+04   -1.7245641E+00
   3.9291368E-04   9.2278737E+04   -1.7239941E+00
   3.9472820E-04   9.1548767E+04   -1.7234244E+00
   3.9655109E-04   9.0824810E+04   -1.7228550E+00
   3.9838241E-04   9.0106813E+04   -1.7222859E+00
   4.0022218E-04   8.9394727E+04   -1.7217171E+00
   4.0207045E-04   8.8688502E+04   -1.7211485E+00
   4.0392725E-04   8.7988085E+04   -1.7205803E+00
   4.0579263E-04   8.7293429E+04   -1.7200124E+00
   4.0766662E-04   8.6604484E+04   -1.7194447E+00
   4.0954927E-04   8.5921200E+04   -1.7188774E+00
   4.1144061E-04   8.5243530E+04   -1.7183105E+00
   4.1334068E-04   8.4571426E+04   -1.7177438E+00
   4.1524953E-04   8.3904840E+04   -1.7171775E+00
   4.1716720E-04   8.3243726E+04   -1.7166115E+00
   4.1909372E-04   8.2588035E+04   -1.7160459E+00
   4.2102914E-04   8.1937723E+04   -1.7154806E+00
   4.2297350E-04   8.1292743E+04   -1.7149157E+00
   4.2492683E-04   8.0653050E+04   -1.7143512E+00
   4.2688919E-04   8.0018599E+04   -1.7137870E+00
   4.2886061E-04   7.9389345E+04   -1.7132232E+00
   4.3084113E-04   7.8765244E+04   -1.7126598E+00
   4.3283080E-04   7.8146252E+04   -1.7120968E+00
   4.3482966E-04   7.7532325E+04   -1.7115341E+00
   4.3683775E-04   7.6923421E+04   -1.7109719E+00
   4.3885511E-04   7.6319497E+04   -1.7104100E+00
   4.4088179E-04   7.5720510E+04   -1.7098486E+00
   4.4291783E-04   7.5126418E+04   -1.7092876E+00
   4.4496327E-04   7.4537180E+04   -1.7087270E+00
   4.4701816E-04   7.3952754E+04   -1.7081668E+00
   4.4908253E-04   7.3373100E+04   -1.7076071E+00
   4.5115644E-04   7.2798178E+04   -1.7070478E+00
   4.5323993E-04   7.2227946E+04   -1.7064889E+00
   4.5533304E-04   7.1662365E+04   -1.7059305E+00
   4.5743582E-04   7.1101396E+04   -1.7053725E+00
   4.5954830E-04   7.0545000E+04   -1.7048150E+00
   4.6167054E-04   6.9993137E+04   -1.7042580E+00
   4.6380259E-04   6.9445769E+04   -1.7037014E+00
   4.6594448E-04   6.8902859E+04   -1.7031453E+00
   4.6809626E-04   6.8364368E+04   -1.7025897E+00
   4.7025797E-04   6.7830259E+04   -1.7020346E+00
   4.7242967E-04   6.7300495E+04   -1.7014799E+00
   4.7461140E-04   6.6775039E+04   -1.7009258E+00
   4.7680321E-04   6.6253855E+04   -1.7003721E+00
   4.7900514E-04   6.5736906E+04   -1.6998190E+00
   4.8121723E-04   6.5224157E+04   -1.6992663E+00
   4.8343954E-04   6.4715572E+04   -1.6987142E+00
   4.8567212E-04   6.4211116E+04   -1.6981626E+00
   4.8791500E-04   6.3710754E+04   -1.6976115E+00
   4.9016825E-04   6.3214452E+04   -1.6970610E+00
   4.9243189E-04   6.2722175E+04   -1.6965110E+00
   4.9470600E-04   6.2233889E+04   -1.6959615E+00
   4.9699060E-04   6.1749560E+04   -1.6954126E+00
   4.9928575E-04   6.1269156E+04   -1.6948642E+00
   5.0159151E-04   6.0792642E+04   -1.6943164E+00
   5.0390791E-04   6.0319987E+04   -1.6937691E+00
   5.0623501E-04   5.9851157E+04   -1.6932224E+00
   5.0857286E-04   5.9386121E+04   -1.6926763E+00
   5.1092150E-04   5.8924846E+04   -1.6921308E+00
   5.1328099E-04   5.8467302E+04   -1.6915858E+00
   5.1565137E-04   5.8013455E+04   -1.6910414E+00
   5.1803270E-04   5.7563276E+04   -1.6904977E+00
   5.2042503E-04   5.7116733E+04   -1.6899545E+00
   5.2282841E-04   5.6673796E+04   -1.6894119E+00
   5.2524289E-04   5.6234434E+04   -1.6888699E+00
   5.2766851E-04   5.5798618E+04   -1.6883285E+00
   5.3010534E-04   5.5366317E+04   -1.6877877E+00
   5.3255342E-04   5.4937503E+04   -1.6872476E+00
   5.3501281E-04   5.4512145E+04   -1.6867081E+00
   5.3748356E-04   5.4090215E+04   -1.6861692E+00
   5.3996571E-04   5.3671683E+04   -1.6856309E+00
   5.4245933E-04   5.3256523E+04   -1.6850933E+00
   5.4496446E-04   5.2844704E+04   -1.6845563E+00
   5.4748117E-04   5.2436200E+04   -1.6840200E+00
   5.5000949E-04   5.2030982E+04   -1.6834843E+00
   5.5254949E-04   5.1629023E+04   -1.6829492E+00
   5.5510123E-04   5.1230295E+04   -1.6824149E+00
   5.5766474E-04   5.0834772E+04   -1.6818811E+00
   5.6024010E-04   5.0442426E+04   -1.6813481E+00
   5.6282734E-04   5.0053232E+04   -1.6808157E+00
   5.6542654E-04   4.9667162E+04   -1.6802840E+00
   5.6803774E-04   4.9284190E+04   -1.6797530E+00
   5.7066099E-04   4.8904291E+04   -1.6792227E+00
   5.7329637E-04   4.8527439E+04   -1.6786931E+00
   5.7594391E-04   4.8153608E+04   -1.6781641E+00
   5.7860368E-04   4.7782774E+04   -1.6776359E+00
   5.8127573E-04   4.7414911E+04   -1.6771084E+00
   5.8396012E-04   4.7049994E+04   -1.6765815E+00
   5.8665691E-04   4.6687998E+04   -1.6760554E+00
   5.8936616E-04   4.6328901E+04   -1.6755300E+00
   5.9208791E-04   4.5972676E+04   -1.6750053E+00
   5.9482223E-04   4.5619300E+04   -1.6744813E+00
   5.9756919E-04   4.5268750E+04   -1.6739581E+00
   6.0032882E-04   4.4921002E+04   -1.6734356E+00
   6.0310120E-04   4.4576033E+04   -1.6729138E+00
   6.0588639E-04   4.4233819E+04   -1.6723928E+00
   6.0868443E-04   4.3894337E+04   -1.6718725E+00
   6.1149540E-04   4.3557565E+04   -1.6713530E+00
   6.1431935E-04   4.3223481E+04   -1.6708342E+00
   6.1715634E-04   4.2892061E+04   -1.6703162E+00
   6.2000644E-04   4.2563284E+04   -1.6697989E+00
   6.2286969E-04   4.2237128E+04   -1.6692824E+00
