#        a       HoverH0(a)       dlogHdloga_of_a(a)
   1.0000000E-04   1.0876436E+06   -1.8812594E+00
   1.0046181E-04   1.0782579E+06   -1.8808417E+00
   1.0092575E-04   1.0689551E+06   -1.8804230E+00
   1.0139184E-04   1.0597348E+06   -1.8800033E+00
   1.0186008E-04   1.0505959E+06   -1.8795826E+00
   1.0233048E-04   1.0415379E+06   -1.8791608E+00
   1.0280305E-04   1.0325600E+06   -1.8787381E+00
   1.0327781E-04   1.0236615E+06   -1.8783144E+00
   1.0375475E-04   1.0148417E+06   -1.8778897E+00
   1.0423390E-04   1.0060998E+06   -1.8774639E+00
   1.0471527E-04   9.9743518E+05   -1.8770372E+00
   1.0519885E-04   9.8884713E+05   -1.8766095E+00
   1.0568467E-04   9.8033495E+05   -1.8761807E+00
   1.0617274E-04   9.7189798E+05   -1.8757510E+00
   1.0666305E-04   9.6353552E+05   -1.8753203E+00
   1.0715563E-04   9.5524692E+05   -1.8748886E+00
   1.0765049E-04   9.4703150E+05   -1.8744558E+00
   1.0814763E-04   9.3888862E+05   -1.8740221E+00
   1.0864707E-04   9.3081761E+05   -1.8735874E+00
   1.0914881E-04   9.2281783E+05   -1.8731517E+00
   1.0965287E-04   9.1488864E+05   -1.8727150E+00
   1.1015926E-04   9.0702941E+05   -1.8722773E+00
   1.1066799E-04   8.9923951E+05   -1.8718387E+00
   1.1117906E-04   8.9151831E+05   -1.8713990E+00
   1.1169250E-04   8.8386521E+05   -1.8709584E+00
   1.1220831E-04   8.7627958E+05   -1.8705168E+00
   1.1272650E-04   8.6876082E+05   -1.8700742E+00
   1.1324708E-04   8.6130834E+05   -1.8696306E+00
   1.1377007E-04   8.5392154E+05   -1.8691860E+00
   1.1429547E-04   8.4659982E+05   -1.8687405E+00
   1.1482330E-04   8.3934260E+05   -1.8682940E+00
   1.1535356E-04   8.3214931E+05   -1.8678465E+00
   1.1588628E-04   8.2501937E+05   -1.8673980E+00
   1.1642145E-04   8.1795221E+05   -1.8669486E+00
   1.1695910E-04   8.1094727E+05   -1.8664982E+00
   1.1749923E-04   8.0400399E+05   -1.8660468E+00
   1.1804185E-04   7.9712182E+05   -1.8655945E+00
   1.1858698E-04   7.9030020E+05   -1.8651412E+00
   1.1913463E-04   7.8353860E+05   -1.8646869E+00
   1.1968481E-04   7.7683648E+05   -1.8642317E+00
   1.2023752E-04   7.7019331E+05   -1.8637755E+00
   1.2079279E-04   7.6360855E+05   -1.8633183E+00
   1.2135063E-04   7.5708169E+05   -1.8628602E+00
   1.2191104E-04   7.5061220E+05   -1.8624012E+00
   1.2247403E-04   7.4419956E+05   -1.8619412E+00
   1.2303963E-04   7.3784328E+05   -1.8614802E+00
   1.2360784E-04   7.3154284E+05   -1.8610183E+00
   1.2417868E-04   7.2529775E+05   -1.8605555E+00
   1.2475215E-04   7.1910751E+05   -1.8600917E+00
   1.2532826E-04   7.1297162E+05   -1.8596269E+00
   1.2590704E-04   7.0688960E+05   -1.8591612E+00
   1.2648850E-04   7.0086097E+05   -1.8586946E+00
   1.2707263E-04   6.9488525E+05   -1.8582271E+00
   1.2765947E-04   6.8896197E+05   -1.8577586E+00
   1.2824901E-04   6.8309066E+05   -1.8572892E+00
   1.2884128E-04   6.7727084E+05   -1.8568188E+00
   1.2943628E-04   6.7150207E+05   -1.8563476E+00
   1.3003403E-04   6.6578388E+05   -1.8558754E+00
   1.3063454E-04   6.6011582E+05   -1.8554022E+00
   1.3123783E-04   6.5449745E+05   -1.8549282E+00
   1.3184390E-04   6.4892831E+05   -1.8544532E+00
   1.3245277E-04   6.4340796E+05   -1.8539774E+00
   1.3306445E-04   6.3793598E+05   -1.8535006E+00
   1.3367895E-04   6.3251193E+05   -1.8530229E+00
   1.3429630E-04   6.2713538E+05   -1.8525443E+00
   1.3491649E-04   6.2180590E+05   -1.8520648E+00
   1.3553955E-04   6.1652307E+05   -1.8515843E+00
   1.3616548E-04   6.1128649E+05   -1.8511030E+00
   1.3679431E-04   6.0609572E+05   -1.8506208E+00
   1.3742604E-04   6.0095038E+05   -1.8501377E+00
   1.3806069E-04   5.9585003E+05   -1.8496537E+00
   1.3869827E-04   5.9079430E+05   -1.8491688E+00
   1.3933879E-04   5.8578277E+05   -1.8486830E+00
   1.3998227E-04   5.8081506E+05   -1.8481964E+00
   1.4062872E-04   5.7589076E+05   -1.8477088E+00
   1.4127816E-04   5.7100950E+05   -1.8472204E+00
   1.4193060E-04   5.6617089E+05   -1.8467311E+00
   1.4258605E-04   5.6137454E+05   -1.8462409E+00
   1.4324453E-04   5.5662009E+05   -1.8457499E+00
   1.4390605E-04   5.5190715E+05   -1.8452580E+00
   1.4457062E-04   5.4723536E+05   -1.8447652E+00
   1.4523826E-04   5.4260435E+05   -1.8442716E+00
   1.4590899E-04   5.3801375E+05   -1.8437771E+00
   1.4658281E-04   5.3346321E+05   -1.8432817E+00
   1.4725974E-04   5.2895236E+05   -1.8427855E+00
   1.4793981E-04   5.2448086E+05   -1.8422885E+00
   1.4862301E-04   5.2004835E+05   -1.8417906E+00
   1.4930936E-04   5.1565448E+05   -1.8412918E+00
   1.4999889E-04   5.1129892E+05   -1.8407923E+00
   1.5069160E-04   5.0698131E+05   -1.8402918E+00
   1.5138751E-04   5.0270132E+05   -1.8397906E+00
   1.5208663E-04   4.9845861E+05   -1.8392885E+00
   1.5278899E-04   4.9425285E+05   -1.8387856E+00
   1.5349458E-04   4.9008372E+05   -1.8382819E+00
   1.5420343E-04   4.8595089E+05   -1.8377773E+00
   1.5491556E-04   4.8185403E+05   -1.8372719E+00
   1.5563098E-04   4.7779282E+05   -1.8367657E+00
   1.5634970E-04   4.7376695E+05   -1.8362588E+00
   1.5707174E-04   4.6977609E+05   -1.8357509E+00
   1.5779711E-04   4.6581995E+05   -1.8352423E+00
   1.5852584E-04   4.6189820E+05   -1.8347329E+00
   1.5925792E-04   4.5801055E+05   -1.8342227E+00
   1.5999339E-04   4.5415668E+05   -1.8337117E+00
   1.6073226E-04   4.5033631E+05   -1.8332000E+00
   1.6147454E-04   4.4654912E+05   -1.8326874E+00
   1.6222024E-04   4.4279483E+05   -1.8321740E+00
   1.6296939E-04   4.3907315E+05   -1.8316599E+00
   1.6372200E-04   4.3538378E+05   -1.8311450E+00
   1.6447809E-04   4.3172643E+05   -1.8306293E+00
   1.6523767E-04   4.2810082E+05   -1.8301129E+00
   1.6600075E-04   4.2450668E+05   -1.8295957E+00
   1.6676736E-04   4.2094371E+05   -1.8290777E+00
   1.6753751E-04   4.1741164E+05   -1.8285590E+00
   1.6831122E-04   4.1391020E+05   -1.8280395E+00
   1.6908849E-04   4.1043911E+05   -1.8275193E+00
   1.6986936E-04   4.0699811E+05   -1.8269983E+00
   1.7065384E-04   4.0358693E+05   -1.8264766E+00
   1.7144193E-04   4.0020530E+05   -1.8259542E+00
   1.7223367E-04   3.9685295E+05   -1.8254310E+00
   1.7302906E-04   3.9352965E+05   -1.8249071E+00
   1.7382813E-04   3.9023511E+05   -1.8243825E+00
   1.7463089E-04   3.8696909E+05   -1.8238571E+00
   1.7543735E-04   3.8373133E+05   -1.8233311E+00
   1.7624754E-04   3.8052159E+05   -1.8228043E+00
   1.7706147E-04   3.7733961E+05   -1.8222768E+00
   1.7787916E-04   3.7418515E+05   -1.8217487E+00
   1.7870062E-04   3.7105797E+05   -1.8212198E+00
   1.7952588E-04   3.6795781E+05   -1.8206902E+00
   1.8035495E-04   3.6488445E+05   -1.8201599E+00
   1.8118785E-04   3.6183764E+05   -1.8196290E+00
   1.8202459E-04   3.5881716E+05   -1.8190973E+00
   1.8286520E-04   3.5582275E+05   -1.8185650E+00
   1.8370969E-04   3.5285421E+05   -1.8180320E+00
   1.8455808E-04   3.4991129E+05   -1.8174984E+00
   1.8541039E-04   3.4699377E+05   -1.8169641E+00
   1.8626663E-04   3.4410142E+05   -1.8164291E+00
   1.8712683E-04   3.4123402E+05   -1.8158934E+00
   1.8799100E-04   3.3839135E+05   -1.8153571E+00
   1.8885917E-04   3.3557319E+05   -1.8148202E+00
   1.8973134E-04   3.3277933E+05   -1.8142826E+00
   1.9060754E-04   3.3000954E+05   -1.8137444E+00
   1.9148778E-04   3.2726362E+05   -1.8132056E+00
   1.9237209E-04   3.2454136E+05   -1.8126661E+00
   1.9326049E-04   3.2184254E+05   -1.8121260E+00
   1.9415299E-04   3.1916695E+05   -1.8115853E+00
   1.9504960E-04   3.1651440E+05   -1.8110439E+00
   1.9595036E-04   3.1388468E+05   -1.8105020E+00
   1.9685528E-04   3.1127759E+05   -1.8099595E+00
   1.9776438E-04   3.0869292E+05   -1.8094163E+00
   1.9867768E-04   3.0613047E+05   -1.8088726E+00
   1.9959519E-04   3.0359006E+05   -1.8083282E+00
   2.0051694E-04   3.0107149E+05   -1.8077833E+00
   2.0144295E-04   2.9857456E+05   -1.8072378E+00
   2.0237324E-04   2.9609909E+05   -1.8066917E+00
   2.0330782E-04   2.9364487E+05   -1.8061451E+00
   2.0424671E-04   2.9121173E+05   -1.8055979E+00
   2.0518995E-04   2.8879949E+05   -1.8050501E+00
   2.0613754E-04   2.8640794E+05   -1.8045018E+00
   2.0708950E-04   2.8403692E+05   -1.8039529E+00
   2.0804586E-04   2.8168624E+05   -1.8034035E+00
   2.0900664E-04   2.7935573E+05   -1.8028535E+00
   2.0997185E-04   2.7704519E+05   -1.8023030E+00
   2.1094152E-04   2.7475447E+05   -1.8017519E+00
   2.1191567E-04   2.7248337E+05   -1.8012004E+00
   2.1289432E-04   2.7023174E+05   -1.8006483E+00
   2.1387749E-04   2.6799939E+05   -1.8000957E+00
   2.1486520E-04   2.6578617E+05   -1.7995426E+00
   2.1585747E-04   2.6359189E+05   -1.7989890E+00
   2.1685432E-04   2.6141639E+05   -1.7984348E+00
   2.1785578E-04   2.5925951E+05   -1.7978802E+00
   2.1886186E-04   2.5712109E+05   -1.7973251E+00
   2.1987259E-04   2.5500095E+05   -1.7967695E+00
   2.2088798E-04   2.5289895E+05   -1.7962135E+00
   2.2190807E-04   2.5081491E+05   -1.7956569E+00
   2.2293286E-04   2.4874869E+05   -1.7950999E+00
   2.2396239E-04   2.4670012E+05   -1.7945424E+00
   2.2499667E-04   2.4466906E+05   -1.7939845E+00
   2.2603573E-04   2.4265533E+05   -1.7934261E+00
   2.2707958E-04   2.4065880E+05   -1.7928673E+00
   2.2812826E-04   2.3867932E+05   -1.7923080E+00
   2.2918178E-04   2.3671672E+05   -1.7917483E+00
   2.3024017E-04   2.3477087E+05   -1.7911882E+00
   2.3130344E-04   2.3284161E+05   -1.7906276E+00
   2.3237162E-04   2.3092881E+05   -1.7900666E+00
   2.3344474E-04   2.2903231E+05   -1.7895052E+00
   2.3452281E-04   2.2715197E+05   -1.7889434E+00
   2.3560586E-04   2.2528766E+05   -1.7883812E+00
   2.3669392E-04   2.2343922E+05   -1.7878185E+00
   2.3778699E-04   2.2160653E+05   -1.7872555E+00
   2.3888512E-04   2.1978943E+05   -1.7866921E+00
   2.3998831E-04   2.1798781E+05   -1.7861284E+00
   2.4109661E-04   2.1620151E+05   -1.7855642E+00
   2.4221001E-04   2.1443041E+05   -1.7849997E+00
   2.4332857E-04   2.1267437E+05   -1.7844348E+00
   2.4445228E-04   2.1093326E+05   -1.7838696E+00
   2.4558119E-04   2.0920695E+05   -1.7833040E+00
   2.4671531E-04   2.0749531E+05   -1.7827380E+00
   2.4785467E-04   2.0579821E+05   -1.7821717E+00
   2.4899928E-04   2.0411552E+05   -1.7816051E+00
   2.5014919E-04   2.0244712E+05   -1.7810381E+00
   2.5130440E-04   2.0079288E+05   -1.7804709E+00
   2.5246495E-04   1.9915268E+05   -1.7799033E+00
   2.5363086E-04   1.9752639E+05   -1.7793353E+00
   2.5480216E-04   1.9591390E+05   -1.7787671E+00
   2.5597886E-04   1.9431508E+05   -1.7781986E+00
   2.5716100E-04   1.9272981E+05   -1.7776298E+00
   2.5834859E-04   1.9115798E+05   -1.7770607E+00
   2.5954168E-04   1.8959946E+05   -1.7764913E+00
   2.6074027E-04   1.8805415E+05   -1.7759216E+00
   2.6194439E-04   1.8652191E+05   -1.7753517E+00
   2.6315408E-04   1.8500265E+05   -1.7747814E+00
   2.6436935E-04   1.8349625E+05   -1.7742110E+00
   2.6559024E-04   1.8200259E+05   -1.7736402E+00
   2.6681676E-04   1.8052156E+05   -1.7730693E+00
   2.6804895E-04   1.7905306E+05   -1.7724980E+00
   2.6928683E-04   1.7759696E+05   -1.7719266E+00
   2.7053042E-04   1.7615318E+05   -1.7713549E+00
   2.7177976E-04   1.7472159E+05   -1.7707830E+00
   2.7303487E-04   1.7330209E+05   -1.7702108E+00
   2.7429577E-04   1.7189458E+05   -1.7696385E+00
   2.7556250E-04   1.7049895E+05   -1.7690659E+00
   2.7683507E-04   1.6911510E+05   -1.7684932E+00
   2.7811353E-04   1.6774292E+05   -1.7679202E+00
   2.7939788E-04   1.6638232E+05   -1.7673471E+00
   2.8068817E-04   1.6503318E+05   -1.7667738E+00
   2.8198442E-04   1.6369542E+05   -1.7662003E+00
   2.8328665E-04   1.6236894E+05   -1.7656266E+00
   2.8459490E-04   1.6105362E+05   -1.7650527E+00
   2.8590919E-04   1.5974939E+05   -1.7644787E+00
   2.8722955E-04   1.5845613E+05   -1.7639046E+00
   2.8855600E-04   1.5717376E+05   -1.7633303E+00
   2.8988859E-04   1.5590219E+05   -1.7627558E+00
   2.9122732E-04   1.5464130E+05   -1.7621812E+00
   2.9257224E-04   1.5339103E+05   -1.7616065E+00
   2.9392337E-04   1.5215126E+05   -1.7610317E+00
   2.9528074E-04   1.5092191E+05   -1.7604568E+00
   2.9664438E-04   1.4970290E+05   -1.7598817E+00
   2.9801431E-04   1.4849412E+05   -1.7593065E+00
   2.9939057E-04   1.4729549E+05   -1.7587313E+00
   3.0077319E-04   1.4610693E+05   -1.7581559E+00
   3.0216219E-04   1.4492834E+05   -1.7575804E+00
   3.0355761E-04   1.4375964E+05   -1.7570049E+00
   3.0495947E-04   1.4260074E+05   -1.7564293E+00
   3.0636780E-04   1.4145156E+05   -1.7558536E+00
   3.0778264E-04   1.4031201E+05   -1.7552779E+00
   3.0920401E-04   1.3918201E+05   -1.7547021E+00
   3.1063195E-04   1.3806148E+05   -1.7541263E+00
   3.1206648E-04   1.3695034E+05   -1.7535504E+00
   3.1350764E-04   1.3584849E+05   -1.7529745E+00
   3.1495545E-04   1.3475587E+05   -1.7523985E+00
   3.1640994E-04   1.3367239E+05   -1.7518225E+00
   3.1787116E-04   1.3259798E+05   -1.7512465E+00
   3.1933912E-04   1.3153255E+05   -1.7506705E+00
   3.2081386E-04   1.3047602E+05   -1.7500945E+00
   3.2229541E-04   1.2942833E+05   -1.7495185E+00
   3.2378381E-04   1.2838939E+05   -1.7489424E+00
   3.2527908E-04   1.2735913E+05   -1.7483664E+00
   3.2678125E-04   1.2633747E+05   -1.7477904E+00
   3.2829036E-04   1.2532434E+05   -1.7472145E+00
   3.2980644E-04   1.2431966E+05   -1.7466385E+00
   3.3132952E-04   1.2332337E+05   -1.7460626E+00
   3.3285963E-04   1.2233538E+05   -1.7454867E+00
   3.3439681E-04   1.2135563E+05   -1.7449109E+00
   3.3594109E-04   1.2038405E+05   -1.7443351E+00
   3.3749250E-04   1.1942056E+05   -1.7437594E+00
   3.3905108E-04   1.1846510E+05   -1.7431838E+00
   3.4061685E-04   1.1751759E+05   -1.7426082E+00
   3.4218986E-04   1.1657797E+05   -1.7420327E+00
   3.4377013E-04   1.1564617E+05   -1.7414573E+00
   3.4535769E-04   1.1472213E+05   -1.7408820E+00
   3.4695259E-04   1.1380576E+05   -1.7403068E+00
   3.4855485E-04   1.1289702E+05   -1.7397317E+00
   3.5016452E-04   1.1199583E+05   -1.7391567E+00
   3.5178161E-04   1.1110213E+05   -1.7385818E+00
   3.5340618E-04   1.1021585E+05   -1.7380070E+00
   3.5503824E-04   1.0933693E+05   -1.7374323E+00
   3.5667785E-04   1.0846530E+05   -1.7368578E+00
   3.5832502E-04   1.0760091E+05   -1.7362834E+00
   3.5997981E-04   1.0674369E+05   -1.7357092E+00
   3.6164223E-04   1.0589358E+05   -1.7351351E+00
   3.6331233E-04   1.0505052E+05   -1.7345612E+00
   3.6499015E-04   1.0421445E+05   -1.7339874E+00
   3.6667571E-04   1.0338530E+05   -1.7334138E+00
   3.6836906E-04   1.0256302E+05   -1.7328404E+00
   3.7007022E-04   1.0174755E+05   -1.7322672E+00
   3.7177925E-04   1.0093883E+05   -1.7316941E+00
   3.7349616E-04   1.0013680E+05   -1.7311212E+00
   3.7522101E-04   9.9341410E+04   -1.7305486E+00
   3.7695382E-04   9.8552595E+04   -1.7299761E+00
   3.7869463E-04   9.7770302E+04   -1.7294039E+00
   3.8044348E-04   9.6994473E+04   -1.7288318E+00
   3.8220041E-04   9.6225055E+04   -1.7282600E+00
   3.8396545E-04   9.5461992E+04   -1.7276884E+00
   3.8573864E-04   9.4705229E+04   -1.7271171E+00
   3.8752002E-04   9.3954713E+04   -1.7265460E+00
   3.8930963E-04   9.3210389E+04   -1.7259751E+00
   3.9110750E-04   9.2472205E+04   -1.7254045E+00
   3.9291368E-04   9.1740108E+04   -1.7248341E+00
   3.9472820E-04   9.1014047E+04   -1.7242641E+00
   3.9655109E-04   9.0293969E+04   -1.7236942E+00
   3.9838241E-04   8.9579823E+04   -1.7231247E+00
   4.0022218E-04   8.8871558E+04   -1.7225554E+00
   4.0207045E-04   8.8169125E+04   -1.7219864E+00
   4.0392725E-04   8.7472473E+04   -1.7214178E+00
   4.0579263E-04   8.6781552E+04   -1.7208494E+00
   4.0766662E-04   8.6096315E+04   -1.7202813E+00
   4.0954927E-04   8.5416712E+04   -1.7197135E+00
   4.1144061E-04   8.4742694E+04   -1.7191461E+00
   4.1334068E-04   8.4074216E+04   -1.7185789E+00
   4.1524953E-04   8.3411228E+04   -1.7180121E+00
   4.1716720E-04   8.2753684E+04   -1.7174457E+00
   4.1909372E-04   8.2101538E+04   -1.7168795E+00
   4.2102914E-04   8.1454744E+04   -1.7163137E+00
   4.2297350E-04   8.0813256E+04   -1.7157483E+00
   4.2492683E-04   8.0177028E+04   -1.7151832E+00
   4.2688919E-04   7.9546017E+04   -1.7146185E+00
   4.2886061E-04   7.8920177E+04   -1.7140541E+00
   4.3084113E-04   7.8299465E+04   -1.7134902E+00
   4.3283080E-04   7.7683836E+04   -1.7129266E+00
   4.3482966E-04   7.7073248E+04   -1.7123633E+00
   4.3683775E-04   7.6467657E+04   -1.7118005E+00
   4.3885511E-04   7.5867021E+04   -1.7112381E+00
   4.4088179E-04   7.5271298E+04   -1.7106760E+00
   4.4291783E-04   7.4680446E+04   -1.7101144E+00
   4.4496327E-04   7.4094424E+04   -1.7095532E+00
   4.4701816E-04   7.3513190E+04   -1.7089924E+00
   4.4908253E-04   7.2936704E+04   -1.7084320E+00
   4.5115644E-04   7.2364926E+04   -1.7078721E+00
   4.5323993E-04   7.1797815E+04   -1.7073126E+00
   4.5533304E-04   7.1235332E+04   -1.7067535E+00
   4.5743582E-04   7.0677438E+04   -1.7061949E+00
   4.5954830E-04   7.0124094E+04   -1.7056367E+00
   4.6167054E-04   6.9575261E+04   -1.7050790E+00
   4.6380259E-04   6.9030900E+04   -1.7045217E+00
   4.6594448E-04   6.8490974E+04   -1.7039649E+00
   4.6809626E-04   6.7955446E+04   -1.7034086E+00
   4.7025797E-04   6.7424277E+04   -1.7028527E+00
   4.7242967E-04   6.6897432E+04   -1.7022974E+00
   4.7461140E-04   6.6374873E+04   -1.7017425E+00
   4.7680321E-04   6.5856564E+04   -1.7011881E+00
   4.7900514E-04   6.5342470E+04   -1.7006342E+00
   4.8121723E-04   6.4832554E+04   -1.7000808E+00
   4.8343954E-04   6.4326781E+04   -1.6995279E+00
   4.8567212E-04   6.3825117E+04   -1.6989756E+00
   4.8791500E-04   6.3327526E+04   -1.6984237E+00
   4.9016825E-04   6.2833974E+04   -1.6978724E+00
   4.9243189E-04   6.2344426E+04   -1.6973216E+00
   4.9470600E-04   6.1858850E+04   -1.6967713E+00
   4.9699060E-04   6.1377211E+04   -1.6962216E+00
   4.9928575E-04   6.0899477E+04   -1.6956724E+00
   5.0159151E-04   6.0425614E+04   -1.6951238E+00
   5.0390791E-04   5.9955589E+04   -1.6945757E+00
   5.0623501E-04   5.9489371E+04   -1.6940282E+00
   5.0857286E-04   5.9026926E+04   -1.6934812E+00
   5.1092150E-04   5.8568225E+04   -1.6929348E+00
   5.1328099E-04   5.8113234E+04   -1.6923890E+00
   5.1565137E-04   5.7661923E+04   -1.6918437E+00
   5.1803270E-04   5.7214260E+04   -1.6912991E+00
   5.2042503E-04   5.6770215E+04   -1.6907550E+00
   5.2282841E-04   5.6329757E+04   -1.6902115E+00
   5.2524289E-04   5.5892857E+04   -1.6896687E+00
   5.2766851E-04   5.5459484E+04   -1.6891264E+00
   5.3010534E-04   5.5029609E+04   -1.6885847E+00
   5.3255342E-04   5.4603201E+04   -1.6880437E+00
   5.3501281E-04   5.4180233E+04   -1.6875032E+00
   5.3748356E-04   5.3760675E+04   -1.6869634E+00
   5.3996571E-04   5.3344499E+04   -1.6864242E+00
   5.4245933E-04   5.2931676E+04   -1.6858856E+00
   5.4496446E-04   5.2522178E+04   -1.6853477E+00
   5.4748117E-04   5.2115977E+04   -1.6848104E+00
   5.5000949E-04   5.1713045E+04   -1.6842738E+00
   5.5254949E-04   5.1313356E+04   -1.6837378E+00
   5.5510123E-04   5.0916881E+04   -1.6832024E+00
   5.5766474E-04   5.0523594E+04   -1.6826677E+00
   5.6024010E-04   5.0133469E+04   -1.6821337E+00
   5.6282734E-04   4.9746478E+04   -1.6816003E+00
   5.6542654E-04   4.9362596E+04   -1.6810676E+00
   5.6803774E-04   4.8981796E+04   -1.6805356E+00
   5.7066099E-04   4.8604052E+04   -1.6800043E+00
   5.7329637E-04   4.8229340E+04   -1.6794736E+00
   5.7594391E-04   4.7857634E+04   -1.6789437E+00
   5.7860368E-04   4.7488909E+04   -1.6784144E+00
   5.8127573E-04   4.7123139E+04   -1.6778858E+00
   5.8396012E-04   4.6760300E+04   -1.6773579E+00
   5.8665691E-04   4.6400368E+04   -1.6768308E+00
   5.8936616E-04   4.6043318E+04   -1.6763043E+00
   5.9208791E-04   4.5689126E+04   -1.6757786E+00
   5.9482223E-04   4.5337769E+04   -1.6752535E+00
   5.9756919E-04   4.4989222E+04   -1.6747292E+00
   6.0032882E-04   4.4643463E+04   -1.6742056E+00
   6.0310120E-04   4.4300467E+04   -1.6736828E+00
   6.0588639E-04   4.3960213E+04   -1.6731607E+00
   6.0868443E-04   4.3622677E+04   -1.6726393E+00
   6.1149540E-04   4.3287837E+04   -1.6721186E+00
   6.1431935E-04   4.2955670E+04   -1.6715987E+00
   6.1715634E-04   4.2626154E+04   -1.6710796E+00
   6.2000644E-04   4.2299266E+04   -1.6705612E+00
   6.2286969E-04   4.1974986E+04   -1.6700436E+00
