#        a       HoverH0(a)       dlogHdloga_of_a(a)
   1.0000000E-04   1.1354322E+06   -1.8863942E+00
   1.0046181E-04   1.1256074E+06   -1.8859892E+00
   1.0092575E-04   1.1158696E+06   -1.8855831E+00
   1.0139184E-04   1.1062183E+06   -1.8851760E+00
   1.0186008E-04   1.0966524E+06   -1.8847680E+00
   1.0233048E-04   1.0871713E+06   -1.8843589E+00
   1.0280305E-04   1.0777742E+06   -1.8839488E+00
   1.0327781E-04   1.0684604E+06   -1.8835377E+00
   1.0375475E-04   1.0592290E+06   -1.8831255E+00
   1.0423390E-04   1.0500794E+06   -1.8827124E+00
   1.0471527E-04   1.0410108E+06   -1.8822982E+00
   1.0519885E-04   1.0320225E+06   -1.8818831E+00
   1.0568467E-04   1.0231138E+06   -1.8814669E+00
   1.0617274E-04   1.0142839E+06   -1.8810497E+00
   1.0666305E-04   1.0055322E+06   -1.8806315E+00
   1.0715563E-04   9.9685792E+05   -1.8802123E+00
   1.0765049E-04   9.8826037E+05   -1.8797921E+00
   1.0814763E-04   9.7973886E+05   -1.8793709E+00
   1.0864707E-04   9.7129273E+05   -1.8789486E+00
   1.0914881E-04   9.6292128E+05   -1.8785254E+00
   1.0965287E-04   9.5462384E+05   -1.8781012E+00
   1.1015926E-04   9.4639976E+05   -1.8776759E+00
   1.1066799E-04   9.3824837E+05   -1.8772497E+00
   1.1117906E-04   9.3016901E+05   -1.8768225E+00
   1.1169250E-04   9.2216104E+05   -1.8763942E+00
   1.1220831E-04   9.1422382E+05   -1.8759650E+00
   1.1272650E-04   9.0635672E+05   -1.8755348E+00
   1.1324708E-04   8.9855909E+05   -1.8751035E+00
   1.1377007E-04   8.9083033E+05   -1.8746713E+00
   1.1429547E-04   8.8316980E+05   -1.8742381E+00
   1.1482330E-04   8.7557689E+05   -1.8738039E+00
   1.1535356E-04   8.6805101E+05   -1.8733687E+00
   1.1588628E-04   8.6059154E+05   -1.8729325E+00
   1.1642145E-04   8.5319788E+05   -1.8724953E+00
   1.1695910E-04   8.4586946E+05   -1.8720571E+00
   1.1749923E-04   8.3860567E+05   -1.8716179E+00
   1.1804185E-04   8.3140595E+05   -1.8711778E+00
   1.1858698E-04   8.2426971E+05   -1.8707367E+00
   1.1913463E-04   8.1719638E+05   -1.8702945E+00
   1.1968481E-04   8.1018541E+05   -1.8698514E+00
   1.2023752E-04   8.0323623E+05   -1.8694074E+00
   1.2079279E-04   7.9634829E+05   -1.8689623E+00
   1.2135063E-04   7.8952103E+05   -1.8685163E+00
   1.2191104E-04   7.8275391E+05   -1.8680693E+00
   1.2247403E-04   7.7604640E+05   -1.8676213E+00
   1.2303963E-04   7.6939795E+05   -1.8671723E+00
   1.2360784E-04   7.6280804E+05   -1.8667224E+00
   1.2417868E-04   7.5627615E+05   -1.8662715E+00
   1.2475215E-04   7.4980174E+05   -1.8658197E+00
   1.2532826E-04   7.4338431E+05   -1.8653668E+00
   1.2590704E-04   7.3702334E+05   -1.8649130E+00
   1.2648850E-04   7.3071834E+05   -1.8644583E+00
   1.2707263E-04   7.2446879E+05   -1.8640026E+00
   1.2765947E-04   7.1827420E+05   -1.8635459E+00
   1.2824901E-04   7.1213408E+05   -1.8630883E+00
   1.2884128E-04   7.0604793E+05   -1.8626297E+00
   1.2943628E-04   7.0001529E+05   -1.8621702E+00
   1.3003403E-04   6.9403565E+05   -1.8617097E+00
   1.3063454E-04   6.8810856E+05   -1.8612482E+00
   1.3123783E-04   6.8223354E+05   -1.8607858E+00
   1.3184390E-04   6.7641012E+05   -1.8603225E+00
   1.3245277E-04   6.7063784E+05   -1.8598582E+00
   1.3306445E-04   6.6491624E+05   -1.8593930E+00
   1.3367895E-04   6.5924487E+05   -1.8589269E+00
   1.3429630E-04   6.5362328E+05   -1.8584598E+00
   1.3491649E-04   6.4805103E+05   -1.8579918E+00
   1.3553955E-04   6.4252766E+05   -1.8575228E+00
   1.3616548E-04   6.3705275E+05   -1.8570529E+00
   1.3679431E-04   6.3162586E+05   -1.8565821E+00
   1.3742604E-04   6.2624656E+05   -1.8561104E+00
   1.3806069E-04   6.2091442E+05   -1.8556377E+00
   1.3869827E-04   6.1562903E+05   -1.8551641E+00
   1.3933879E-04   6.1038996E+05   -1.8546896E+00
   1.3998227E-04   6.0519680E+05   -1.8542142E+00
   1.4062872E-04   6.0004914E+05   -1.8537378E+00
   1.4127816E-04   5.9494657E+05   -1.8532606E+00
   1.4193060E-04   5.8988868E+05   -1.8527824E+00
   1.4258605E-04   5.8487509E+05   -1.8523034E+00
   1.4324453E-04   5.7990539E+05   -1.8518234E+00
   1.4390605E-04   5.7497919E+05   -1.8513425E+00
   1.4457062E-04   5.7009610E+05   -1.8508608E+00
   1.4523826E-04   5.6525574E+05   -1.8503781E+00
   1.4590899E-04   5.6045772E+05   -1.8498945E+00
   1.4658281E-04   5.5570167E+05   -1.8494101E+00
   1.4725974E-04   5.5098721E+05   -1.8489248E+00
   1.4793981E-04   5.4631397E+05   -1.8484385E+00
   1.4862301E-04   5.4168158E+05   -1.8479514E+00
   1.4930936E-04   5.3708967E+05   -1.8474634E+00
   1.4999889E-04   5.3253789E+05   -1.8469746E+00
   1.5069160E-04   5.2802588E+05   -1.8464848E+00
   1.5138751E-04   5.2355328E+05   -1.8459942E+00
   1.5208663E-04   5.1911973E+05   -1.8455027E+00
   1.5278899E-04   5.1472490E+05   -1.8450104E+00
   1.5349458E-04   5.1036843E+05   -1.8445172E+00
   1.5420343E-04   5.0604999E+05   -1.8440231E+00
   1.5491556E-04   5.0176923E+05   -1.8435282E+00
   1.5563098E-04   4.9752581E+05   -1.8430324E+00
   1.5634970E-04   4.9331941E+05   -1.8425358E+00
   1.5707174E-04   4.8914970E+05   -1.8420383E+00
   1.5779711E-04   4.8501634E+05   -1.8415399E+00
   1.5852584E-04   4.8091901E+05   -1.8410408E+00
   1.5925792E-04   4.7685740E+05   -1.8405408E+00
   1.5999339E-04   4.7283117E+05   -1.8400399E+00
   1.6073226E-04   4.6884003E+05   -1.8395383E+00
   1.6147454E-04   4.6488364E+05   -1.8390358E+00
   1.6222024E-04   4.6096172E+05   -1.8385324E+00
   1.6296939E-04   4.5707394E+05   -1.8380283E+00
   1.6372200E-04   4.5322000E+05   -1.8375233E+00
   1.6447809E-04   4.4939961E+05   -1.8370175E+00
   1.6523767E-04   4.4561246E+05   -1.8365109E+00
   1.6600075E-04   4.4185825E+05   -1.8360035E+00
   1.6676736E-04   4.3813670E+05   -1.8354953E+00
   1.6753751E-04   4.3444752E+05   -1.8349863E+00
   1.6831122E-04   4.3079040E+05   -1.8344765E+00
   1.6908849E-04   4.2716508E+05   -1.8339659E+00
   1.6986936E-04   4.2357126E+05   -1.8334545E+00
   1.7065384E-04   4.2000867E+05   -1.8329423E+00
   1.7144193E-04   4.1647703E+05   -1.8324293E+00
   1.7223367E-04   4.1297605E+05   -1.8319156E+00
   1.7302906E-04   4.0950548E+05   -1.8314011E+00
   1.7382813E-04   4.0606504E+05   -1.8308858E+00
   1.7463089E-04   4.0265446E+05   -1.8303697E+00
   1.7543735E-04   3.9927348E+05   -1.8298529E+00
   1.7624754E-04   3.9592183E+05   -1.8293353E+00
   1.7706147E-04   3.9259925E+05   -1.8288169E+00
   1.7787916E-04   3.8930548E+05   -1.8282978E+00
   1.7870062E-04   3.8604027E+05   -1.8277780E+00
   1.7952588E-04   3.8280337E+05   -1.8272574E+00
   1.8035495E-04   3.7959452E+05   -1.8267360E+00
   1.8118785E-04   3.7641346E+05   -1.8262140E+00
   1.8202459E-04   3.7325997E+05   -1.8256911E+00
   1.8286520E-04   3.7013379E+05   -1.8251676E+00
   1.8370969E-04   3.6703468E+05   -1.8246433E+00
   1.8455808E-04   3.6396239E+05   -1.8241183E+00
   1.8541039E-04   3.6091670E+05   -1.8235926E+00
   1.8626663E-04   3.5789736E+05   -1.8230662E+00
   1.8712683E-04   3.5490414E+05   -1.8225391E+00
   1.8799100E-04   3.5193681E+05   -1.8220112E+00
   1.8885917E-04   3.4899513E+05   -1.8214827E+00
   1.8973134E-04   3.4607889E+05   -1.8209535E+00
   1.9060754E-04   3.4318786E+05   -1.8204235E+00
   1.9148778E-04   3.4032181E+05   -1.8198929E+00
   1.9237209E-04   3.3748051E+05   -1.8193616E+00
   1.9326049E-04   3.3466376E+05   -1.8188296E+00
   1.9415299E-04   3.3187134E+05   -1.8182970E+00
   1.9504960E-04   3.2910302E+05   -1.8177636E+00
   1.9595036E-04   3.2635859E+05   -1.8172296E+00
   1.9685528E-04   3.2363785E+05   -1.8166950E+00
   1.9776438E-04   3.2094058E+05   -1.8161597E+00
   1.9867768E-04   3.1826658E+05   -1.8156237E+00
   1.9959519E-04   3.1561564E+05   -1.8150871E+00
   2.0051694E-04   3.1298755E+05   -1.8145498E+00
   2.0144295E-04   3.1038211E+05   -1.8140119E+00
   2.0237324E-04   3.0779913E+05   -1.8134734E+00
   2.0330782E-04   3.0523839E+05   -1.8129342E+00
   2.0424671E-04   3.0269972E+05   -1.8123944E+00
   2.0518995E-04   3.0018290E+05   -1.8118540E+00
   2.0613754E-04   2.9768776E+05   -1.8113130E+00
   2.0708950E-04   2.9521409E+05   -1.8107713E+00
   2.0804586E-04   2.9276171E+05   -1.8102291E+00
   2.0900664E-04   2.9033042E+05   -1.8096862E+00
   2.0997185E-04   2.8792005E+05   -1.8091427E+00
   2.1094152E-04   2.8553040E+05   -1.8085987E+00
   2.1191567E-04   2.8316130E+05   -1.8080541E+00
   2.1289432E-04   2.8081255E+05   -1.8075089E+00
   2.1387749E-04   2.7848399E+05   -1.8069631E+00
   2.1486520E-04   2.7617544E+05   -1.8064167E+00
   2.1585747E-04   2.7388671E+05   -1.8058697E+00
   2.1685432E-04   2.7161763E+05   -1.8053222E+00
   2.1785578E-04   2.6936803E+05   -1.8047742E+00
   2.1886186E-04   2.6713774E+05   -1.8042256E+00
   2.1987259E-04   2.6492659E+05   -1.8036764E+00
   2.2088798E-04   2.6273440E+05   -1.8031267E+00
   2.2190807E-04   2.6056101E+05   -1.8025764E+00
   2.2293286E-04   2.5840626E+05   -1.8020257E+00
   2.2396239E-04   2.5626997E+05   -1.8014744E+00
   2.2499667E-04   2.5415200E+05   -1.8009225E+00
   2.2603573E-04   2.5205216E+05   -1.8003702E+00
   2.2707958E-04   2.4997032E+05   -1.7998173E+00
   2.2812826E-04   2.4790630E+05   -1.7992639E+00
   2.2918178E-04   2.4585995E+05   -1.7987101E+00
   2.3024017E-04   2.4383111E+05   -1.7981557E+00
   2.3130344E-04   2.4181964E+05   -1.7976008E+00
   2.3237162E-04   2.3982537E+05   -1.7970455E+00
   2.3344474E-04   2.3784815E+05   -1.7964896E+00
   2.3452281E-04   2.3588785E+05   -1.7959333E+00
   2.3560586E-04   2.3394430E+05   -1.7953765E+00
   2.3669392E-04   2.3201735E+05   -1.7948193E+00
   2.3778699E-04   2.3010687E+05   -1.7942616E+00
   2.3888512E-04   2.2821271E+05   -1.7937034E+00
   2.3998831E-04   2.2633473E+05   -1.7931448E+00
   2.4109661E-04   2.2447277E+05   -1.7925857E+00
   2.4221001E-04   2.2262671E+05   -1.7920262E+00
   2.4332857E-04   2.2079639E+05   -1.7914663E+00
   2.4445228E-04   2.1898169E+05   -1.7909059E+00
   2.4558119E-04   2.1718247E+05   -1.7903451E+00
   2.4671531E-04   2.1539859E+05   -1.7897839E+00
   2.4785467E-04   2.1362991E+05   -1.7892223E+00
   2.4899928E-04   2.1187630E+05   -1.7886603E+00
   2.5014919E-04   2.1013763E+05   -1.7880978E+00
   2.5130440E-04   2.0841377E+05   -1.7875350E+00
   2.5246495E-04   2.0670459E+05   -1.7869718E+00
   2.5363086E-04   2.0500995E+05   -1.7864082E+00
   2.5480216E-04   2.0332974E+05   -1.7858442E+00
   2.5597886E-04   2.0166382E+05   -1.7852799E+00
   2.5716100E-04   2.0001208E+05   -1.7847152E+00
   2.5834859E-04   1.9837437E+05   -1.7841501E+00
   2.5954168E-04   1.9675059E+05   -1.7835847E+00
   2.6074027E-04   1.9514061E+05   -1.7830189E+00
   2.6194439E-04   1.9354431E+05   -1.7824528E+00
   2.6315408E-04   1.9196156E+05   -1.7818863E+00
   2.6436935E-04   1.9039226E+05   -1.7813195E+00
   2.6559024E-04   1.8883628E+05   -1.7807524E+00
   2.6681676E-04   1.8729351E+05   -1.7801849E+00
   2.6804895E-04   1.8576382E+05   -1.7796171E+00
   2.6928683E-04   1.8424711E+05   -1.7790491E+00
   2.7053042E-04   1.8274327E+05   -1.7784807E+00
   2.7177976E-04   1.8125217E+05   -1.7779120E+00
   2.7303487E-04   1.7977371E+05   -1.7773430E+00
   2.7429577E-04   1.7830778E+05   -1.7767738E+00
   2.7556250E-04   1.7685426E+05   -1.7762042E+00
   2.7683507E-04   1.7541305E+05   -1.7756344E+00
   2.7811353E-04   1.7398405E+05   -1.7750643E+00
   2.7939788E-04   1.7256714E+05   -1.7744940E+00
   2.8068817E-04   1.7116222E+05   -1.7739234E+00
   2.8198442E-04   1.6976918E+05   -1.7733525E+00
   2.8328665E-04   1.6838793E+05   -1.7727814E+00
   2.8459490E-04   1.6701835E+05   -1.7722100E+00
   2.8590919E-04   1.6566035E+05   -1.7716384E+00
   2.8722955E-04   1.6431382E+05   -1.7710666E+00
   2.8855600E-04   1.6297867E+05   -1.7704946E+00
   2.8988859E-04   1.6165479E+05   -1.7699223E+00
   2.9122732E-04   1.6034209E+05   -1.7693499E+00
   2.9257224E-04   1.5904046E+05   -1.7687772E+00
   2.9392337E-04   1.5774982E+05   -1.7682044E+00
   2.9528074E-04   1.5647007E+05   -1.7676313E+00
   2.9664438E-04   1.5520111E+05   -1.7670580E+00
   2.9801431E-04   1.5394284E+05   -1.7664846E+00
   2.9939057E-04   1.5269519E+05   -1.7659110E+00
   3.0077319E-04   1.5145804E+05   -1.7653372E+00
   3.0216219E-04   1.5023131E+05   -1.7647633E+00
   3.0355761E-04   1.4901492E+05   -1.7641892E+00
   3.0495947E-04   1.4780876E+05   -1.7636150E+00
   3.0636780E-04   1.4661276E+05   -1.7630406E+00
   3.0778264E-04   1.4542681E+05   -1.7624661E+00
   3.0920401E-04   1.4425084E+05   -1.7618914E+00
   3.1063195E-04   1.4308476E+05   -1.7613166E+00
   3.1206648E-04   1.4192849E+05   -1.7607417E+00
   3.1350764E-04   1.4078193E+05   -1.7601667E+00
   3.1495545E-04   1.3964500E+05   -1.7595916E+00
   3.1640994E-04   1.3851762E+05   -1.7590164E+00
   3.1787116E-04   1.3739971E+05   -1.7584410E+00
   3.1933912E-04   1.3629117E+05   -1.7578656E+00
   3.2081386E-04   1.3519195E+05   -1.7572901E+00
   3.2229541E-04   1.3410194E+05   -1.7567145E+00
   3.2378381E-04   1.3302107E+05   -1.7561389E+00
   3.2527908E-04   1.3194927E+05   -1.7555632E+00
   3.2678125E-04   1.3088645E+05   -1.7549874E+00
   3.2829036E-04   1.2983253E+05   -1.7544116E+00
   3.2980644E-04   1.2878744E+05   -1.7538357E+00
   3.3132952E-04   1.2775111E+05   -1.7532598E+00
   3.3285963E-04   1.2672345E+05   -1.7526838E+00
   3.3439681E-04   1.2570439E+05   -1.7521078E+00
   3.3594109E-04   1.2469385E+05   -1.7515318E+00
   3.3749250E-04   1.2369177E+05   -1.7509558E+00
   3.3905108E-04   1.2269807E+05   -1.7503798E+00
   3.4061685E-04   1.2171267E+05   -1.7498037E+00
   3.4218986E-04   1.2073550E+05   -1.7492277E+00
   3.4377013E-04   1.1976650E+05   -1.7486517E+00
   3.4535769E-04   1.1880559E+05   -1.7480757E+00
   3.4695259E-04   1.1785271E+05   -1.7474997E+00
   3.4855485E-04   1.1690778E+05   -1.7469237E+00
   3.5016452E-04   1.1597073E+05   -1.7463478E+00
   3.5178161E-04   1.1504149E+05   -1.7457719E+00
   3.5340618E-04   1.1412001E+05   -1.7451960E+00
   3.5503824E-04   1.1320621E+05   -1.7446202E+00
   3.5667785E-04   1.1230002E+05   -1.7440445E+00
   3.5832502E-04   1.1140138E+05   -1.7434688E+00
   3.5997981E-04   1.1051022E+05   -1.7428932E+00
   3.6164223E-04   1.0962649E+05   -1.7423176E+00
   3.6331233E-04   1.0875011E+05   -1.7417421E+00
   3.6499015E-04   1.0788102E+05   -1.7411668E+00
   3.6667571E-04   1.0701916E+05   -1.7405915E+00
   3.6836906E-04   1.0616447E+05   -1.7400163E+00
   3.7007022E-04   1.0531689E+05   -1.7394412E+00
   3.7177925E-04   1.0447634E+05   -1.7388663E+00
   3.7349616E-04   1.0364278E+05   -1.7382914E+00
   3.7522101E-04   1.0281614E+05   -1.7377167E+00
   3.7695382E-04   1.0199637E+05   -1.7371421E+00
   3.7869463E-04   1.0118340E+05   -1.7365676E+00
   3.8044348E-04   1.0037718E+05   -1.7359933E+00
   3.8220041E-04   9.9577639E+04   -1.7354191E+00
   3.8396545E-04   9.8784732E+04   -1.7348451E+00
   3.8573864E-04   9.7998397E+04   -1.7342712E+00
   3.8752002E-04   9.7218579E+04   -1.7336975E+00
   3.8930963E-04   9.6445221E+04   -1.7331240E+00
   3.9110750E-04   9.5678268E+04   -1.7325507E+00
   3.9291368E-04   9.4917665E+04   -1.7319775E+00
   3.9472820E-04   9.4163356E+04   -1.7314045E+00
   3.9655109E-04   9.3415289E+04   -1.7308318E+00
   3.9838241E-04   9.2673409E+04   -1.7302592E+00
   4.0022218E-04   9.1937663E+04   -1.7296868E+00
   4.0207045E-04   9.1207999E+04   -1.7291147E+00
   4.0392725E-04   9.0484365E+04   -1.7285427E+00
   4.0579263E-04   8.9766709E+04   -1.7279710E+00
   4.0766662E-04   8.9054978E+04   -1.7273995E+00
   4.0954927E-04   8.8349124E+04   -1.7268283E+00
   4.1144061E-04   8.7649095E+04   -1.7262573E+00
   4.1334068E-04   8.6954841E+04   -1.7256865E+00
   4.1524953E-04   8.6266313E+04   -1.7251160E+00
   4.1716720E-04   8.5583461E+04   -1.7245458E+00
   4.1909372E-04   8.4906238E+04   -1.7239758E+00
   4.2102914E-04   8.4234595E+04   -1.7234061E+00
   4.2297350E-04   8.3568484E+04   -1.7228367E+00
   4.2492683E-04   8.2907859E+04   -1.7222676E+00
   4.2688919E-04   8.2252671E+04   -1.7216987E+00
   4.2886061E-04   8.1602875E+04   -1.7211302E+00
   4.3084113E-04   8.0958424E+04   -1.7205619E+00
   4.3283080E-04   8.0319273E+04   -1.7199940E+00
   4.3482966E-04   7.9685376E+04   -1.7194264E+00
   4.3683775E-04   7.9056689E+04   -1.7188591E+00
   4.3885511E-04   7.8433167E+04   -1.7182921E+00
   4.4088179E-04   7.7814766E+04   -1.7177254E+00
   4.4291783E-04   7.7201442E+04   -1.7171591E+00
   4.4496327E-04   7.6593152E+04   -1.7165931E+00
   4.4701816E-04   7.5989853E+04   -1.7160275E+00
   4.4908253E-04   7.5391502E+04   -1.7154622E+00
   4.5115644E-04   7.4798058E+04   -1.7148973E+00
   4.5323993E-04   7.4209478E+04   -1.7143328E+00
   4.5533304E-04   7.3625721E+04   -1.7137686E+00
   4.5743582E-04   7.3046746E+04   -1.7132048E+00
   4.5954830E-04   7.2472512E+04   -1.7126413E+00
   4.6167054E-04   7.1902979E+04   -1.7120783E+00
   4.6380259E-04   7.1338106E+04   -1.7115157E+00
   4.6594448E-04   7.0777855E+04   -1.7109534E+00
   4.6809626E-04   7.0222185E+04   -1.7103916E+00
   4.7025797E-04   6.9671058E+04   -1.7098301E+00
   4.7242967E-04   6.9124435E+04   -1.7092691E+00
   4.7461140E-04   6.8582278E+04   -1.7087085E+00
   4.7680321E-04   6.8044549E+04   -1.7081483E+00
   4.7900514E-04   6.7511211E+04   -1.7075886E+00
   4.8121723E-04   6.6982225E+04   -1.7070293E+00
   4.8343954E-04   6.6457556E+04   -1.7064704E+00
   4.8567212E-04   6.5937166E+04   -1.7059120E+00
   4.8791500E-04   6.5421019E+04   -1.7053540E+00
   4.9016825E-04   6.4909079E+04   -1.7047965E+00
   4.9243189E-04   6.4401311E+04   -1.7042395E+00
   4.9470600E-04   6.3897678E+04   -1.7036829E+00
   4.9699060E-04   6.3398147E+04   -1.7031268E+00
   4.9928575E-04   6.2902682E+04   -1.7025711E+00
   5.0159151E-04   6.2411249E+04   -1.7020160E+00
   5.0390791E-04   6.1923813E+04   -1.7014613E+00
   5.0623501E-04   6.1440342E+04   -1.7009072E+00
   5.0857286E-04   6.0960800E+04   -1.7003535E+00
   5.1092150E-04   6.0485156E+04   -1.6998004E+00
   5.1328099E-04   6.0013376E+04   -1.6992477E+00
   5.1565137E-04   5.9545427E+04   -1.6986956E+00
   5.1803270E-04   5.9081277E+04   -1.6981440E+00
   5.2042503E-04   5.8620894E+04   -1.6975929E+00
   5.2282841E-04   5.8164247E+04   -1.6970424E+00
   5.2524289E-04   5.7711302E+04   -1.6964924E+00
   5.2766851E-04   5.7262030E+04   -1.6959429E+00
   5.3010534E-04   5.6816400E+04   -1.6953940E+00
   5.3255342E-04   5.6374379E+04   -1.6948456E+00
   5.3501281E-04   5.5935939E+04   -1.6942978E+00
   5.3748356E-04   5.5501049E+04   -1.6937505E+00
   5.3996571E-04   5.5069679E+04   -1.6932038E+00
   5.4245933E-04   5.4641799E+04   -1.6926577E+00
   5.4496446E-04   5.4217380E+04   -1.6921121E+00
   5.4748117E-04   5.3796393E+04   -1.6915672E+00
   5.5000949E-04   5.3378808E+04   -1.6910228E+00
   5.5254949E-04   5.2964598E+04   -1.6904790E+00
   5.5510123E-04   5.2553733E+04   -1.6899358E+00
   5.5766474E-04   5.2146187E+04   -1.6893932E+00
   5.6024010E-04   5.1741930E+04   -1.6888512E+00
   5.6282734E-04   5.1340935E+04   -1.6883098E+00
   5.6542654E-04   5.0943174E+04   -1.6877691E+00
   5.6803774E-04   5.0548621E+04   -1.6872289E+00
   5.7066099E-04   5.0157249E+04   -1.6866894E+00
   5.7329637E-04   4.9769031E+04   -1.6861505E+00
   5.7594391E-04   4.9383940E+04   -1.6856122E+00
   5.7860368E-04   4.9001950E+04   -1.6850746E+00
   5.8127573E-04   4.8623035E+04   -1.6845376E+00
   5.8396012E-04   4.8247169E+04   -1.6840012E+00
   5.8665691E-04   4.7874328E+04   -1.6834656E+00
   5.8936616E-04   4.7504484E+04   -1.6829305E+00
   5.9208791E-04   4.7137614E+04   -1.6823961E+00
   5.9482223E-04   4.6773693E+04   -1.6818624E+00
   5.9756919E-04   4.6412695E+04   -1.6813294E+00
   6.0032882E-04   4.6054596E+04   -1.6807970E+00
   6.0310120E-04   4.5699372E+04   -1.6802653E+00
   6.0588639E-04   4.5346999E+04   -1.6797343E+00
   6.0868443E-04   4.4997453E+04   -1.6792040E+00
   6.1149540E-04   4.4650710E+04   -1.6786743E+00
   6.1431935E-04   4.4306748E+04   -1.6781454E+00
   6.1715634E-04   4.3965542E+04   -1.6776171E+00
   6.2000644E-04   4.3627070E+04   -1.6770896E+00
   6.2286969E-04   4.3291309E+04   -1.6765628E+00
