#        a       HoverH0(a)       dlogHdloga_of_a(a)
   1.0000000E-04   1.0747399E+06   -1.8635660E+00
   1.0046181E-04   1.0655525E+06   -1.8631084E+00
   1.0092575E-04   1.0564458E+06   -1.8626499E+00
   1.0139184E-04   1.0474192E+06   -1.8621904E+00
   1.0186008E-04   1.0384719E+06   -1.8617299E+00
   1.0233048E-04   1.0296032E+06   -1.8612685E+00
   1.0280305E-04   1.0208124E+06   -1.8608062E+00
   1.0327781E-04   1.0120988E+06   -1.8603429E+00
   1.0375475E-04   1.0034618E+06   -1.8598787E+00
   1.0423390E-04   9.9490060E+05   -1.8594135E+00
   1.0471527E-04   9.8641455E+05   -1.8589474E+00
   1.0519885E-04   9.7800299E+05   -1.8584804E+00
   1.0568467E-04   9.6966524E+05   -1.8580124E+00
   1.0617274E-04   9.6140065E+05   -1.8575435E+00
   1.0666305E-04   9.5320857E+05   -1.8570737E+00
   1.0715563E-04   9.4508834E+05   -1.8566029E+00
   1.0765049E-04   9.3703932E+05   -1.8561312E+00
   1.0814763E-04   9.2906087E+05   -1.8556586E+00
   1.0864707E-04   9.2115236E+05   -1.8551851E+00
   1.0914881E-04   9.1331316E+05   -1.8547106E+00
   1.0965287E-04   9.0554266E+05   -1.8542352E+00
   1.1015926E-04   8.9784024E+05   -1.8537590E+00
   1.1066799E-04   8.9020529E+05   -1.8532818E+00
   1.1117906E-04   8.8263721E+05   -1.8528037E+00
   1.1169250E-04   8.7513539E+05   -1.8523246E+00
   1.1220831E-04   8.6769926E+05   -1.8518447E+00
   1.1272650E-04   8.6032821E+05   -1.8513639E+00
   1.1324708E-04   8.5302167E+05   -1.8508822E+00
   1.1377007E-04   8.4577907E+05   -1.8503996E+00
   1.1429547E-04   8.3859982E+05   -1.8499161E+00
   1.1482330E-04   8.3148337E+05   -1.8494317E+00
   1.1535356E-04   8.2442915E+05   -1.8489464E+00
   1.1588628E-04   8.1743661E+05   -1.8484602E+00
   1.1642145E-04   8.1050519E+05   -1.8479731E+00
   1.1695910E-04   8.0363435E+05   -1.8474852E+00
   1.1749923E-04   7.9682356E+05   -1.8469964E+00
   1.1804185E-04   7.9007226E+05   -1.8465067E+00
   1.1858698E-04   7.8337993E+05   -1.8460161E+00
   1.1913463E-04   7.7674605E+05   -1.8455247E+00
   1.1968481E-04   7.7017009E+05   -1.8450324E+00
   1.2023752E-04   7.6365154E+05   -1.8445392E+00
   1.2079279E-04   7.5718988E+05   -1.8440452E+00
   1.2135063E-04   7.5078461E+05   -1.8435503E+00
   1.2191104E-04   7.4443523E+05   -1.8430546E+00
   1.2247403E-04   7.3814122E+05   -1.8425580E+00
   1.2303963E-04   7.3190211E+05   -1.8420606E+00
   1.2360784E-04   7.2571739E+05   -1.8415623E+00
   1.2417868E-04   7.1958659E+05   -1.8410632E+00
   1.2475215E-04   7.1350923E+05   -1.8405632E+00
   1.2532826E-04   7.0748482E+05   -1.8400624E+00
   1.2590704E-04   7.0151290E+05   -1.8395608E+00
   1.2648850E-04   6.9559300E+05   -1.8390584E+00
   1.2707263E-04   6.8972465E+05   -1.8385551E+00
   1.2765947E-04   6.8390740E+05   -1.8380510E+00
   1.2824901E-04   6.7814079E+05   -1.8375461E+00
   1.2884128E-04   6.7242437E+05   -1.8370403E+00
   1.2943628E-04   6.6675769E+05   -1.8365338E+00
   1.3003403E-04   6.6114031E+05   -1.8360264E+00
   1.3063454E-04   6.5557179E+05   -1.8355183E+00
   1.3123783E-04   6.5005169E+05   -1.8350093E+00
   1.3184390E-04   6.4457959E+05   -1.8344995E+00
   1.3245277E-04   6.3915505E+05   -1.8339890E+00
   1.3306445E-04   6.3377765E+05   -1.8334776E+00
   1.3367895E-04   6.2844698E+05   -1.8329655E+00
   1.3429630E-04   6.2316262E+05   -1.8324526E+00
   1.3491649E-04   6.1792415E+05   -1.8319389E+00
   1.3553955E-04   6.1273116E+05   -1.8314244E+00
   1.3616548E-04   6.0758327E+05   -1.8309092E+00
   1.3679431E-04   6.0248005E+05   -1.8303931E+00
   1.3742604E-04   5.9742112E+05   -1.8298764E+00
   1.3806069E-04   5.9240608E+05   -1.8293588E+00
   1.3869827E-04   5.8743454E+05   -1.8288405E+00
   1.3933879E-04   5.8250611E+05   -1.8283215E+00
   1.3998227E-04   5.7762041E+05   -1.8278017E+00
   1.4062872E-04   5.7277707E+05   -1.8272811E+00
   1.4127816E-04   5.6797570E+05   -1.8267598E+00
   1.4193060E-04   5.6321593E+05   -1.8262378E+00
   1.4258605E-04   5.5849739E+05   -1.8257150E+00
   1.4324453E-04   5.5381972E+05   -1.8251915E+00
   1.4390605E-04   5.4918255E+05   -1.8246673E+00
   1.4457062E-04   5.4458552E+05   -1.8241424E+00
   1.4523826E-04   5.4002829E+05   -1.8236167E+00
   1.4590899E-04   5.3551049E+05   -1.8230903E+00
   1.4658281E-04   5.3103177E+05   -1.8225632E+00
   1.4725974E-04   5.2659179E+05   -1.8220354E+00
   1.4793981E-04   5.2219020E+05   -1.8215070E+00
   1.4862301E-04   5.1782666E+05   -1.8209778E+00
   1.4930936E-04   5.1350084E+05   -1.8204479E+00
   1.4999889E-04   5.0921240E+05   -1.8199173E+00
   1.5069160E-04   5.0496102E+05   -1.8193861E+00
   1.5138751E-04   5.0074635E+05   -1.8188541E+00
   1.5208663E-04   4.9656807E+05   -1.8183215E+00
   1.5278899E-04   4.9242587E+05   -1.8177882E+00
   1.5349458E-04   4.8831943E+05   -1.8172543E+00
   1.5420343E-04   4.8424842E+05   -1.8167197E+00
   1.5491556E-04   4.8021253E+05   -1.8161844E+00
   1.5563098E-04   4.7621146E+05   -1.8156485E+00
   1.5634970E-04   4.7224489E+05   -1.8151119E+00
   1.5707174E-04   4.6831251E+05   -1.8145747E+00
   1.5779711E-04   4.6441404E+05   -1.8140368E+00
   1.5852584E-04   4.6054915E+05   -1.8134983E+00
   1.5925792E-04   4.5671757E+05   -1.8129592E+00
   1.5999339E-04   4.5291898E+05   -1.8124195E+00
   1.6073226E-04   4.4915311E+05   -1.8118791E+00
   1.6147454E-04   4.4541966E+05   -1.8113381E+00
   1.6222024E-04   4.4171834E+05   -1.8107965E+00
   1.6296939E-04   4.3804888E+05   -1.8102543E+00
   1.6372200E-04   4.3441098E+05   -1.8097115E+00
   1.6447809E-04   4.3080438E+05   -1.8091681E+00
   1.6523767E-04   4.2722878E+05   -1.8086241E+00
   1.6600075E-04   4.2368393E+05   -1.8080795E+00
   1.6676736E-04   4.2016954E+05   -1.8075343E+00
   1.6753751E-04   4.1668536E+05   -1.8069886E+00
   1.6831122E-04   4.1323110E+05   -1.8064423E+00
   1.6908849E-04   4.0980651E+05   -1.8058954E+00
   1.6986936E-04   4.0641133E+05   -1.8053479E+00
   1.7065384E-04   4.0304529E+05   -1.8047999E+00
   1.7144193E-04   3.9970814E+05   -1.8042513E+00
   1.7223367E-04   3.9639962E+05   -1.8037022E+00
   1.7302906E-04   3.9311949E+05   -1.8031525E+00
   1.7382813E-04   3.8986748E+05   -1.8026023E+00
   1.7463089E-04   3.8664336E+05   -1.8020516E+00
   1.7543735E-04   3.8344688E+05   -1.8015003E+00
   1.7624754E-04   3.8027778E+05   -1.8009486E+00
   1.7706147E-04   3.7713584E+05   -1.8003962E+00
   1.7787916E-04   3.7402081E+05   -1.7998434E+00
   1.7870062E-04   3.7093245E+05   -1.7992901E+00
   1.7952588E-04   3.6787054E+05   -1.7987363E+00
   1.8035495E-04   3.6483483E+05   -1.7981819E+00
   1.8118785E-04   3.6182509E+05   -1.7976271E+00
   1.8202459E-04   3.5884110E+05   -1.7970718E+00
   1.8286520E-04   3.5588263E+05   -1.7965160E+00
   1.8370969E-04   3.5294946E+05   -1.7959597E+00
   1.8455808E-04   3.5004136E+05   -1.7954030E+00
   1.8541039E-04   3.4715811E+05   -1.7948458E+00
   1.8626663E-04   3.4429950E+05   -1.7942881E+00
   1.8712683E-04   3.4146530E+05   -1.7937300E+00
   1.8799100E-04   3.3865531E+05   -1.7931714E+00
   1.8885917E-04   3.3586930E+05   -1.7926124E+00
   1.8973134E-04   3.3310707E+05   -1.7920530E+00
   1.9060754E-04   3.3036841E+05   -1.7914931E+00
   1.9148778E-04   3.2765311E+05   -1.7909327E+00
   1.9237209E-04   3.2496096E+05   -1.7903720E+00
   1.9326049E-04   3.2229177E+05   -1.7898108E+00
   1.9415299E-04   3.1964533E+05   -1.7892493E+00
   1.9504960E-04   3.1702145E+05   -1.7886873E+00
   1.9595036E-04   3.1441991E+05   -1.7881249E+00
   1.9685528E-04   3.1184053E+05   -1.7875621E+00
   1.9776438E-04   3.0928312E+05   -1.7869990E+00
   1.9867768E-04   3.0674747E+05   -1.7864354E+00
   1.9959519E-04   3.0423341E+05   -1.7858715E+00
   2.0051694E-04   3.0174073E+05   -1.7853072E+00
   2.0144295E-04   2.9926925E+05   -1.7847425E+00
   2.0237324E-04   2.9681879E+05   -1.7841775E+00
   2.0330782E-04   2.9438916E+05   -1.7836121E+00
   2.0424671E-04   2.9198018E+05   -1.7830463E+00
   2.0518995E-04   2.8959167E+05   -1.7824803E+00
   2.0613754E-04   2.8722345E+05   -1.7819138E+00
   2.0708950E-04   2.8487533E+05   -1.7813471E+00
   2.0804586E-04   2.8254715E+05   -1.7807800E+00
   2.0900664E-04   2.8023873E+05   -1.7802126E+00
   2.0997185E-04   2.7794990E+05   -1.7796449E+00
   2.1094152E-04   2.7568048E+05   -1.7790768E+00
   2.1191567E-04   2.7343031E+05   -1.7785085E+00
   2.1289432E-04   2.7119922E+05   -1.7779398E+00
   2.1387749E-04   2.6898703E+05   -1.7773709E+00
   2.1486520E-04   2.6679359E+05   -1.7768017E+00
   2.1585747E-04   2.6461873E+05   -1.7762322E+00
   2.1685432E-04   2.6246229E+05   -1.7756624E+00
   2.1785578E-04   2.6032410E+05   -1.7750924E+00
   2.1886186E-04   2.5820401E+05   -1.7745221E+00
   2.1987259E-04   2.5610186E+05   -1.7739515E+00
   2.2088798E-04   2.5401750E+05   -1.7733807E+00
   2.2190807E-04   2.5195076E+05   -1.7728096E+00
   2.2293286E-04   2.4990149E+05   -1.7722383E+00
   2.2396239E-04   2.4786954E+05   -1.7716668E+00
   2.2499667E-04   2.4585477E+05   -1.7710950E+00
   2.2603573E-04   2.4385701E+05   -1.7705230E+00
   2.2707958E-04   2.4187612E+05   -1.7699508E+00
   2.2812826E-04   2.3991196E+05   -1.7693784E+00
   2.2918178E-04   2.3796438E+05   -1.7688057E+00
   2.3024017E-04   2.3603322E+05   -1.7682329E+00
   2.3130344E-04   2.3411836E+05   -1.7676599E+00
   2.3237162E-04   2.3221965E+05   -1.7670867E+00
   2.3344474E-04   2.3033694E+05   -1.7665133E+00
   2.3452281E-04   2.2847010E+05   -1.7659397E+00
   2.3560586E-04   2.2661899E+05   -1.7653660E+00
   2.3669392E-04   2.2478347E+05   -1.7647921E+00
   2.3778699E-04   2.2296341E+05   -1.7642181E+00
   2.3888512E-04   2.2115867E+05   -1.7636439E+00
   2.3998831E-04   2.1936912E+05   -1.7630695E+00
   2.4109661E-04   2.1759463E+05   -1.7624951E+00
   2.4221001E-04   2.1583506E+05   -1.7619204E+00
   2.4332857E-04   2.1409029E+05   -1.7613457E+00
   2.4445228E-04   2.1236018E+05   -1.7607708E+00
   2.4558119E-04   2.1064461E+05   -1.7601959E+00
   2.4671531E-04   2.0894346E+05   -1.7596208E+00
   2.4785467E-04   2.0725659E+05   -1.7590456E+00
   2.4899928E-04   2.0558389E+05   -1.7584703E+00
   2.5014919E-04   2.0392523E+05   -1.7578949E+00
   2.5130440E-04   2.0228048E+05   -1.7573195E+00
   2.5246495E-04   2.0064954E+05   -1.7567439E+00
   2.5363086E-04   1.9903227E+05   -1.7561683E+00
   2.5480216E-04   1.9742856E+05   -1.7555926E+00
   2.5597886E-04   1.9583829E+05   -1.7550169E+00
   2.5716100E-04   1.9426135E+05   -1.7544411E+00
   2.5834859E-04   1.9269761E+05   -1.7538653E+00
   2.5954168E-04   1.9114697E+05   -1.7532894E+00
   2.6074027E-04   1.8960931E+05   -1.7527135E+00
   2.6194439E-04   1.8808452E+05   -1.7521375E+00
   2.6315408E-04   1.8657249E+05   -1.7515616E+00
   2.6436935E-04   1.8507310E+05   -1.7509856E+00
   2.6559024E-04   1.8358625E+05   -1.7504096E+00
   2.6681676E-04   1.8211183E+05   -1.7498336E+00
   2.6804895E-04   1.8064973E+05   -1.7492576E+00
   2.6928683E-04   1.7919985E+05   -1.7486816E+00
   2.7053042E-04   1.7776207E+05   -1.7481057E+00
   2.7177976E-04   1.7633630E+05   -1.7475297E+00
   2.7303487E-04   1.7492242E+05   -1.7469538E+00
   2.7429577E-04   1.7352035E+05   -1.7463779E+00
   2.7556250E-04   1.7212996E+05   -1.7458020E+00
   2.7683507E-04   1.7075118E+05   -1.7452262E+00
   2.7811353E-04   1.6938388E+05   -1.7446504E+00
   2.7939788E-04   1.6802798E+05   -1.7440747E+00
   2.8068817E-04   1.6668338E+05   -1.7434991E+00
   2.8198442E-04   1.6534997E+05   -1.7429235E+00
   2.8328665E-04   1.6402767E+05   -1.7423480E+00
   2.8459490E-04   1.6271637E+05   -1.7417726E+00
   2.8590919E-04   1.6141598E+05   -1.7411972E+00
   2.8722955E-04   1.6012641E+05   -1.7406220E+00
   2.8855600E-04   1.5884757E+05   -1.7400468E+00
   2.8988859E-04   1.5757935E+05   -1.7394718E+00
   2.9122732E-04   1.5632167E+05   -1.7388969E+00
   2.9257224E-04   1.5507445E+05   -1.7383221E+00
   2.9392337E-04   1.5383758E+05   -1.7377474E+00
   2.9528074E-04   1.5261098E+05   -1.7371728E+00
   2.9664438E-04   1.5139456E+05   -1.7365984E+00
   2.9801431E-04   1.5018823E+05   -1.7360241E+00
   2.9939057E-04   1.4899191E+05   -1.7354500E+00
   3.0077319E-04   1.4780551E+05   -1.7348760E+00
   3.0216219E-04   1.4662895E+05   -1.7343022E+00
   3.0355761E-04   1.4546213E+05   -1.7337285E+00
   3.0495947E-04   1.4430499E+05   -1.7331550E+00
   3.0636780E-04   1.4315742E+05   -1.7325817E+00
   3.0778264E-04   1.4201936E+05   -1.7320086E+00
   3.0920401E-04   1.4089071E+05   -1.7314357E+00
   3.1063195E-04   1.3977141E+05   -1.7308629E+00
   3.1206648E-04   1.3866136E+05   -1.7302904E+00
   3.1350764E-04   1.3756049E+05   -1.7297181E+00
   3.1495545E-04   1.3646872E+05   -1.7291459E+00
   3.1640994E-04   1.3538597E+05   -1.7285740E+00
   3.1787116E-04   1.3431217E+05   -1.7280024E+00
   3.1933912E-04   1.3324723E+05   -1.7274309E+00
   3.2081386E-04   1.3219109E+05   -1.7268597E+00
   3.2229541E-04   1.3114366E+05   -1.7262888E+00
   3.2378381E-04   1.3010488E+05   -1.7257181E+00
   3.2527908E-04   1.2907466E+05   -1.7251476E+00
   3.2678125E-04   1.2805293E+05   -1.7245774E+00
   3.2829036E-04   1.2703963E+05   -1.7240075E+00
   3.2980644E-04   1.2603468E+05   -1.7234378E+00
   3.3132952E-04   1.2503800E+05   -1.7228684E+00
   3.3285963E-04   1.2404953E+05   -1.7222993E+00
   3.3439681E-04   1.2306920E+05   -1.7217305E+00
   3.3594109E-04   1.2209693E+05   -1.7211620E+00
   3.3749250E-04   1.2113267E+05   -1.7205938E+00
   3.3905108E-04   1.2017633E+05   -1.7200259E+00
   3.4061685E-04   1.1922786E+05   -1.7194583E+00
   3.4218986E-04   1.1828718E+05   -1.7188911E+00
   3.4377013E-04   1.1735423E+05   -1.7183241E+00
   3.4535769E-04   1.1642894E+05   -1.7177575E+00
   3.4695259E-04   1.1551125E+05   -1.7171912E+00
   3.4855485E-04   1.1460109E+05   -1.7166253E+00
   3.5016452E-04   1.1369839E+05   -1.7160597E+00
   3.5178161E-04   1.1280311E+05   -1.7154945E+00
   3.5340618E-04   1.1191516E+05   -1.7149296E+00
   3.5503824E-04   1.1103449E+05   -1.7143651E+00
   3.5667785E-04   1.1016104E+05   -1.7138009E+00
   3.5832502E-04   1.0929474E+05   -1.7132371E+00
   3.5997981E-04   1.0843554E+05   -1.7126738E+00
   3.6164223E-04   1.0758337E+05   -1.7121108E+00
   3.6331233E-04   1.0673818E+05   -1.7115482E+00
   3.6499015E-04   1.0589990E+05   -1.7109859E+00
   3.6667571E-04   1.0506847E+05   -1.7104241E+00
   3.6836906E-04   1.0424384E+05   -1.7098627E+00
   3.7007022E-04   1.0342596E+05   -1.7093018E+00
   3.7177925E-04   1.0261475E+05   -1.7087412E+00
   3.7349616E-04   1.0181017E+05   -1.7081811E+00
   3.7522101E-04   1.0101216E+05   -1.7076214E+00
   3.7695382E-04   1.0022066E+05   -1.7070621E+00
   3.7869463E-04   9.9435619E+04   -1.7065033E+00
   3.8044348E-04   9.8656983E+04   -1.7059449E+00
   3.8220041E-04   9.7884695E+04   -1.7053869E+00
   3.8396545E-04   9.7118702E+04   -1.7048295E+00
   3.8573864E-04   9.6358951E+04   -1.7042725E+00
   3.8752002E-04   9.5605388E+04   -1.7037159E+00
   3.8930963E-04   9.4857962E+04   -1.7031599E+00
   3.9110750E-04   9.4116620E+04   -1.7026043E+00
   3.9291368E-04   9.3381310E+04   -1.7020492E+00
   3.9472820E-04   9.2651983E+04   -1.7014946E+00
   3.9655109E-04   9.1928586E+04   -1.7009404E+00
   3.9838241E-04   9.1211070E+04   -1.7003868E+00
   4.0022218E-04   9.0499385E+04   -1.6998337E+00
   4.0207045E-04   8.9793482E+04   -1.6992811E+00
   4.0392725E-04   8.9093312E+04   -1.6987290E+00
   4.0579263E-04   8.8398827E+04   -1.6981775E+00
   4.0766662E-04   8.7709977E+04   -1.6976264E+00
   4.0954927E-04   8.7026717E+04   -1.6970759E+00
   4.1144061E-04   8.6348997E+04   -1.6965259E+00
   4.1334068E-04   8.5676773E+04   -1.6959765E+00
   4.1524953E-04   8.5009997E+04   -1.6954276E+00
   4.1716720E-04   8.4348623E+04   -1.6948793E+00
   4.1909372E-04   8.3692606E+04   -1.6943315E+00
   4.2102914E-04   8.3041900E+04   -1.6937843E+00
   4.2297350E-04   8.2396462E+04   -1.6932376E+00
   4.2492683E-04   8.1756245E+04   -1.6926916E+00
   4.2688919E-04   8.1121208E+04   -1.6921460E+00
   4.2886061E-04   8.0491305E+04   -1.6916011E+00
   4.3084113E-04   7.9866494E+04   -1.6910568E+00
   4.3283080E-04   7.9246731E+04   -1.6905130E+00
   4.3482966E-04   7.8631975E+04   -1.6899699E+00
   4.3683775E-04   7.8022183E+04   -1.6894273E+00
   4.3885511E-04   7.7417313E+04   -1.6888854E+00
   4.4088179E-04   7.6817324E+04   -1.6883440E+00
   4.4291783E-04   7.6222175E+04   -1.6878033E+00
   4.4496327E-04   7.5631826E+04   -1.6872632E+00
   4.4701816E-04   7.5046235E+04   -1.6867237E+00
   4.4908253E-04   7.4465363E+04   -1.6861849E+00
   4.5115644E-04   7.3889171E+04   -1.6856466E+00
   4.5323993E-04   7.3317619E+04   -1.6851090E+00
   4.5533304E-04   7.2750668E+04   -1.6845721E+00
   4.5743582E-04   7.2188280E+04   -1.6840358E+00
   4.5954830E-04   7.1630416E+04   -1.6835001E+00
   4.6167054E-04   7.1077039E+04   -1.6829652E+00
   4.6380259E-04   7.0528110E+04   -1.6824308E+00
   4.6594448E-04   6.9983593E+04   -1.6818971E+00
   4.6809626E-04   6.9443451E+04   -1.6813641E+00
   4.7025797E-04   6.8907646E+04   -1.6808318E+00
   4.7242967E-04   6.8376143E+04   -1.6803002E+00
   4.7461140E-04   6.7848906E+04   -1.6797692E+00
   4.7680321E-04   6.7325899E+04   -1.6792389E+00
   4.7900514E-04   6.6807087E+04   -1.6787093E+00
   4.8121723E-04   6.6292434E+04   -1.6781804E+00
   4.8343954E-04   6.5781906E+04   -1.6776522E+00
   4.8567212E-04   6.5275469E+04   -1.6771247E+00
   4.8791500E-04   6.4773088E+04   -1.6765979E+00
   4.9016825E-04   6.4274729E+04   -1.6760719E+00
   4.9243189E-04   6.3780359E+04   -1.6755465E+00
   4.9470600E-04   6.3289944E+04   -1.6750218E+00
   4.9699060E-04   6.2803453E+04   -1.6744979E+00
   4.9928575E-04   6.2320850E+04   -1.6739747E+00
   5.0159151E-04   6.1842106E+04   -1.6734523E+00
   5.0390791E-04   6.1367186E+04   -1.6729305E+00
   5.0623501E-04   6.0896061E+04   -1.6724096E+00
   5.0857286E-04   6.0428697E+04   -1.6718893E+00
   5.1092150E-04   5.9965063E+04   -1.6713698E+00
   5.1328099E-04   5.9505129E+04   -1.6708511E+00
   5.1565137E-04   5.9048864E+04   -1.6703331E+00
   5.1803270E-04   5.8596237E+04   -1.6698159E+00
   5.2042503E-04   5.8147218E+04   -1.6692994E+00
   5.2282841E-04   5.7701777E+04   -1.6687837E+00
   5.2524289E-04   5.7259885E+04   -1.6682688E+00
   5.2766851E-04   5.6821511E+04   -1.6677546E+00
   5.3010534E-04   5.6386627E+04   -1.6672412E+00
   5.3255342E-04   5.5955203E+04   -1.6667286E+00
   5.3501281E-04   5.5527211E+04   -1.6662168E+00
   5.3748356E-04   5.5102623E+04   -1.6657058E+00
   5.3996571E-04   5.4681410E+04   -1.6651956E+00
   5.4245933E-04   5.4263544E+04   -1.6646861E+00
   5.4496446E-04   5.3848998E+04   -1.6641775E+00
   5.4748117E-04   5.3437744E+04   -1.6636697E+00
   5.5000949E-04   5.3029755E+04   -1.6631626E+00
   5.5254949E-04   5.2625004E+04   -1.6626564E+00
   5.5510123E-04   5.2223463E+04   -1.6621510E+00
   5.5766474E-04   5.1825107E+04   -1.6616464E+00
   5.6024010E-04   5.1429909E+04   -1.6611427E+00
   5.6282734E-04   5.1037843E+04   -1.6606397E+00
   5.6542654E-04   5.0648883E+04   -1.6601376E+00
   5.6803774E-04   5.0263004E+04   -1.6596363E+00
   5.7066099E-04   4.9880180E+04   -1.6591358E+00
   5.7329637E-04   4.9500385E+04   -1.6586362E+00
   5.7594391E-04   4.9123595E+04   -1.6581375E+00
   5.7860368E-04   4.8749785E+04   -1.6576395E+00
   5.8127573E-04   4.8378931E+04   -1.6571424E+00
   5.8396012E-04   4.8011008E+04   -1.6566462E+00
   5.8665691E-04   4.7645992E+04   -1.6561508E+00
   5.8936616E-04   4.7283858E+04   -1.6556563E+00
   5.9208791E-04   4.6924584E+04   -1.6551626E+00
   5.9482223E-04   4.6568146E+04   -1.6546698E+00
   5.9756919E-04   4.6214519E+04   -1.6541778E+00
   6.0032882E-04   4.5863682E+04   -1.6536867E+00
   6.0310120E-04   4.5515612E+04   -1.6531965E+00
   6.0588639E-04   4.5170285E+04   -1.6527072E+00
   6.0868443E-04   4.4827678E+04   -1.6522187E+00
   6.1149540E-04   4.4487771E+04   -1.6517311E+00
   6.1431935E-04   4.4150540E+04   -1.6512444E+00
   6.1715634E-04   4.3815963E+04   -1.6507586E+00
   6.2000644E-04   4.3484019E+04   -1.6502736E+00
   6.2286969E-04   4.3154686E+04   -1.6497896E+00
