#        a       HoverH0(a)       dlogHdloga_of_a(a)
   1.0000000E-04   1.1758602E+06   -1.8826861E+00
   1.0046181E-04   1.1657055E+06   -1.8822719E+00
   1.0092575E-04   1.1556407E+06   -1.8818567E+00
   1.0139184E-04   1.1456650E+06   -1.8814404E+00
   1.0186008E-04   1.1357776E+06   -1.8810232E+00
   1.0233048E-04   1.1259777E+06   -1.8806049E+00
   1.0280305E-04   1.1162645E+06   -1.8801857E+00
   1.0327781E-04   1.1066373E+06   -1.8797654E+00
   1.0375475E-04   1.0970952E+06   -1.8793441E+00
   1.0423390E-04   1.0876375E+06   -1.8789218E+00
   1.0471527E-04   1.0782634E+06   -1.8784985E+00
   1.0519885E-04   1.0689722E+06   -1.8780742E+00
   1.0568467E-04   1.0597631E+06   -1.8776489E+00
   1.0617274E-04   1.0506354E+06   -1.8772226E+00
   1.0666305E-04   1.0415884E+06   -1.8767953E+00
   1.0715563E-04   1.0326214E+06   -1.8763670E+00
   1.0765049E-04   1.0237335E+06   -1.8759377E+00
   1.0814763E-04   1.0149242E+06   -1.8755075E+00
   1.0864707E-04   1.0061927E+06   -1.8750762E+00
   1.0914881E-04   9.9753825E+05   -1.8746439E+00
   1.0965287E-04   9.8896023E+05   -1.8742106E+00
   1.1015926E-04   9.8045793E+05   -1.8737763E+00
   1.1066799E-04   9.7203068E+05   -1.8733410E+00
   1.1117906E-04   9.6367780E+05   -1.8729048E+00
   1.1169250E-04   9.5539861E+05   -1.8724675E+00
   1.1220831E-04   9.4719247E+05   -1.8720293E+00
   1.1272650E-04   9.3905870E+05   -1.8715901E+00
   1.1324708E-04   9.3099667E+05   -1.8711499E+00
   1.1377007E-04   9.2300574E+05   -1.8707087E+00
   1.1429547E-04   9.1508525E+05   -1.8702665E+00
   1.1482330E-04   9.0723458E+05   -1.8698233E+00
   1.1535356E-04   8.9945310E+05   -1.8693792E+00
   1.1588628E-04   8.9174018E+05   -1.8689341E+00
   1.1642145E-04   8.8409523E+05   -1.8684880E+00
   1.1695910E-04   8.7651761E+05   -1.8680409E+00
   1.1749923E-04   8.6900674E+05   -1.8675929E+00
   1.1804185E-04   8.6156201E+05   -1.8671439E+00
   1.1858698E-04   8.5418282E+05   -1.8666939E+00
   1.1913463E-04   8.4686860E+05   -1.8662429E+00
   1.1968481E-04   8.3961875E+05   -1.8657910E+00
   1.2023752E-04   8.3243270E+05   -1.8653381E+00
   1.2079279E-04   8.2530988E+05   -1.8648843E+00
   1.2135063E-04   8.1824972E+05   -1.8644295E+00
   1.2191104E-04   8.1125166E+05   -1.8639737E+00
   1.2247403E-04   8.0431513E+05   -1.8635170E+00
   1.2303963E-04   7.9743960E+05   -1.8630593E+00
   1.2360784E-04   7.9062452E+05   -1.8626006E+00
   1.2417868E-04   7.8386933E+05   -1.8621410E+00
   1.2475215E-04   7.7717351E+05   -1.8616805E+00
   1.2532826E-04   7.7053652E+05   -1.8612190E+00
   1.2590704E-04   7.6395783E+05   -1.8607566E+00
   1.2648850E-04   7.5743693E+05   -1.8602932E+00
   1.2707263E-04   7.5097329E+05   -1.8598288E+00
   1.2765947E-04   7.4456641E+05   -1.8593636E+00
   1.2824901E-04   7.3821577E+05   -1.8588974E+00
   1.2884128E-04   7.3192087E+05   -1.8584302E+00
   1.2943628E-04   7.2568121E+05   -1.8579621E+00
   1.3003403E-04   7.1949630E+05   -1.8574931E+00
   1.3063454E-04   7.1336565E+05   -1.8570232E+00
   1.3123783E-04   7.0728876E+05   -1.8565523E+00
   1.3184390E-04   7.0126517E+05   -1.8560805E+00
   1.3245277E-04   6.9529439E+05   -1.8556078E+00
   1.3306445E-04   6.8937594E+05   -1.8551341E+00
   1.3367895E-04   6.8350937E+05   -1.8546596E+00
   1.3429630E-04   6.7769421E+05   -1.8541841E+00
   1.3491649E-04   6.7192999E+05   -1.8537077E+00
   1.3553955E-04   6.6621627E+05   -1.8532304E+00
   1.3616548E-04   6.6055259E+05   -1.8527522E+00
   1.3679431E-04   6.5493850E+05   -1.8522731E+00
   1.3742604E-04   6.4937356E+05   -1.8517931E+00
   1.3806069E-04   6.4385733E+05   -1.8513121E+00
   1.3869827E-04   6.3838937E+05   -1.8508303E+00
   1.3933879E-04   6.3296926E+05   -1.8503476E+00
   1.3998227E-04   6.2759656E+05   -1.8498640E+00
   1.4062872E-04   6.2227086E+05   -1.8493795E+00
   1.4127816E-04   6.1699173E+05   -1.8488941E+00
   1.4193060E-04   6.1175875E+05   -1.8484078E+00
   1.4258605E-04   6.0657151E+05   -1.8479206E+00
   1.4324453E-04   6.0142961E+05   -1.8474326E+00
   1.4390605E-04   5.9633264E+05   -1.8469437E+00
   1.4457062E-04   5.9128020E+05   -1.8464539E+00
   1.4523826E-04   5.8627189E+05   -1.8459632E+00
   1.4590899E-04   5.8130732E+05   -1.8454717E+00
   1.4658281E-04   5.7638610E+05   -1.8449793E+00
   1.4725974E-04   5.7150783E+05   -1.8444860E+00
   1.4793981E-04   5.6667214E+05   -1.8439919E+00
   1.4862301E-04   5.6187865E+05   -1.8434969E+00
   1.4930936E-04   5.5712697E+05   -1.8430011E+00
   1.4999889E-04   5.5241675E+05   -1.8425044E+00
   1.5069160E-04   5.4774760E+05   -1.8420069E+00
   1.5138751E-04   5.4311916E+05   -1.8415085E+00
   1.5208663E-04   5.3853107E+05   -1.8410093E+00
   1.5278899E-04   5.3398296E+05   -1.8405092E+00
   1.5349458E-04   5.2947449E+05   -1.8400083E+00
   1.5420343E-04   5.2500530E+05   -1.8395066E+00
   1.5491556E-04   5.2057504E+05   -1.8390040E+00
   1.5563098E-04   5.1618335E+05   -1.8385007E+00
   1.5634970E-04   5.1182991E+05   -1.8379965E+00
   1.5707174E-04   5.0751436E+05   -1.8374914E+00
   1.5779711E-04   5.0323636E+05   -1.8369856E+00
   1.5852584E-04   4.9899560E+05   -1.8364790E+00
   1.5925792E-04   4.9479172E+05   -1.8359715E+00
   1.5999339E-04   4.9062441E+05   -1.8354633E+00
   1.6073226E-04   4.8649334E+05   -1.8349542E+00
   1.6147454E-04   4.8239819E+05   -1.8344443E+00
   1.6222024E-04   4.7833863E+05   -1.8339337E+00
   1.6296939E-04   4.7431435E+05   -1.8334222E+00
   1.6372200E-04   4.7032503E+05   -1.8329100E+00
   1.6447809E-04   4.6637038E+05   -1.8323970E+00
   1.6523767E-04   4.6245006E+05   -1.8318832E+00
   1.6600075E-04   4.5856379E+05   -1.8313686E+00
   1.6676736E-04   4.5471126E+05   -1.8308533E+00
   1.6753751E-04   4.5089216E+05   -1.8303372E+00
   1.6831122E-04   4.4710620E+05   -1.8298203E+00
   1.6908849E-04   4.4335309E+05   -1.8293027E+00
   1.6986936E-04   4.3963253E+05   -1.8287843E+00
   1.7065384E-04   4.3594424E+05   -1.8282651E+00
   1.7144193E-04   4.3228792E+05   -1.8277452E+00
   1.7223367E-04   4.2866330E+05   -1.8272246E+00
   1.7302906E-04   4.2507009E+05   -1.8267032E+00
   1.7382813E-04   4.2150802E+05   -1.8261811E+00
   1.7463089E-04   4.1797680E+05   -1.8256582E+00
   1.7543735E-04   4.1447616E+05   -1.8251346E+00
   1.7624754E-04   4.1100583E+05   -1.8246103E+00
   1.7706147E-04   4.0756555E+05   -1.8240853E+00
   1.7787916E-04   4.0415503E+05   -1.8235595E+00
   1.7870062E-04   4.0077403E+05   -1.8230331E+00
   1.7952588E-04   3.9742228E+05   -1.8225059E+00
   1.8035495E-04   3.9409952E+05   -1.8219780E+00
   1.8118785E-04   3.9080549E+05   -1.8214494E+00
   1.8202459E-04   3.8753994E+05   -1.8209202E+00
   1.8286520E-04   3.8430261E+05   -1.8203902E+00
   1.8370969E-04   3.8109325E+05   -1.8198595E+00
   1.8455808E-04   3.7791163E+05   -1.8193282E+00
   1.8541039E-04   3.7475748E+05   -1.8187962E+00
   1.8626663E-04   3.7163057E+05   -1.8182635E+00
   1.8712683E-04   3.6853065E+05   -1.8177301E+00
   1.8799100E-04   3.6545749E+05   -1.8171961E+00
   1.8885917E-04   3.6241086E+05   -1.8166614E+00
   1.8973134E-04   3.5939050E+05   -1.8161260E+00
   1.9060754E-04   3.5639620E+05   -1.8155900E+00
   1.9148778E-04   3.5342771E+05   -1.8150534E+00
   1.9237209E-04   3.5048482E+05   -1.8145161E+00
   1.9326049E-04   3.4756729E+05   -1.8139781E+00
   1.9415299E-04   3.4467491E+05   -1.8134395E+00
   1.9504960E-04   3.4180744E+05   -1.8129003E+00
   1.9595036E-04   3.3896468E+05   -1.8123605E+00
   1.9685528E-04   3.3614639E+05   -1.8118201E+00
   1.9776438E-04   3.3335236E+05   -1.8112790E+00
   1.9867768E-04   3.3058239E+05   -1.8107373E+00
   1.9959519E-04   3.2783625E+05   -1.8101950E+00
   2.0051694E-04   3.2511373E+05   -1.8096521E+00
   2.0144295E-04   3.2241463E+05   -1.8091086E+00
   2.0237324E-04   3.1973874E+05   -1.8085646E+00
   2.0330782E-04   3.1708585E+05   -1.8080199E+00
   2.0424671E-04   3.1445576E+05   -1.8074746E+00
   2.0518995E-04   3.1184827E+05   -1.8069288E+00
   2.0613754E-04   3.0926319E+05   -1.8063824E+00
   2.0708950E-04   3.0670030E+05   -1.8058354E+00
   2.0804586E-04   3.0415942E+05   -1.8052879E+00
   2.0900664E-04   3.0164035E+05   -1.8047398E+00
   2.0997185E-04   2.9914290E+05   -1.8041912E+00
   2.1094152E-04   2.9666688E+05   -1.8036420E+00
   2.1191567E-04   2.9421210E+05   -1.8030922E+00
   2.1289432E-04   2.9177837E+05   -1.8025420E+00
   2.1387749E-04   2.8936550E+05   -1.8019912E+00
   2.1486520E-04   2.8697332E+05   -1.8014398E+00
   2.1585747E-04   2.8460163E+05   -1.8008880E+00
   2.1685432E-04   2.8225027E+05   -1.8003356E+00
   2.1785578E-04   2.7991904E+05   -1.7997827E+00
   2.1886186E-04   2.7760778E+05   -1.7992293E+00
   2.1987259E-04   2.7531630E+05   -1.7986754E+00
   2.2088798E-04   2.7304444E+05   -1.7981210E+00
   2.2190807E-04   2.7079201E+05   -1.7975661E+00
   2.2293286E-04   2.6855885E+05   -1.7970107E+00
   2.2396239E-04   2.6634479E+05   -1.7964548E+00
   2.2499667E-04   2.6414966E+05   -1.7958985E+00
   2.2603573E-04   2.6197329E+05   -1.7953417E+00
   2.2707958E-04   2.5981553E+05   -1.7947844E+00
   2.2812826E-04   2.5767619E+05   -1.7942267E+00
   2.2918178E-04   2.5555513E+05   -1.7936685E+00
   2.3024017E-04   2.5345218E+05   -1.7931098E+00
   2.3130344E-04   2.5136718E+05   -1.7925508E+00
   2.3237162E-04   2.4929998E+05   -1.7919912E+00
   2.3344474E-04   2.4725041E+05   -1.7914313E+00
   2.3452281E-04   2.4521833E+05   -1.7908709E+00
   2.3560586E-04   2.4320358E+05   -1.7903101E+00
   2.3669392E-04   2.4120600E+05   -1.7897489E+00
   2.3778699E-04   2.3922545E+05   -1.7891872E+00
   2.3888512E-04   2.3726178E+05   -1.7886252E+00
   2.3998831E-04   2.3531483E+05   -1.7880627E+00
   2.4109661E-04   2.3338447E+05   -1.7874999E+00
   2.4221001E-04   2.3147054E+05   -1.7869367E+00
   2.4332857E-04   2.2957290E+05   -1.7863730E+00
   2.4445228E-04   2.2769142E+05   -1.7858090E+00
   2.4558119E-04   2.2582594E+05   -1.7852447E+00
   2.4671531E-04   2.2397632E+05   -1.7846800E+00
   2.4785467E-04   2.2214244E+05   -1.7841149E+00
   2.4899928E-04   2.2032414E+05   -1.7835494E+00
   2.5014919E-04   2.1852129E+05   -1.7829836E+00
   2.5130440E-04   2.1673377E+05   -1.7824175E+00
   2.5246495E-04   2.1496142E+05   -1.7818510E+00
   2.5363086E-04   2.1320413E+05   -1.7812842E+00
   2.5480216E-04   2.1146175E+05   -1.7807170E+00
   2.5597886E-04   2.0973416E+05   -1.7801496E+00
   2.5716100E-04   2.0802123E+05   -1.7795818E+00
   2.5834859E-04   2.0632283E+05   -1.7790137E+00
   2.5954168E-04   2.0463883E+05   -1.7784453E+00
   2.6074027E-04   2.0296911E+05   -1.7778766E+00
   2.6194439E-04   2.0131354E+05   -1.7773076E+00
   2.6315408E-04   1.9967200E+05   -1.7767383E+00
   2.6436935E-04   1.9804436E+05   -1.7761688E+00
   2.6559024E-04   1.9643051E+05   -1.7755990E+00
   2.6681676E-04   1.9483031E+05   -1.7750289E+00
   2.6804895E-04   1.9324367E+05   -1.7744585E+00
   2.6928683E-04   1.9167044E+05   -1.7738879E+00
   2.7053042E-04   1.9011053E+05   -1.7733170E+00
   2.7177976E-04   1.8856380E+05   -1.7727459E+00
   2.7303487E-04   1.8703016E+05   -1.7721745E+00
   2.7429577E-04   1.8550947E+05   -1.7716029E+00
   2.7556250E-04   1.8400163E+05   -1.7710311E+00
   2.7683507E-04   1.8250653E+05   -1.7704591E+00
   2.7811353E-04   1.8102406E+05   -1.7698868E+00
   2.7939788E-04   1.7955410E+05   -1.7693143E+00
   2.8068817E-04   1.7809655E+05   -1.7687417E+00
   2.8198442E-04   1.7665129E+05   -1.7681688E+00
   2.8328665E-04   1.7521823E+05   -1.7675957E+00
   2.8459490E-04   1.7379725E+05   -1.7670225E+00
   2.8590919E-04   1.7238825E+05   -1.7664491E+00
   2.8722955E-04   1.7099113E+05   -1.7658754E+00
   2.8855600E-04   1.6960577E+05   -1.7653017E+00
   2.8988859E-04   1.6823209E+05   -1.7647277E+00
   2.9122732E-04   1.6686997E+05   -1.7641536E+00
   2.9257224E-04   1.6551932E+05   -1.7635794E+00
   2.9392337E-04   1.6418003E+05   -1.7630050E+00
   2.9528074E-04   1.6285202E+05   -1.7624305E+00
   2.9664438E-04   1.6153517E+05   -1.7618558E+00
   2.9801431E-04   1.6022940E+05   -1.7612810E+00
   2.9939057E-04   1.5893460E+05   -1.7607061E+00
   3.0077319E-04   1.5765068E+05   -1.7601311E+00
   3.0216219E-04   1.5637755E+05   -1.7595560E+00
   3.0355761E-04   1.5511511E+05   -1.7589808E+00
   3.0495947E-04   1.5386327E+05   -1.7584054E+00
   3.0636780E-04   1.5262194E+05   -1.7578300E+00
   3.0778264E-04   1.5139102E+05   -1.7572545E+00
   3.0920401E-04   1.5017043E+05   -1.7566790E+00
   3.1063195E-04   1.4896008E+05   -1.7561033E+00
   3.1206648E-04   1.4775987E+05   -1.7555276E+00
   3.1350764E-04   1.4656972E+05   -1.7549518E+00
   3.1495545E-04   1.4538955E+05   -1.7543760E+00
   3.1640994E-04   1.4421926E+05   -1.7538001E+00
   3.1787116E-04   1.4305877E+05   -1.7532242E+00
   3.1933912E-04   1.4190799E+05   -1.7526483E+00
   3.2081386E-04   1.4076684E+05   -1.7520723E+00
   3.2229541E-04   1.3963525E+05   -1.7514963E+00
   3.2378381E-04   1.3851311E+05   -1.7509203E+00
   3.2527908E-04   1.3740036E+05   -1.7503443E+00
   3.2678125E-04   1.3629691E+05   -1.7497682E+00
   3.2829036E-04   1.3520268E+05   -1.7491922E+00
   3.2980644E-04   1.3411759E+05   -1.7486162E+00
   3.3132952E-04   1.3304156E+05   -1.7480402E+00
   3.3285963E-04   1.3197452E+05   -1.7474642E+00
   3.3439681E-04   1.3091638E+05   -1.7468882E+00
   3.3594109E-04   1.2986707E+05   -1.7463123E+00
   3.3749250E-04   1.2882651E+05   -1.7457364E+00
   3.3905108E-04   1.2779463E+05   -1.7451606E+00
   3.4061685E-04   1.2677135E+05   -1.7445848E+00
   3.4218986E-04   1.2575659E+05   -1.7440091E+00
   3.4377013E-04   1.2475029E+05   -1.7434334E+00
   3.4535769E-04   1.2375237E+05   -1.7428578E+00
   3.4695259E-04   1.2276276E+05   -1.7422822E+00
   3.4855485E-04   1.2178139E+05   -1.7417068E+00
   3.5016452E-04   1.2080818E+05   -1.7411314E+00
   3.5178161E-04   1.1984307E+05   -1.7405562E+00
   3.5340618E-04   1.1888598E+05   -1.7399810E+00
   3.5503824E-04   1.1793684E+05   -1.7394059E+00
   3.5667785E-04   1.1699560E+05   -1.7388310E+00
   3.5832502E-04   1.1606217E+05   -1.7382562E+00
   3.5997981E-04   1.1513650E+05   -1.7376814E+00
   3.6164223E-04   1.1421851E+05   -1.7371069E+00
   3.6331233E-04   1.1330814E+05   -1.7365324E+00
   3.6499015E-04   1.1240533E+05   -1.7359581E+00
   3.6667571E-04   1.1151000E+05   -1.7353840E+00
   3.6836906E-04   1.1062210E+05   -1.7348100E+00
   3.7007022E-04   1.0974155E+05   -1.7342361E+00
   3.7177925E-04   1.0886831E+05   -1.7336624E+00
   3.7349616E-04   1.0800230E+05   -1.7330889E+00
   3.7522101E-04   1.0714346E+05   -1.7325156E+00
   3.7695382E-04   1.0629173E+05   -1.7319425E+00
   3.7869463E-04   1.0544704E+05   -1.7313695E+00
   3.8044348E-04   1.0460935E+05   -1.7307968E+00
   3.8220041E-04   1.0377859E+05   -1.7302242E+00
   3.8396545E-04   1.0295470E+05   -1.7296519E+00
   3.8573864E-04   1.0213761E+05   -1.7290797E+00
   3.8752002E-04   1.0132728E+05   -1.7285078E+00
   3.8930963E-04   1.0052364E+05   -1.7279361E+00
   3.9110750E-04   9.9726638E+04   -1.7273647E+00
   3.9291368E-04   9.8936215E+04   -1.7267935E+00
   3.9472820E-04   9.8152315E+04   -1.7262225E+00
   3.9655109E-04   9.7374882E+04   -1.7256518E+00
   3.9838241E-04   9.6603861E+04   -1.7250813E+00
   4.0022218E-04   9.5839197E+04   -1.7245111E+00
   4.0207045E-04   9.5080836E+04   -1.7239411E+00
   4.0392725E-04   9.4328723E+04   -1.7233715E+00
   4.0579263E-04   9.3582805E+04   -1.7228021E+00
   4.0766662E-04   9.2843029E+04   -1.7222330E+00
   4.0954927E-04   9.2109342E+04   -1.7216642E+00
   4.1144061E-04   9.1381693E+04   -1.7210956E+00
   4.1334068E-04   9.0660029E+04   -1.7205274E+00
   4.1524953E-04   8.9944300E+04   -1.7199595E+00
   4.1716720E-04   8.9234454E+04   -1.7193919E+00
   4.1909372E-04   8.8530443E+04   -1.7188246E+00
   4.2102914E-04   8.7832215E+04   -1.7182577E+00
   4.2297350E-04   8.7139721E+04   -1.7176911E+00
   4.2492683E-04   8.6452913E+04   -1.7171248E+00
   4.2688919E-04   8.5771742E+04   -1.7165588E+00
   4.2886061E-04   8.5096160E+04   -1.7159932E+00
   4.3084113E-04   8.4426119E+04   -1.7154280E+00
   4.3283080E-04   8.3761572E+04   -1.7148631E+00
   4.3482966E-04   8.3102472E+04   -1.7142986E+00
   4.3683775E-04   8.2448772E+04   -1.7137345E+00
   4.3885511E-04   8.1800428E+04   -1.7131707E+00
   4.4088179E-04   8.1157392E+04   -1.7126073E+00
   4.4291783E-04   8.0519620E+04   -1.7120443E+00
   4.4496327E-04   7.9887067E+04   -1.7114817E+00
   4.4701816E-04   7.9259689E+04   -1.7109195E+00
   4.4908253E-04   7.8637442E+04   -1.7103577E+00
   4.5115644E-04   7.8020281E+04   -1.7097963E+00
   4.5323993E-04   7.7408165E+04   -1.7092353E+00
   4.5533304E-04   7.6801049E+04   -1.7086747E+00
   4.5743582E-04   7.6198891E+04   -1.7081146E+00
   4.5954830E-04   7.5601650E+04   -1.7075549E+00
   4.6167054E-04   7.5009283E+04   -1.7069956E+00
   4.6380259E-04   7.4421750E+04   -1.7064368E+00
   4.6594448E-04   7.3839008E+04   -1.7058784E+00
   4.6809626E-04   7.3261018E+04   -1.7053205E+00
   4.7025797E-04   7.2687739E+04   -1.7047630E+00
   4.7242967E-04   7.2119131E+04   -1.7042060E+00
   4.7461140E-04   7.1555155E+04   -1.7036495E+00
   4.7680321E-04   7.0995771E+04   -1.7030934E+00
   4.7900514E-04   7.0440940E+04   -1.7025378E+00
   4.8121723E-04   6.9890624E+04   -1.7019827E+00
   4.8343954E-04   6.9344785E+04   -1.7014281E+00
   4.8567212E-04   6.8803385E+04   -1.7008740E+00
   4.8791500E-04   6.8266385E+04   -1.7003204E+00
   4.9016825E-04   6.7733750E+04   -1.6997673E+00
   4.9243189E-04   6.7205441E+04   -1.6992147E+00
   4.9470600E-04   6.6681423E+04   -1.6986626E+00
   4.9699060E-04   6.6161659E+04   -1.6981110E+00
   4.9928575E-04   6.5646113E+04   -1.6975600E+00
   5.0159151E-04   6.5134750E+04   -1.6970095E+00
   5.0390791E-04   6.4627534E+04   -1.6964595E+00
   5.0623501E-04   6.4124430E+04   -1.6959101E+00
   5.0857286E-04   6.3625403E+04   -1.6953612E+00
   5.1092150E-04   6.3130420E+04   -1.6948129E+00
   5.1328099E-04   6.2639446E+04   -1.6942651E+00
   5.1565137E-04   6.2152447E+04   -1.6937179E+00
   5.1803270E-04   6.1669389E+04   -1.6931713E+00
   5.2042503E-04   6.1190240E+04   -1.6926252E+00
   5.2282841E-04   6.0714966E+04   -1.6920797E+00
   5.2524289E-04   6.0243536E+04   -1.6915348E+00
   5.2766851E-04   5.9775915E+04   -1.6909904E+00
   5.3010534E-04   5.9312073E+04   -1.6904467E+00
   5.3255342E-04   5.8851978E+04   -1.6899036E+00
   5.3501281E-04   5.8395598E+04   -1.6893610E+00
   5.3748356E-04   5.7942901E+04   -1.6888191E+00
   5.3996571E-04   5.7493858E+04   -1.6882777E+00
   5.4245933E-04   5.7048437E+04   -1.6877370E+00
   5.4496446E-04   5.6606607E+04   -1.6871969E+00
   5.4748117E-04   5.6168340E+04   -1.6866575E+00
   5.5000949E-04   5.5733603E+04   -1.6861186E+00
   5.5254949E-04   5.5302369E+04   -1.6855804E+00
   5.5510123E-04   5.4874608E+04   -1.6850428E+00
   5.5766474E-04   5.4450290E+04   -1.6845059E+00
   5.6024010E-04   5.4029386E+04   -1.6839696E+00
   5.6282734E-04   5.3611869E+04   -1.6834340E+00
   5.6542654E-04   5.3197709E+04   -1.6828990E+00
   5.6803774E-04   5.2786878E+04   -1.6823647E+00
   5.7066099E-04   5.2379350E+04   -1.6818310E+00
   5.7329637E-04   5.1975095E+04   -1.6812980E+00
   5.7594391E-04   5.1574087E+04   -1.6807657E+00
   5.7860368E-04   5.1176298E+04   -1.6802341E+00
   5.8127573E-04   5.0781701E+04   -1.6797031E+00
   5.8396012E-04   5.0390271E+04   -1.6791728E+00
   5.8665691E-04   5.0001979E+04   -1.6786433E+00
   5.8936616E-04   4.9616801E+04   -1.6781144E+00
   5.9208791E-04   4.9234710E+04   -1.6775862E+00
   5.9482223E-04   4.8855679E+04   -1.6770587E+00
   5.9756919E-04   4.8479685E+04   -1.6765319E+00
   6.0032882E-04   4.8106701E+04   -1.6760059E+00
   6.0310120E-04   4.7736702E+04   -1.6754805E+00
   6.0588639E-04   4.7369663E+04   -1.6749559E+00
   6.0868443E-04   4.7005560E+04   -1.6744320E+00
   6.1149540E-04   4.6644369E+04   -1.6739088E+00
   6.1431935E-04   4.6286064E+04   -1.6733864E+00
   6.1715634E-04   4.5930622E+04   -1.6728647E+00
   6.2000644E-04   4.5578019E+04   -1.6723437E+00
   6.2286969E-04   4.5228231E+04   -1.6718235E+00
