#        a       HoverH0(a)       dlogHdloga_of_a(a)
   1.0000000E-04   1.1974255E+06   -1.8733947E+00
   1.0046181E-04   1.1871355E+06   -1.8729585E+00
   1.0092575E-04   1.1769362E+06   -1.8725214E+00
   1.0139184E-04   1.1668269E+06   -1.8720833E+00
   1.0186008E-04   1.1568068E+06   -1.8716442E+00
   1.0233048E-04   1.1468751E+06   -1.8712041E+00
   1.0280305E-04   1.1370309E+06   -1.8707630E+00
   1.0327781E-04   1.1272736E+06   -1.8703210E+00
   1.0375475E-04   1.1176022E+06   -1.8698779E+00
   1.0423390E-04   1.1080161E+06   -1.8694339E+00
   1.0471527E-04   1.0985145E+06   -1.8689889E+00
   1.0519885E-04   1.0890965E+06   -1.8685430E+00
   1.0568467E-04   1.0797616E+06   -1.8680960E+00
   1.0617274E-04   1.0705088E+06   -1.8676481E+00
   1.0666305E-04   1.0613376E+06   -1.8671992E+00
   1.0715563E-04   1.0522471E+06   -1.8667494E+00
   1.0765049E-04   1.0432366E+06   -1.8662985E+00
   1.0814763E-04   1.0343054E+06   -1.8658467E+00
   1.0864707E-04   1.0254528E+06   -1.8653940E+00
   1.0914881E-04   1.0166782E+06   -1.8649402E+00
   1.0965287E-04   1.0079807E+06   -1.8644856E+00
   1.1015926E-04   9.9935968E+05   -1.8640299E+00
   1.1066799E-04   9.9081450E+05   -1.8635733E+00
   1.1117906E-04   9.8234446E+05   -1.8631157E+00
   1.1169250E-04   9.7394888E+05   -1.8626572E+00
   1.1220831E-04   9.6562710E+05   -1.8621977E+00
   1.1272650E-04   9.5737844E+05   -1.8617373E+00
   1.1324708E-04   9.4920227E+05   -1.8612759E+00
   1.1377007E-04   9.4109793E+05   -1.8608136E+00
   1.1429547E-04   9.3306477E+05   -1.8603503E+00
   1.1482330E-04   9.2510216E+05   -1.8598861E+00
   1.1535356E-04   9.1720947E+05   -1.8594210E+00
   1.1588628E-04   9.0938606E+05   -1.8589549E+00
   1.1642145E-04   9.0163132E+05   -1.8584879E+00
   1.1695910E-04   8.9394464E+05   -1.8580199E+00
   1.1749923E-04   8.8632540E+05   -1.8575510E+00
   1.1804185E-04   8.7877299E+05   -1.8570812E+00
   1.1858698E-04   8.7128684E+05   -1.8566104E+00
   1.1913463E-04   8.6386633E+05   -1.8561387E+00
   1.1968481E-04   8.5651088E+05   -1.8556661E+00
   1.2023752E-04   8.4921991E+05   -1.8551926E+00
   1.2079279E-04   8.4199285E+05   -1.8547182E+00
   1.2135063E-04   8.3482911E+05   -1.8542428E+00
   1.2191104E-04   8.2772814E+05   -1.8537665E+00
   1.2247403E-04   8.2068938E+05   -1.8532894E+00
   1.2303963E-04   8.1371226E+05   -1.8528113E+00
   1.2360784E-04   8.0679623E+05   -1.8523323E+00
   1.2417868E-04   7.9994075E+05   -1.8518523E+00
   1.2475215E-04   7.9314528E+05   -1.8513715E+00
   1.2532826E-04   7.8640928E+05   -1.8508898E+00
   1.2590704E-04   7.7973222E+05   -1.8504072E+00
   1.2648850E-04   7.7311358E+05   -1.8499237E+00
   1.2707263E-04   7.6655282E+05   -1.8494393E+00
   1.2765947E-04   7.6004944E+05   -1.8489541E+00
   1.2824901E-04   7.5360292E+05   -1.8484679E+00
   1.2884128E-04   7.4721275E+05   -1.8479808E+00
   1.2943628E-04   7.4087843E+05   -1.8474929E+00
   1.3003403E-04   7.3459946E+05   -1.8470041E+00
   1.3063454E-04   7.2837535E+05   -1.8465144E+00
   1.3123783E-04   7.2220561E+05   -1.8460239E+00
   1.3184390E-04   7.1608974E+05   -1.8455324E+00
   1.3245277E-04   7.1002728E+05   -1.8450402E+00
   1.3306445E-04   7.0401773E+05   -1.8445470E+00
   1.3367895E-04   6.9806064E+05   -1.8440530E+00
   1.3429630E-04   6.9215554E+05   -1.8435581E+00
   1.3491649E-04   6.8630195E+05   -1.8430624E+00
   1.3553955E-04   6.8049942E+05   -1.8425658E+00
   1.3616548E-04   6.7474750E+05   -1.8420684E+00
   1.3679431E-04   6.6904573E+05   -1.8415701E+00
   1.3742604E-04   6.6339366E+05   -1.8410710E+00
   1.3806069E-04   6.5779086E+05   -1.8405711E+00
   1.3869827E-04   6.5223688E+05   -1.8400703E+00
   1.3933879E-04   6.4673129E+05   -1.8395687E+00
   1.3998227E-04   6.4127365E+05   -1.8390662E+00
   1.4062872E-04   6.3586355E+05   -1.8385630E+00
   1.4127816E-04   6.3050055E+05   -1.8380589E+00
   1.4193060E-04   6.2518423E+05   -1.8375540E+00
   1.4258605E-04   6.1991419E+05   -1.8370482E+00
   1.4324453E-04   6.1469000E+05   -1.8365417E+00
   1.4390605E-04   6.0951126E+05   -1.8360343E+00
   1.4457062E-04   6.0437757E+05   -1.8355262E+00
   1.4523826E-04   5.9928852E+05   -1.8350172E+00
   1.4590899E-04   5.9424371E+05   -1.8345075E+00
   1.4658281E-04   5.8924276E+05   -1.8339969E+00
   1.4725974E-04   5.8428527E+05   -1.8334856E+00
   1.4793981E-04   5.7937086E+05   -1.8329735E+00
   1.4862301E-04   5.7449914E+05   -1.8324606E+00
   1.4930936E-04   5.6966972E+05   -1.8319469E+00
   1.4999889E-04   5.6488225E+05   -1.8314324E+00
   1.5069160E-04   5.6013633E+05   -1.8309172E+00
   1.5138751E-04   5.5543161E+05   -1.8304011E+00
   1.5208663E-04   5.5076772E+05   -1.8298844E+00
   1.5278899E-04   5.4614429E+05   -1.8293668E+00
   1.5349458E-04   5.4156096E+05   -1.8288485E+00
   1.5420343E-04   5.3701738E+05   -1.8283295E+00
   1.5491556E-04   5.3251320E+05   -1.8278097E+00
   1.5563098E-04   5.2804806E+05   -1.8272892E+00
   1.5634970E-04   5.2362161E+05   -1.8267679E+00
   1.5707174E-04   5.1923352E+05   -1.8262458E+00
   1.5779711E-04   5.1488344E+05   -1.8257231E+00
   1.5852584E-04   5.1057104E+05   -1.8251996E+00
   1.5925792E-04   5.0629598E+05   -1.8246754E+00
   1.5999339E-04   5.0205792E+05   -1.8241504E+00
   1.6073226E-04   4.9785655E+05   -1.8236248E+00
   1.6147454E-04   4.9369153E+05   -1.8230984E+00
   1.6222024E-04   4.8956254E+05   -1.8225713E+00
   1.6296939E-04   4.8546927E+05   -1.8220435E+00
   1.6372200E-04   4.8141139E+05   -1.8215151E+00
   1.6447809E-04   4.7738860E+05   -1.8209859E+00
   1.6523767E-04   4.7340057E+05   -1.8204560E+00
   1.6600075E-04   4.6944701E+05   -1.8199254E+00
   1.6676736E-04   4.6552760E+05   -1.8193942E+00
   1.6753751E-04   4.6164205E+05   -1.8188623E+00
   1.6831122E-04   4.5779005E+05   -1.8183296E+00
   1.6908849E-04   4.5397130E+05   -1.8177964E+00
   1.6986936E-04   4.5018552E+05   -1.8172624E+00
   1.7065384E-04   4.4643241E+05   -1.8167278E+00
   1.7144193E-04   4.4271168E+05   -1.8161926E+00
   1.7223367E-04   4.3902304E+05   -1.8156566E+00
   1.7302906E-04   4.3536621E+05   -1.8151201E+00
   1.7382813E-04   4.3174091E+05   -1.8145829E+00
   1.7463089E-04   4.2814685E+05   -1.8140450E+00
   1.7543735E-04   4.2458377E+05   -1.8135065E+00
   1.7624754E-04   4.2105139E+05   -1.8129674E+00
   1.7706147E-04   4.1754943E+05   -1.8124276E+00
   1.7787916E-04   4.1407763E+05   -1.8118873E+00
   1.7870062E-04   4.1063572E+05   -1.8113463E+00
   1.7952588E-04   4.0722343E+05   -1.8108047E+00
   1.8035495E-04   4.0384051E+05   -1.8102625E+00
   1.8118785E-04   4.0048669E+05   -1.8097197E+00
   1.8202459E-04   3.9716171E+05   -1.8091763E+00
   1.8286520E-04   3.9386533E+05   -1.8086323E+00
   1.8370969E-04   3.9059729E+05   -1.8080877E+00
   1.8455808E-04   3.8735734E+05   -1.8075425E+00
   1.8541039E-04   3.8414523E+05   -1.8069968E+00
   1.8626663E-04   3.8096071E+05   -1.8064505E+00
   1.8712683E-04   3.7780355E+05   -1.8059036E+00
   1.8799100E-04   3.7467349E+05   -1.8053561E+00
   1.8885917E-04   3.7157030E+05   -1.8048081E+00
   1.8973134E-04   3.6849374E+05   -1.8042595E+00
   1.9060754E-04   3.6544359E+05   -1.8037104E+00
   1.9148778E-04   3.6241959E+05   -1.8031608E+00
   1.9237209E-04   3.5942153E+05   -1.8026105E+00
   1.9326049E-04   3.5644918E+05   -1.8020598E+00
   1.9415299E-04   3.5350230E+05   -1.8015086E+00
   1.9504960E-04   3.5058068E+05   -1.8009568E+00
   1.9595036E-04   3.4768409E+05   -1.8004045E+00
   1.9685528E-04   3.4481231E+05   -1.7998516E+00
   1.9776438E-04   3.4196512E+05   -1.7992983E+00
   1.9867768E-04   3.3914231E+05   -1.7987445E+00
   1.9959519E-04   3.3634365E+05   -1.7981901E+00
   2.0051694E-04   3.3356894E+05   -1.7976353E+00
   2.0144295E-04   3.3081797E+05   -1.7970800E+00
   2.0237324E-04   3.2809053E+05   -1.7965242E+00
   2.0330782E-04   3.2538641E+05   -1.7959680E+00
   2.0424671E-04   3.2270540E+05   -1.7954112E+00
   2.0518995E-04   3.2004730E+05   -1.7948540E+00
   2.0613754E-04   3.1741191E+05   -1.7942963E+00
   2.0708950E-04   3.1479903E+05   -1.7937382E+00
   2.0804586E-04   3.1220847E+05   -1.7931796E+00
   2.0900664E-04   3.0964002E+05   -1.7926206E+00
   2.0997185E-04   3.0709349E+05   -1.7920612E+00
   2.1094152E-04   3.0456869E+05   -1.7915013E+00
   2.1191567E-04   3.0206543E+05   -1.7909409E+00
   2.1289432E-04   2.9958351E+05   -1.7903802E+00
   2.1387749E-04   2.9712276E+05   -1.7898190E+00
   2.1486520E-04   2.9468298E+05   -1.7892574E+00
   2.1585747E-04   2.9226399E+05   -1.7886955E+00
   2.1685432E-04   2.8986561E+05   -1.7881331E+00
   2.1785578E-04   2.8748765E+05   -1.7875703E+00
   2.1886186E-04   2.8512995E+05   -1.7870071E+00
   2.1987259E-04   2.8279231E+05   -1.7864436E+00
   2.2088798E-04   2.8047457E+05   -1.7858796E+00
   2.2190807E-04   2.7817654E+05   -1.7853153E+00
   2.2293286E-04   2.7589806E+05   -1.7847507E+00
   2.2396239E-04   2.7363896E+05   -1.7841856E+00
   2.2499667E-04   2.7139906E+05   -1.7836202E+00
   2.2603573E-04   2.6917820E+05   -1.7830545E+00
   2.2707958E-04   2.6697620E+05   -1.7824884E+00
   2.2812826E-04   2.6479292E+05   -1.7819220E+00
   2.2918178E-04   2.6262817E+05   -1.7813552E+00
   2.3024017E-04   2.6048179E+05   -1.7807881E+00
   2.3130344E-04   2.5835364E+05   -1.7802207E+00
   2.3237162E-04   2.5624354E+05   -1.7796530E+00
   2.3344474E-04   2.5415134E+05   -1.7790849E+00
   2.3452281E-04   2.5207689E+05   -1.7785166E+00
   2.3560586E-04   2.5002002E+05   -1.7779479E+00
   2.3669392E-04   2.4798059E+05   -1.7773790E+00
   2.3778699E-04   2.4595843E+05   -1.7768098E+00
   2.3888512E-04   2.4395341E+05   -1.7762403E+00
   2.3998831E-04   2.4196536E+05   -1.7756705E+00
   2.4109661E-04   2.3999415E+05   -1.7751004E+00
   2.4221001E-04   2.3803962E+05   -1.7745301E+00
   2.4332857E-04   2.3610163E+05   -1.7739595E+00
   2.4445228E-04   2.3418003E+05   -1.7733887E+00
   2.4558119E-04   2.3227468E+05   -1.7728176E+00
   2.4671531E-04   2.3038545E+05   -1.7722463E+00
   2.4785467E-04   2.2851218E+05   -1.7716748E+00
   2.4899928E-04   2.2665474E+05   -1.7711030E+00
   2.5014919E-04   2.2481299E+05   -1.7705310E+00
   2.5130440E-04   2.2298679E+05   -1.7699588E+00
   2.5246495E-04   2.2117601E+05   -1.7693863E+00
   2.5363086E-04   2.1938051E+05   -1.7688137E+00
   2.5480216E-04   2.1760017E+05   -1.7682409E+00
   2.5597886E-04   2.1583484E+05   -1.7676679E+00
   2.5716100E-04   2.1408440E+05   -1.7670946E+00
   2.5834859E-04   2.1234871E+05   -1.7665212E+00
   2.5954168E-04   2.1062766E+05   -1.7659477E+00
   2.6074027E-04   2.0892110E+05   -1.7653739E+00
   2.6194439E-04   2.0722892E+05   -1.7648000E+00
   2.6315408E-04   2.0555099E+05   -1.7642260E+00
   2.6436935E-04   2.0388719E+05   -1.7636518E+00
   2.6559024E-04   2.0223738E+05   -1.7630774E+00
   2.6681676E-04   2.0060146E+05   -1.7625029E+00
   2.6804895E-04   1.9897930E+05   -1.7619283E+00
   2.6928683E-04   1.9737078E+05   -1.7613535E+00
   2.7053042E-04   1.9577578E+05   -1.7607787E+00
   2.7177976E-04   1.9419418E+05   -1.7602037E+00
   2.7303487E-04   1.9262588E+05   -1.7596286E+00
   2.7429577E-04   1.9107074E+05   -1.7590534E+00
   2.7556250E-04   1.8952866E+05   -1.7584781E+00
   2.7683507E-04   1.8799952E+05   -1.7579027E+00
   2.7811353E-04   1.8648322E+05   -1.7573272E+00
   2.7939788E-04   1.8497964E+05   -1.7567517E+00
   2.8068817E-04   1.8348867E+05   -1.7561761E+00
   2.8198442E-04   1.8201019E+05   -1.7556004E+00
   2.8328665E-04   1.8054411E+05   -1.7550246E+00
   2.8459490E-04   1.7909031E+05   -1.7544488E+00
   2.8590919E-04   1.7764870E+05   -1.7538730E+00
   2.8722955E-04   1.7621915E+05   -1.7532971E+00
   2.8855600E-04   1.7480157E+05   -1.7527212E+00
   2.8988859E-04   1.7339585E+05   -1.7521452E+00
   2.9122732E-04   1.7200190E+05   -1.7515692E+00
   2.9257224E-04   1.7061960E+05   -1.7509932E+00
   2.9392337E-04   1.6924886E+05   -1.7504172E+00
   2.9528074E-04   1.6788958E+05   -1.7498412E+00
   2.9664438E-04   1.6654166E+05   -1.7492652E+00
   2.9801431E-04   1.6520500E+05   -1.7486892E+00
   2.9939057E-04   1.6387950E+05   -1.7481132E+00
   3.0077319E-04   1.6256507E+05   -1.7475372E+00
   3.0216219E-04   1.6126161E+05   -1.7469613E+00
   3.0355761E-04   1.5996903E+05   -1.7463854E+00
   3.0495947E-04   1.5868722E+05   -1.7458095E+00
   3.0636780E-04   1.5741611E+05   -1.7452337E+00
   3.0778264E-04   1.5615559E+05   -1.7446579E+00
   3.0920401E-04   1.5490557E+05   -1.7440822E+00
   3.1063195E-04   1.5366597E+05   -1.7435065E+00
   3.1206648E-04   1.5243670E+05   -1.7429309E+00
   3.1350764E-04   1.5121766E+05   -1.7423554E+00
   3.1495545E-04   1.5000876E+05   -1.7417799E+00
   3.1640994E-04   1.4880992E+05   -1.7412046E+00
   3.1787116E-04   1.4762106E+05   -1.7406293E+00
   3.1933912E-04   1.4644208E+05   -1.7400542E+00
   3.2081386E-04   1.4527291E+05   -1.7394791E+00
   3.2229541E-04   1.4411345E+05   -1.7389042E+00
   3.2378381E-04   1.4296362E+05   -1.7383293E+00
   3.2527908E-04   1.4182334E+05   -1.7377546E+00
   3.2678125E-04   1.4069253E+05   -1.7371801E+00
   3.2829036E-04   1.3957110E+05   -1.7366056E+00
   3.2980644E-04   1.3845898E+05   -1.7360313E+00
   3.3132952E-04   1.3735609E+05   -1.7354572E+00
   3.3285963E-04   1.3626234E+05   -1.7348832E+00
   3.3439681E-04   1.3517765E+05   -1.7343093E+00
   3.3594109E-04   1.3410196E+05   -1.7337356E+00
   3.3749250E-04   1.3303518E+05   -1.7331621E+00
   3.3905108E-04   1.3197723E+05   -1.7325888E+00
   3.4061685E-04   1.3092804E+05   -1.7320157E+00
   3.4218986E-04   1.2988754E+05   -1.7314427E+00
   3.4377013E-04   1.2885564E+05   -1.7308700E+00
   3.4535769E-04   1.2783228E+05   -1.7302974E+00
   3.4695259E-04   1.2681738E+05   -1.7297250E+00
   3.4855485E-04   1.2581087E+05   -1.7291529E+00
   3.5016452E-04   1.2481268E+05   -1.7285810E+00
   3.5178161E-04   1.2382273E+05   -1.7280093E+00
   3.5340618E-04   1.2284096E+05   -1.7274378E+00
   3.5503824E-04   1.2186730E+05   -1.7268666E+00
   3.5667785E-04   1.2090167E+05   -1.7262956E+00
   3.5832502E-04   1.1994401E+05   -1.7257249E+00
   3.5997981E-04   1.1899424E+05   -1.7251544E+00
   3.6164223E-04   1.1805231E+05   -1.7245842E+00
   3.6331233E-04   1.1711814E+05   -1.7240142E+00
   3.6499015E-04   1.1619166E+05   -1.7234446E+00
   3.6667571E-04   1.1527282E+05   -1.7228752E+00
   3.6836906E-04   1.1436155E+05   -1.7223060E+00
   3.7007022E-04   1.1345777E+05   -1.7217372E+00
   3.7177925E-04   1.1256144E+05   -1.7211687E+00
   3.7349616E-04   1.1167247E+05   -1.7206004E+00
   3.7522101E-04   1.1079082E+05   -1.7200325E+00
   3.7695382E-04   1.0991642E+05   -1.7194649E+00
   3.7869463E-04   1.0904920E+05   -1.7188976E+00
   3.8044348E-04   1.0818911E+05   -1.7183306E+00
   3.8220041E-04   1.0733608E+05   -1.7177640E+00
   3.8396545E-04   1.0649005E+05   -1.7171977E+00
   3.8573864E-04   1.0565097E+05   -1.7166317E+00
   3.8752002E-04   1.0481878E+05   -1.7160661E+00
   3.8930963E-04   1.0399340E+05   -1.7155009E+00
   3.9110750E-04   1.0317480E+05   -1.7149360E+00
   3.9291368E-04   1.0236291E+05   -1.7143714E+00
   3.9472820E-04   1.0155767E+05   -1.7138072E+00
   3.9655109E-04   1.0075903E+05   -1.7132435E+00
   3.9838241E-04   9.9966923E+04   -1.7126800E+00
   4.0022218E-04   9.9181304E+04   -1.7121170E+00
   4.0207045E-04   9.8402115E+04   -1.7115544E+00
   4.0392725E-04   9.7629299E+04   -1.7109921E+00
   4.0579263E-04   9.6862805E+04   -1.7104303E+00
   4.0766662E-04   9.6102576E+04   -1.7098689E+00
   4.0954927E-04   9.5348561E+04   -1.7093079E+00
   4.1144061E-04   9.4600706E+04   -1.7087473E+00
   4.1334068E-04   9.3858959E+04   -1.7081871E+00
   4.1524953E-04   9.3123269E+04   -1.7076274E+00
   4.1716720E-04   9.2393583E+04   -1.7070681E+00
   4.1909372E-04   9.1669850E+04   -1.7065092E+00
   4.2102914E-04   9.0952021E+04   -1.7059508E+00
   4.2297350E-04   9.0240045E+04   -1.7053929E+00
   4.2492683E-04   8.9533873E+04   -1.7048354E+00
   4.2688919E-04   8.8833455E+04   -1.7042783E+00
   4.2886061E-04   8.8138742E+04   -1.7037218E+00
   4.3084113E-04   8.7449686E+04   -1.7031657E+00
   4.3283080E-04   8.6766240E+04   -1.7026100E+00
   4.3482966E-04   8.6088355E+04   -1.7020549E+00
   4.3683775E-04   8.5415985E+04   -1.7015003E+00
   4.3885511E-04   8.4749082E+04   -1.7009461E+00
   4.4088179E-04   8.4087601E+04   -1.7003925E+00
   4.4291783E-04   8.3431496E+04   -1.6998393E+00
   4.4496327E-04   8.2780721E+04   -1.6992867E+00
   4.4701816E-04   8.2135231E+04   -1.6987346E+00
   4.4908253E-04   8.1494981E+04   -1.6981830E+00
   4.5115644E-04   8.0859928E+04   -1.6976319E+00
   4.5323993E-04   8.0230027E+04   -1.6970814E+00
   4.5533304E-04   7.9605235E+04   -1.6965314E+00
   4.5743582E-04   7.8985509E+04   -1.6959819E+00
   4.5954830E-04   7.8370805E+04   -1.6954330E+00
   4.6167054E-04   7.7761082E+04   -1.6948846E+00
   4.6380259E-04   7.7156298E+04   -1.6943368E+00
   4.6594448E-04   7.6556410E+04   -1.6937896E+00
   4.6809626E-04   7.5961378E+04   -1.6932429E+00
   4.7025797E-04   7.5371160E+04   -1.6926968E+00
   4.7242967E-04   7.4785716E+04   -1.6921512E+00
   4.7461140E-04   7.4205006E+04   -1.6916063E+00
   4.7680321E-04   7.3628991E+04   -1.6910619E+00
   4.7900514E-04   7.3057629E+04   -1.6905181E+00
   4.8121723E-04   7.2490883E+04   -1.6899749E+00
   4.8343954E-04   7.1928714E+04   -1.6894323E+00
   4.8567212E-04   7.1371082E+04   -1.6888903E+00
   4.8791500E-04   7.0817950E+04   -1.6883490E+00
   4.9016825E-04   7.0269281E+04   -1.6878082E+00
   4.9243189E-04   6.9725035E+04   -1.6872681E+00
   4.9470600E-04   6.9185177E+04   -1.6867285E+00
   4.9699060E-04   6.8649670E+04   -1.6861896E+00
   4.9928575E-04   6.8118476E+04   -1.6856514E+00
   5.0159151E-04   6.7591561E+04   -1.6851138E+00
   5.0390791E-04   6.7068887E+04   -1.6845768E+00
   5.0623501E-04   6.6550419E+04   -1.6840404E+00
   5.0857286E-04   6.6036123E+04   -1.6835048E+00
   5.1092150E-04   6.5525962E+04   -1.6829697E+00
   5.1328099E-04   6.5019903E+04   -1.6824354E+00
   5.1565137E-04   6.4517911E+04   -1.6819017E+00
   5.1803270E-04   6.4019952E+04   -1.6813686E+00
   5.2042503E-04   6.3525993E+04   -1.6808362E+00
   5.2282841E-04   6.3035999E+04   -1.6803046E+00
   5.2524289E-04   6.2549938E+04   -1.6797735E+00
   5.2766851E-04   6.2067776E+04   -1.6792432E+00
   5.3010534E-04   6.1589481E+04   -1.6787136E+00
   5.3255342E-04   6.1115021E+04   -1.6781847E+00
   5.3501281E-04   6.0644364E+04   -1.6776564E+00
   5.3748356E-04   6.0177478E+04   -1.6771289E+00
   5.3996571E-04   5.9714332E+04   -1.6766021E+00
   5.4245933E-04   5.9254893E+04   -1.6760759E+00
   5.4496446E-04   5.8799132E+04   -1.6755505E+00
   5.4748117E-04   5.8347018E+04   -1.6750259E+00
   5.5000949E-04   5.7898520E+04   -1.6745019E+00
   5.5254949E-04   5.7453608E+04   -1.6739787E+00
   5.5510123E-04   5.7012252E+04   -1.6734562E+00
   5.5766474E-04   5.6574423E+04   -1.6729344E+00
   5.6024010E-04   5.6140091E+04   -1.6724134E+00
   5.6282734E-04   5.5709227E+04   -1.6718931E+00
   5.6542654E-04   5.5281803E+04   -1.6713735E+00
   5.6803774E-04   5.4857788E+04   -1.6708548E+00
   5.7066099E-04   5.4437157E+04   -1.6703367E+00
   5.7329637E-04   5.4019879E+04   -1.6698195E+00
   5.7594391E-04   5.3605927E+04   -1.6693029E+00
   5.7860368E-04   5.3195274E+04   -1.6687872E+00
   5.8127573E-04   5.2787893E+04   -1.6682722E+00
   5.8396012E-04   5.2383755E+04   -1.6677580E+00
   5.8665691E-04   5.1982834E+04   -1.6672446E+00
   5.8936616E-04   5.1585104E+04   -1.6667320E+00
   5.9208791E-04   5.1190538E+04   -1.6662201E+00
   5.9482223E-04   5.0799109E+04   -1.6657091E+00
   5.9756919E-04   5.0410792E+04   -1.6651988E+00
   6.0032882E-04   5.0025561E+04   -1.6646893E+00
   6.0310120E-04   4.9643390E+04   -1.6641806E+00
   6.0588639E-04   4.9264254E+04   -1.6636727E+00
   6.0868443E-04   4.8888128E+04   -1.6631657E+00
   6.1149540E-04   4.8514987E+04   -1.6626594E+00
   6.1431935E-04   4.8144807E+04   -1.6621540E+00
   6.1715634E-04   4.7777562E+04   -1.6616493E+00
   6.2000644E-04   4.7413228E+04   -1.6611455E+00
   6.2286969E-04   4.7051782E+04   -1.6606425E+00
