#        a       HoverH0(a)       dlogHdloga_of_a(a)
   1.0000000E-04   1.1817445E+06   -1.8811738E+00
   1.0046181E-04   1.1715472E+06   -1.8807560E+00
   1.0092575E-04   1.1614401E+06   -1.8803371E+00
   1.0139184E-04   1.1514224E+06   -1.8799171E+00
   1.0186008E-04   1.1414933E+06   -1.8794962E+00
   1.0233048E-04   1.1316521E+06   -1.8790743E+00
   1.0280305E-04   1.1218979E+06   -1.8786514E+00
   1.0327781E-04   1.1122299E+06   -1.8782274E+00
   1.0375475E-04   1.1026474E+06   -1.8778025E+00
   1.0423390E-04   1.0931496E+06   -1.8773766E+00
   1.0471527E-04   1.0837358E+06   -1.8769496E+00
   1.0519885E-04   1.0744051E+06   -1.8765217E+00
   1.0568467E-04   1.0651568E+06   -1.8760927E+00
   1.0617274E-04   1.0559903E+06   -1.8756628E+00
   1.0666305E-04   1.0469047E+06   -1.8752319E+00
   1.0715563E-04   1.0378994E+06   -1.8748000E+00
   1.0765049E-04   1.0289735E+06   -1.8743670E+00
   1.0814763E-04   1.0201265E+06   -1.8739331E+00
   1.0864707E-04   1.0113576E+06   -1.8734982E+00
   1.0914881E-04   1.0026660E+06   -1.8730623E+00
   1.0965287E-04   9.9405114E+05   -1.8726254E+00
   1.1015926E-04   9.8551228E+05   -1.8721875E+00
   1.1066799E-04   9.7704875E+05   -1.8717487E+00
   1.1117906E-04   9.6865986E+05   -1.8713088E+00
   1.1169250E-04   9.6034494E+05   -1.8708680E+00
   1.1220831E-04   9.5210333E+05   -1.8704262E+00
   1.1272650E-04   9.4393438E+05   -1.8699833E+00
   1.1324708E-04   9.3583743E+05   -1.8695396E+00
   1.1377007E-04   9.2781183E+05   -1.8690948E+00
   1.1429547E-04   9.1985695E+05   -1.8686491E+00
   1.1482330E-04   9.1197214E+05   -1.8682023E+00
   1.1535356E-04   9.0415679E+05   -1.8677547E+00
   1.1588628E-04   8.9641026E+05   -1.8673060E+00
   1.1642145E-04   8.8873194E+05   -1.8668564E+00
   1.1695910E-04   8.8112122E+05   -1.8664058E+00
   1.1749923E-04   8.7357748E+05   -1.8659542E+00
   1.1804185E-04   8.6610014E+05   -1.8655017E+00
   1.1858698E-04   8.5868859E+05   -1.8650482E+00
   1.1913463E-04   8.5134224E+05   -1.8645937E+00
   1.1968481E-04   8.4406052E+05   -1.8641383E+00
   1.2023752E-04   8.3684283E+05   -1.8636819E+00
   1.2079279E-04   8.2968861E+05   -1.8632245E+00
   1.2135063E-04   8.2259729E+05   -1.8627662E+00
   1.2191104E-04   8.1556830E+05   -1.8623070E+00
   1.2247403E-04   8.0860109E+05   -1.8618468E+00
   1.2303963E-04   8.0169510E+05   -1.8613856E+00
   1.2360784E-04   7.9484978E+05   -1.8609235E+00
   1.2417868E-04   7.8806458E+05   -1.8604605E+00
   1.2475215E-04   7.8133898E+05   -1.8599965E+00
   1.2532826E-04   7.7467244E+05   -1.8595316E+00
   1.2590704E-04   7.6806442E+05   -1.8590657E+00
   1.2648850E-04   7.6151440E+05   -1.8585989E+00
   1.2707263E-04   7.5502187E+05   -1.8581311E+00
   1.2765947E-04   7.4858630E+05   -1.8576625E+00
   1.2824901E-04   7.4220720E+05   -1.8571929E+00
   1.2884128E-04   7.3588405E+05   -1.8567223E+00
   1.2943628E-04   7.2961636E+05   -1.8562509E+00
   1.3003403E-04   7.2340362E+05   -1.8557785E+00
   1.3063454E-04   7.1724534E+05   -1.8553052E+00
   1.3123783E-04   7.1114104E+05   -1.8548309E+00
   1.3184390E-04   7.0509024E+05   -1.8543558E+00
   1.3245277E-04   6.9909245E+05   -1.8538797E+00
   1.3306445E-04   6.9314720E+05   -1.8534028E+00
   1.3367895E-04   6.8725402E+05   -1.8529249E+00
   1.3429630E-04   6.8141245E+05   -1.8524461E+00
   1.3491649E-04   6.7562203E+05   -1.8519664E+00
   1.3553955E-04   6.6988229E+05   -1.8514858E+00
   1.3616548E-04   6.6419278E+05   -1.8510043E+00
   1.3679431E-04   6.5855306E+05   -1.8505219E+00
   1.3742604E-04   6.5296269E+05   -1.8500386E+00
   1.3806069E-04   6.4742121E+05   -1.8495544E+00
   1.3869827E-04   6.4192819E+05   -1.8490693E+00
   1.3933879E-04   6.3648320E+05   -1.8485834E+00
   1.3998227E-04   6.3108581E+05   -1.8480965E+00
   1.4062872E-04   6.2573559E+05   -1.8476088E+00
   1.4127816E-04   6.2043213E+05   -1.8471202E+00
   1.4193060E-04   6.1517501E+05   -1.8466307E+00
   1.4258605E-04   6.0996380E+05   -1.8461404E+00
   1.4324453E-04   6.0479811E+05   -1.8456492E+00
   1.4390605E-04   5.9967753E+05   -1.8451571E+00
   1.4457062E-04   5.9460165E+05   -1.8446641E+00
   1.4523826E-04   5.8957007E+05   -1.8441703E+00
   1.4590899E-04   5.8458240E+05   -1.8436756E+00
   1.4658281E-04   5.7963825E+05   -1.8431801E+00
   1.4725974E-04   5.7473723E+05   -1.8426837E+00
   1.4793981E-04   5.6987895E+05   -1.8421865E+00
   1.4862301E-04   5.6506304E+05   -1.8416884E+00
   1.4930936E-04   5.6028911E+05   -1.8411895E+00
   1.4999889E-04   5.5555679E+05   -1.8406898E+00
   1.5069160E-04   5.5086571E+05   -1.8401892E+00
   1.5138751E-04   5.4621550E+05   -1.8396878E+00
   1.5208663E-04   5.4160580E+05   -1.8391855E+00
   1.5278899E-04   5.3703624E+05   -1.8386824E+00
   1.5349458E-04   5.3250648E+05   -1.8381785E+00
   1.5420343E-04   5.2801615E+05   -1.8376738E+00
   1.5491556E-04   5.2356490E+05   -1.8371683E+00
   1.5563098E-04   5.1915239E+05   -1.8366619E+00
   1.5634970E-04   5.1477827E+05   -1.8361548E+00
   1.5707174E-04   5.1044219E+05   -1.8356468E+00
   1.5779711E-04   5.0614383E+05   -1.8351380E+00
   1.5852584E-04   5.0188283E+05   -1.8346284E+00
   1.5925792E-04   4.9765888E+05   -1.8341181E+00
   1.5999339E-04   4.9347164E+05   -1.8336069E+00
   1.6073226E-04   4.8932078E+05   -1.8330950E+00
   1.6147454E-04   4.8520599E+05   -1.8325823E+00
   1.6222024E-04   4.8112693E+05   -1.8320687E+00
   1.6296939E-04   4.7708330E+05   -1.8315545E+00
   1.6372200E-04   4.7307477E+05   -1.8310394E+00
   1.6447809E-04   4.6910103E+05   -1.8305236E+00
   1.6523767E-04   4.6516179E+05   -1.8300070E+00
   1.6600075E-04   4.6125672E+05   -1.8294896E+00
   1.6676736E-04   4.5738552E+05   -1.8289715E+00
   1.6753751E-04   4.5354790E+05   -1.8284526E+00
   1.6831122E-04   4.4974355E+05   -1.8279330E+00
   1.6908849E-04   4.4597218E+05   -1.8274126E+00
   1.6986936E-04   4.4223350E+05   -1.8268915E+00
   1.7065384E-04   4.3852721E+05   -1.8263696E+00
   1.7144193E-04   4.3485303E+05   -1.8258470E+00
   1.7223367E-04   4.3121068E+05   -1.8253237E+00
   1.7302906E-04   4.2759986E+05   -1.8247997E+00
   1.7382813E-04   4.2402031E+05   -1.8242749E+00
   1.7463089E-04   4.2047174E+05   -1.8237494E+00
   1.7543735E-04   4.1695387E+05   -1.8232232E+00
   1.7624754E-04   4.1346644E+05   -1.8226963E+00
   1.7706147E-04   4.1000918E+05   -1.8221687E+00
   1.7787916E-04   4.0658181E+05   -1.8216403E+00
   1.7870062E-04   4.0318408E+05   -1.8211113E+00
   1.7952588E-04   3.9981571E+05   -1.8205816E+00
   1.8035495E-04   3.9647646E+05   -1.8200512E+00
   1.8118785E-04   3.9316605E+05   -1.8195201E+00
   1.8202459E-04   3.8988424E+05   -1.8189883E+00
   1.8286520E-04   3.8663077E+05   -1.8184559E+00
   1.8370969E-04   3.8340540E+05   -1.8179227E+00
   1.8455808E-04   3.8020786E+05   -1.8173889E+00
   1.8541039E-04   3.7703792E+05   -1.8168545E+00
   1.8626663E-04   3.7389533E+05   -1.8163194E+00
   1.8712683E-04   3.7077985E+05   -1.8157836E+00
   1.8799100E-04   3.6769123E+05   -1.8152472E+00
   1.8885917E-04   3.6462925E+05   -1.8147101E+00
   1.8973134E-04   3.6159365E+05   -1.8141724E+00
   1.9060754E-04   3.5858422E+05   -1.8136340E+00
   1.9148778E-04   3.5560072E+05   -1.8130951E+00
   1.9237209E-04   3.5264292E+05   -1.8125555E+00
   1.9326049E-04   3.4971059E+05   -1.8120152E+00
   1.9415299E-04   3.4680351E+05   -1.8114744E+00
   1.9504960E-04   3.4392145E+05   -1.8109329E+00
   1.9595036E-04   3.4106420E+05   -1.8103909E+00
   1.9685528E-04   3.3823152E+05   -1.8098482E+00
   1.9776438E-04   3.3542321E+05   -1.8093049E+00
   1.9867768E-04   3.3263906E+05   -1.8087611E+00
   1.9959519E-04   3.2987884E+05   -1.8082166E+00
   2.0051694E-04   3.2714234E+05   -1.8076716E+00
   2.0144295E-04   3.2442936E+05   -1.8071260E+00
   2.0237324E-04   3.2173969E+05   -1.8065798E+00
   2.0330782E-04   3.1907312E+05   -1.8060330E+00
   2.0424671E-04   3.1642945E+05   -1.8054857E+00
   2.0518995E-04   3.1380847E+05   -1.8049378E+00
   2.0613754E-04   3.1120999E+05   -1.8043893E+00
   2.0708950E-04   3.0863381E+05   -1.8038403E+00
   2.0804586E-04   3.0607972E+05   -1.8032908E+00
   2.0900664E-04   3.0354754E+05   -1.8027407E+00
   2.0997185E-04   3.0103708E+05   -1.8021901E+00
   2.1094152E-04   2.9854813E+05   -1.8016390E+00
   2.1191567E-04   2.9608052E+05   -1.8010873E+00
   2.1289432E-04   2.9363404E+05   -1.8005351E+00
   2.1387749E-04   2.9120853E+05   -1.7999824E+00
   2.1486520E-04   2.8880378E+05   -1.7994292E+00
   2.1585747E-04   2.8641962E+05   -1.7988754E+00
   2.1685432E-04   2.8405587E+05   -1.7983212E+00
   2.1785578E-04   2.8171235E+05   -1.7977665E+00
   2.1886186E-04   2.7938887E+05   -1.7972113E+00
   2.1987259E-04   2.7708527E+05   -1.7966556E+00
   2.2088798E-04   2.7480137E+05   -1.7960995E+00
   2.2190807E-04   2.7253699E+05   -1.7955428E+00
   2.2293286E-04   2.7029196E+05   -1.7949857E+00
   2.2396239E-04   2.6806612E+05   -1.7944281E+00
   2.2499667E-04   2.6585928E+05   -1.7938701E+00
   2.2603573E-04   2.6367129E+05   -1.7933116E+00
   2.2707958E-04   2.6150199E+05   -1.7927527E+00
   2.2812826E-04   2.5935119E+05   -1.7921933E+00
   2.2918178E-04   2.5721876E+05   -1.7916335E+00
   2.3024017E-04   2.5510451E+05   -1.7910733E+00
   2.3130344E-04   2.5300829E+05   -1.7905127E+00
   2.3237162E-04   2.5092995E+05   -1.7899516E+00
   2.3344474E-04   2.4886932E+05   -1.7893901E+00
   2.3452281E-04   2.4682626E+05   -1.7888282E+00
   2.3560586E-04   2.4480060E+05   -1.7882659E+00
   2.3669392E-04   2.4279219E+05   -1.7877032E+00
   2.3778699E-04   2.4080089E+05   -1.7871401E+00
   2.3888512E-04   2.3882654E+05   -1.7865766E+00
   2.3998831E-04   2.3686899E+05   -1.7860128E+00
   2.4109661E-04   2.3492810E+05   -1.7854486E+00
   2.4221001E-04   2.3300371E+05   -1.7848840E+00
   2.4332857E-04   2.3109569E+05   -1.7843190E+00
   2.4445228E-04   2.2920389E+05   -1.7837537E+00
   2.4558119E-04   2.2732818E+05   -1.7831880E+00
   2.4671531E-04   2.2546839E+05   -1.7826220E+00
   2.4785467E-04   2.2362441E+05   -1.7820556E+00
   2.4899928E-04   2.2179609E+05   -1.7814889E+00
   2.5014919E-04   2.1998329E+05   -1.7809219E+00
   2.5130440E-04   2.1818588E+05   -1.7803546E+00
   2.5246495E-04   2.1640372E+05   -1.7797869E+00
   2.5363086E-04   2.1463667E+05   -1.7792189E+00
   2.5480216E-04   2.1288462E+05   -1.7786506E+00
   2.5597886E-04   2.1114741E+05   -1.7780821E+00
   2.5716100E-04   2.0942494E+05   -1.7775132E+00
   2.5834859E-04   2.0771705E+05   -1.7769440E+00
   2.5954168E-04   2.0602364E+05   -1.7763746E+00
   2.6074027E-04   2.0434457E+05   -1.7758048E+00
   2.6194439E-04   2.0267972E+05   -1.7752348E+00
   2.6315408E-04   2.0102895E+05   -1.7746646E+00
   2.6436935E-04   1.9939216E+05   -1.7740940E+00
   2.6559024E-04   1.9776921E+05   -1.7735233E+00
   2.6681676E-04   1.9615999E+05   -1.7729522E+00
   2.6804895E-04   1.9456438E+05   -1.7723810E+00
   2.6928683E-04   1.9298225E+05   -1.7718095E+00
   2.7053042E-04   1.9141349E+05   -1.7712377E+00
   2.7177976E-04   1.8985799E+05   -1.7706658E+00
   2.7303487E-04   1.8831562E+05   -1.7700936E+00
   2.7429577E-04   1.8678627E+05   -1.7695212E+00
   2.7556250E-04   1.8526984E+05   -1.7689486E+00
   2.7683507E-04   1.8376619E+05   -1.7683758E+00
   2.7811353E-04   1.8227524E+05   -1.7678028E+00
   2.7939788E-04   1.8079686E+05   -1.7672296E+00
   2.8068817E-04   1.7933094E+05   -1.7666563E+00
   2.8198442E-04   1.7787738E+05   -1.7660827E+00
   2.8328665E-04   1.7643606E+05   -1.7655090E+00
   2.8459490E-04   1.7500689E+05   -1.7649351E+00
   2.8590919E-04   1.7358975E+05   -1.7643611E+00
   2.8722955E-04   1.7218455E+05   -1.7637869E+00
   2.8855600E-04   1.7079117E+05   -1.7632126E+00
   2.8988859E-04   1.6940951E+05   -1.7626381E+00
   2.9122732E-04   1.6803948E+05   -1.7620635E+00
   2.9257224E-04   1.6668097E+05   -1.7614888E+00
   2.9392337E-04   1.6533388E+05   -1.7609139E+00
   2.9528074E-04   1.6399811E+05   -1.7603389E+00
   2.9664438E-04   1.6267356E+05   -1.7597638E+00
   2.9801431E-04   1.6136014E+05   -1.7591887E+00
   2.9939057E-04   1.6005775E+05   -1.7586134E+00
   3.0077319E-04   1.5876629E+05   -1.7580380E+00
   3.0216219E-04   1.5748566E+05   -1.7574625E+00
   3.0355761E-04   1.5621579E+05   -1.7568870E+00
   3.0495947E-04   1.5495656E+05   -1.7563114E+00
   3.0636780E-04   1.5370789E+05   -1.7557357E+00
   3.0778264E-04   1.5246969E+05   -1.7551599E+00
   3.0920401E-04   1.5124186E+05   -1.7545841E+00
   3.1063195E-04   1.5002432E+05   -1.7540083E+00
   3.1206648E-04   1.4881697E+05   -1.7534324E+00
   3.1350764E-04   1.4761973E+05   -1.7528564E+00
   3.1495545E-04   1.4643252E+05   -1.7522805E+00
   3.1640994E-04   1.4525523E+05   -1.7517045E+00
   3.1787116E-04   1.4408780E+05   -1.7511285E+00
   3.1933912E-04   1.4293013E+05   -1.7505525E+00
   3.2081386E-04   1.4178213E+05   -1.7499764E+00
   3.2229541E-04   1.4064373E+05   -1.7494004E+00
   3.2378381E-04   1.3951484E+05   -1.7488244E+00
   3.2527908E-04   1.3839537E+05   -1.7482484E+00
   3.2678125E-04   1.3728526E+05   -1.7476724E+00
   3.2829036E-04   1.3618441E+05   -1.7470964E+00
   3.2980644E-04   1.3509274E+05   -1.7465205E+00
   3.3132952E-04   1.3401019E+05   -1.7459446E+00
   3.3285963E-04   1.3293665E+05   -1.7453687E+00
   3.3439681E-04   1.3187207E+05   -1.7447929E+00
   3.3594109E-04   1.3081637E+05   -1.7442172E+00
   3.3749250E-04   1.2976946E+05   -1.7436415E+00
   3.3905108E-04   1.2873126E+05   -1.7430659E+00
   3.4061685E-04   1.2770172E+05   -1.7424903E+00
   3.4218986E-04   1.2668074E+05   -1.7419148E+00
   3.4377013E-04   1.2566826E+05   -1.7413394E+00
   3.4535769E-04   1.2466420E+05   -1.7407641E+00
   3.4695259E-04   1.2366849E+05   -1.7401889E+00
   3.4855485E-04   1.2268106E+05   -1.7396138E+00
   3.5016452E-04   1.2170183E+05   -1.7390389E+00
   3.5178161E-04   1.2073074E+05   -1.7384640E+00
   3.5340618E-04   1.1976772E+05   -1.7378892E+00
   3.5503824E-04   1.1881269E+05   -1.7373146E+00
   3.5667785E-04   1.1786559E+05   -1.7367401E+00
   3.5832502E-04   1.1692635E+05   -1.7361658E+00
   3.5997981E-04   1.1599490E+05   -1.7355916E+00
   3.6164223E-04   1.1507118E+05   -1.7350175E+00
   3.6331233E-04   1.1415511E+05   -1.7344436E+00
   3.6499015E-04   1.1324664E+05   -1.7338699E+00
   3.6667571E-04   1.1234569E+05   -1.7332963E+00
   3.6836906E-04   1.1145220E+05   -1.7327229E+00
   3.7007022E-04   1.1056612E+05   -1.7321497E+00
   3.7177925E-04   1.0968736E+05   -1.7315767E+00
   3.7349616E-04   1.0881588E+05   -1.7310039E+00
   3.7522101E-04   1.0795161E+05   -1.7304313E+00
   3.7695382E-04   1.0709448E+05   -1.7298588E+00
   3.7869463E-04   1.0624444E+05   -1.7292866E+00
   3.8044348E-04   1.0540143E+05   -1.7287146E+00
   3.8220041E-04   1.0456538E+05   -1.7281429E+00
   3.8396545E-04   1.0373623E+05   -1.7275713E+00
   3.8573864E-04   1.0291393E+05   -1.7270000E+00
   3.8752002E-04   1.0209842E+05   -1.7264290E+00
   3.8930963E-04   1.0128963E+05   -1.7258582E+00
   3.9110750E-04   1.0048752E+05   -1.7252876E+00
   3.9291368E-04   9.9692017E+04   -1.7247173E+00
   3.9472820E-04   9.8903075E+04   -1.7241473E+00
   3.9655109E-04   9.8120634E+04   -1.7235775E+00
   3.9838241E-04   9.7344638E+04   -1.7230080E+00
   4.0022218E-04   9.6575033E+04   -1.7224388E+00
   4.0207045E-04   9.5811763E+04   -1.7218699E+00
   4.0392725E-04   9.5054775E+04   -1.7213013E+00
   4.0579263E-04   9.4304015E+04   -1.7207330E+00
   4.0766662E-04   9.3559430E+04   -1.7201649E+00
   4.0954927E-04   9.2820966E+04   -1.7195972E+00
   4.1144061E-04   9.2088571E+04   -1.7190299E+00
   4.1334068E-04   9.1362195E+04   -1.7184628E+00
   4.1524953E-04   9.0641784E+04   -1.7178960E+00
   4.1716720E-04   8.9927289E+04   -1.7173296E+00
   4.1909372E-04   8.9218659E+04   -1.7167636E+00
   4.2102914E-04   8.8515843E+04   -1.7161979E+00
   4.2297350E-04   8.7818793E+04   -1.7156325E+00
   4.2492683E-04   8.7127459E+04   -1.7150675E+00
   4.2688919E-04   8.6441792E+04   -1.7145028E+00
   4.2886061E-04   8.5761744E+04   -1.7139386E+00
   4.3084113E-04   8.5087268E+04   -1.7133747E+00
   4.3283080E-04   8.4418315E+04   -1.7128111E+00
   4.3482966E-04   8.3754839E+04   -1.7122480E+00
   4.3683775E-04   8.3096793E+04   -1.7116853E+00
   4.3885511E-04   8.2444130E+04   -1.7111229E+00
   4.4088179E-04   8.1796806E+04   -1.7105610E+00
   4.4291783E-04   8.1154774E+04   -1.7099994E+00
   4.4496327E-04   8.0517990E+04   -1.7094383E+00
   4.4701816E-04   7.9886409E+04   -1.7088776E+00
   4.4908253E-04   7.9259987E+04   -1.7083173E+00
   4.5115644E-04   7.8638679E+04   -1.7077574E+00
   4.5323993E-04   7.8022443E+04   -1.7071980E+00
   4.5533304E-04   7.7411236E+04   -1.7066390E+00
   4.5743582E-04   7.6805015E+04   -1.7060805E+00
   4.5954830E-04   7.6203737E+04   -1.7055224E+00
   4.6167054E-04   7.5607360E+04   -1.7049648E+00
   4.6380259E-04   7.5015844E+04   -1.7044076E+00
   4.6594448E-04   7.4429146E+04   -1.7038509E+00
   4.6809626E-04   7.3847226E+04   -1.7032947E+00
   4.7025797E-04   7.3270043E+04   -1.7027389E+00
   4.7242967E-04   7.2697558E+04   -1.7021836E+00
   4.7461140E-04   7.2129730E+04   -1.7016289E+00
   4.7680321E-04   7.1566520E+04   -1.7010746E+00
   4.7900514E-04   7.1007889E+04   -1.7005208E+00
   4.8121723E-04   7.0453798E+04   -1.6999675E+00
   4.8343954E-04   6.9904210E+04   -1.6994147E+00
   4.8567212E-04   6.9359085E+04   -1.6988625E+00
   4.8791500E-04   6.8818386E+04   -1.6983107E+00
   4.9016825E-04   6.8282076E+04   -1.6977595E+00
   4.9243189E-04   6.7750117E+04   -1.6972088E+00
   4.9470600E-04   6.7222472E+04   -1.6966586E+00
   4.9699060E-04   6.6699107E+04   -1.6961090E+00
   4.9928575E-04   6.6179983E+04   -1.6955600E+00
   5.0159151E-04   6.5665066E+04   -1.6950114E+00
   5.0390791E-04   6.5154319E+04   -1.6944635E+00
   5.0623501E-04   6.4647709E+04   -1.6939161E+00
   5.0857286E-04   6.4145199E+04   -1.6933692E+00
   5.1092150E-04   6.3646756E+04   -1.6928229E+00
   5.1328099E-04   6.3152345E+04   -1.6922772E+00
   5.1565137E-04   6.2661932E+04   -1.6917321E+00
   5.1803270E-04   6.2175483E+04   -1.6911876E+00
   5.2042503E-04   6.1692965E+04   -1.6906436E+00
   5.2282841E-04   6.1214345E+04   -1.6901003E+00
   5.2524289E-04   6.0739591E+04   -1.6895575E+00
   5.2766851E-04   6.0268669E+04   -1.6890154E+00
   5.3010534E-04   5.9801547E+04   -1.6884738E+00
   5.3255342E-04   5.9338194E+04   -1.6879329E+00
   5.3501281E-04   5.8878577E+04   -1.6873926E+00
   5.3748356E-04   5.8422666E+04   -1.6868529E+00
   5.3996571E-04   5.7970430E+04   -1.6863138E+00
   5.4245933E-04   5.7521837E+04   -1.6857754E+00
   5.4496446E-04   5.7076856E+04   -1.6852376E+00
   5.4748117E-04   5.6635459E+04   -1.6847004E+00
   5.5000949E-04   5.6197614E+04   -1.6841639E+00
   5.5254949E-04   5.5763291E+04   -1.6836280E+00
   5.5510123E-04   5.5332462E+04   -1.6830928E+00
   5.5766474E-04   5.4905096E+04   -1.6825583E+00
   5.6024010E-04   5.4481166E+04   -1.6820244E+00
   5.6282734E-04   5.4060641E+04   -1.6814912E+00
   5.6542654E-04   5.3643495E+04   -1.6809586E+00
   5.6803774E-04   5.3229697E+04   -1.6804267E+00
   5.7066099E-04   5.2819221E+04   -1.6798955E+00
   5.7329637E-04   5.2412038E+04   -1.6793650E+00
   5.7594391E-04   5.2008122E+04   -1.6788352E+00
   5.7860368E-04   5.1607444E+04   -1.6783061E+00
   5.8127573E-04   5.1209978E+04   -1.6777776E+00
   5.8396012E-04   5.0815697E+04   -1.6772499E+00
   5.8665691E-04   5.0424573E+04   -1.6767229E+00
   5.8936616E-04   5.0036582E+04   -1.6761966E+00
   5.9208791E-04   4.9651697E+04   -1.6756710E+00
   5.9482223E-04   4.9269891E+04   -1.6751461E+00
   5.9756919E-04   4.8891139E+04   -1.6746219E+00
   6.0032882E-04   4.8515416E+04   -1.6740985E+00
   6.0310120E-04   4.8142696E+04   -1.6735758E+00
   6.0588639E-04   4.7772955E+04   -1.6730538E+00
   6.0868443E-04   4.7406167E+04   -1.6725326E+00
   6.1149540E-04   4.7042309E+04   -1.6720121E+00
   6.1431935E-04   4.6681355E+04   -1.6714923E+00
   6.1715634E-04   4.6323281E+04   -1.6709734E+00
   6.2000644E-04   4.5968064E+04   -1.6704551E+00
   6.2286969E-04   4.5615680E+04   -1.6699376E+00
