#        a       HoverH0(a)       dlogHdloga_of_a(a)
   1.0000000E-04   1.1919904E+06   -1.8613950E+00
   1.0046181E-04   1.1818125E+06   -1.8609330E+00
   1.0092575E-04   1.1717239E+06   -1.8604699E+00
   1.0139184E-04   1.1617240E+06   -1.8600060E+00
   1.0186008E-04   1.1518119E+06   -1.8595411E+00
   1.0233048E-04   1.1419868E+06   -1.8590752E+00
   1.0280305E-04   1.1322479E+06   -1.8586084E+00
   1.0327781E-04   1.1225946E+06   -1.8581407E+00
   1.0375475E-04   1.1130259E+06   -1.8576721E+00
   1.0423390E-04   1.1035411E+06   -1.8572025E+00
   1.0471527E-04   1.0941396E+06   -1.8567320E+00
   1.0519885E-04   1.0848205E+06   -1.8562605E+00
   1.0568467E-04   1.0755831E+06   -1.8557882E+00
   1.0617274E-04   1.0664267E+06   -1.8553149E+00
   1.0666305E-04   1.0573506E+06   -1.8548407E+00
   1.0715563E-04   1.0483540E+06   -1.8543656E+00
   1.0765049E-04   1.0394362E+06   -1.8538895E+00
   1.0814763E-04   1.0305965E+06   -1.8534126E+00
   1.0864707E-04   1.0218343E+06   -1.8529347E+00
   1.0914881E-04   1.0131488E+06   -1.8524560E+00
   1.0965287E-04   1.0045393E+06   -1.8519763E+00
   1.1015926E-04   9.9600524E+05   -1.8514957E+00
   1.1066799E-04   9.8754583E+05   -1.8510143E+00
   1.1117906E-04   9.7916045E+05   -1.8505319E+00
   1.1169250E-04   9.7084843E+05   -1.8500486E+00
   1.1220831E-04   9.6260911E+05   -1.8495645E+00
   1.1272650E-04   9.5444185E+05   -1.8490794E+00
   1.1324708E-04   9.4634599E+05   -1.8485935E+00
   1.1377007E-04   9.3832092E+05   -1.8481067E+00
   1.1429547E-04   9.3036599E+05   -1.8476190E+00
   1.1482330E-04   9.2248057E+05   -1.8471304E+00
   1.1535356E-04   9.1466405E+05   -1.8466409E+00
   1.1588628E-04   9.0691581E+05   -1.8461506E+00
   1.1642145E-04   8.9923523E+05   -1.8456594E+00
   1.1695910E-04   8.9162172E+05   -1.8451674E+00
   1.1749923E-04   8.8407468E+05   -1.8446744E+00
   1.1804185E-04   8.7659351E+05   -1.8441807E+00
   1.1858698E-04   8.6917763E+05   -1.8436860E+00
   1.1913463E-04   8.6182645E+05   -1.8431905E+00
   1.1968481E-04   8.5453940E+05   -1.8426942E+00
   1.2023752E-04   8.4731590E+05   -1.8421970E+00
   1.2079279E-04   8.4015539E+05   -1.8416989E+00
   1.2135063E-04   8.3305730E+05   -1.8412000E+00
   1.2191104E-04   8.2602109E+05   -1.8407003E+00
   1.2247403E-04   8.1904619E+05   -1.8401997E+00
   1.2303963E-04   8.1213206E+05   -1.8396983E+00
   1.2360784E-04   8.0527816E+05   -1.8391961E+00
   1.2417868E-04   7.9848395E+05   -1.8386931E+00
   1.2475215E-04   7.9174890E+05   -1.8381892E+00
   1.2532826E-04   7.8507248E+05   -1.8376845E+00
   1.2590704E-04   7.7845418E+05   -1.8371790E+00
   1.2648850E-04   7.7189346E+05   -1.8366727E+00
   1.2707263E-04   7.6538983E+05   -1.8361655E+00
   1.2765947E-04   7.5894277E+05   -1.8356576E+00
   1.2824901E-04   7.5255177E+05   -1.8351488E+00
   1.2884128E-04   7.4621635E+05   -1.8346393E+00
   1.2943628E-04   7.3993600E+05   -1.8341290E+00
   1.3003403E-04   7.3371023E+05   -1.8336178E+00
   1.3063454E-04   7.2753856E+05   -1.8331059E+00
   1.3123783E-04   7.2142051E+05   -1.8325932E+00
   1.3184390E-04   7.1535560E+05   -1.8320797E+00
   1.3245277E-04   7.0934335E+05   -1.8315655E+00
   1.3306445E-04   7.0338330E+05   -1.8310504E+00
   1.3367895E-04   6.9747498E+05   -1.8305346E+00
   1.3429630E-04   6.9161794E+05   -1.8300181E+00
   1.3491649E-04   6.8581172E+05   -1.8295007E+00
   1.3553955E-04   6.8005586E+05   -1.8289826E+00
   1.3616548E-04   6.7434992E+05   -1.8284638E+00
   1.3679431E-04   6.6869346E+05   -1.8279442E+00
   1.3742604E-04   6.6308603E+05   -1.8274238E+00
   1.3806069E-04   6.5752720E+05   -1.8269028E+00
   1.3869827E-04   6.5201654E+05   -1.8263809E+00
   1.3933879E-04   6.4655362E+05   -1.8258584E+00
   1.3998227E-04   6.4113801E+05   -1.8253351E+00
   1.4062872E-04   6.3576930E+05   -1.8248110E+00
   1.4127816E-04   6.3044707E+05   -1.8242863E+00
   1.4193060E-04   6.2517091E+05   -1.8237608E+00
   1.4258605E-04   6.1994040E+05   -1.8232347E+00
   1.4324453E-04   6.1475514E+05   -1.8227078E+00
   1.4390605E-04   6.0961474E+05   -1.8221802E+00
   1.4457062E-04   6.0451879E+05   -1.8216519E+00
   1.4523826E-04   5.9946690E+05   -1.8211229E+00
   1.4590899E-04   5.9445868E+05   -1.8205932E+00
   1.4658281E-04   5.8949374E+05   -1.8200628E+00
   1.4725974E-04   5.8457169E+05   -1.8195317E+00
   1.4793981E-04   5.7969216E+05   -1.8190000E+00
   1.4862301E-04   5.7485477E+05   -1.8184676E+00
   1.4930936E-04   5.7005915E+05   -1.8179345E+00
   1.4999889E-04   5.6530492E+05   -1.8174007E+00
   1.5069160E-04   5.6059172E+05   -1.8168663E+00
   1.5138751E-04   5.5591919E+05   -1.8163312E+00
   1.5208663E-04   5.5128696E+05   -1.8157954E+00
   1.5278899E-04   5.4669468E+05   -1.8152590E+00
   1.5349458E-04   5.4214200E+05   -1.8147220E+00
   1.5420343E-04   5.3762856E+05   -1.8141843E+00
   1.5491556E-04   5.3315402E+05   -1.8136460E+00
   1.5563098E-04   5.2871803E+05   -1.8131071E+00
   1.5634970E-04   5.2432025E+05   -1.8125675E+00
   1.5707174E-04   5.1996034E+05   -1.8120273E+00
   1.5779711E-04   5.1563798E+05   -1.8114865E+00
   1.5852584E-04   5.1135282E+05   -1.8109450E+00
   1.5925792E-04   5.0710453E+05   -1.8104030E+00
   1.5999339E-04   5.0289280E+05   -1.8098604E+00
   1.6073226E-04   4.9871729E+05   -1.8093171E+00
   1.6147454E-04   4.9457770E+05   -1.8087733E+00
   1.6222024E-04   4.9047369E+05   -1.8082289E+00
   1.6296939E-04   4.8640496E+05   -1.8076838E+00
   1.6372200E-04   4.8237119E+05   -1.8071383E+00
   1.6447809E-04   4.7837208E+05   -1.8065921E+00
   1.6523767E-04   4.7440732E+05   -1.8060454E+00
   1.6600075E-04   4.7047661E+05   -1.8054981E+00
   1.6676736E-04   4.6657964E+05   -1.8049502E+00
   1.6753751E-04   4.6271611E+05   -1.8044018E+00
   1.6831122E-04   4.5888574E+05   -1.8038528E+00
   1.6908849E-04   4.5508823E+05   -1.8033033E+00
   1.6986936E-04   4.5132328E+05   -1.8027532E+00
   1.7065384E-04   4.4759062E+05   -1.8022027E+00
   1.7144193E-04   4.4388996E+05   -1.8016515E+00
   1.7223367E-04   4.4022101E+05   -1.8010999E+00
   1.7302906E-04   4.3658350E+05   -1.8005477E+00
   1.7382813E-04   4.3297715E+05   -1.7999950E+00
   1.7463089E-04   4.2940168E+05   -1.7994419E+00
   1.7543735E-04   4.2585682E+05   -1.7988882E+00
   1.7624754E-04   4.2234231E+05   -1.7983340E+00
   1.7706147E-04   4.1885787E+05   -1.7977793E+00
   1.7787916E-04   4.1540323E+05   -1.7972241E+00
   1.7870062E-04   4.1197815E+05   -1.7966685E+00
   1.7952588E-04   4.0858235E+05   -1.7961123E+00
   1.8035495E-04   4.0521558E+05   -1.7955557E+00
   1.8118785E-04   4.0187759E+05   -1.7949986E+00
   1.8202459E-04   3.9856812E+05   -1.7944411E+00
   1.8286520E-04   3.9528691E+05   -1.7938831E+00
   1.8370969E-04   3.9203373E+05   -1.7933246E+00
   1.8455808E-04   3.8880832E+05   -1.7927657E+00
   1.8541039E-04   3.8561044E+05   -1.7922064E+00
   1.8626663E-04   3.8243985E+05   -1.7916466E+00
   1.8712683E-04   3.7929631E+05   -1.7910864E+00
   1.8799100E-04   3.7617957E+05   -1.7905258E+00
   1.8885917E-04   3.7308941E+05   -1.7899648E+00
   1.8973134E-04   3.7002560E+05   -1.7894033E+00
   1.9060754E-04   3.6698789E+05   -1.7888414E+00
   1.9148778E-04   3.6397606E+05   -1.7882792E+00
   1.9237209E-04   3.6098989E+05   -1.7877165E+00
   1.9326049E-04   3.5802914E+05   -1.7871534E+00
   1.9415299E-04   3.5509360E+05   -1.7865900E+00
   1.9504960E-04   3.5218304E+05   -1.7860262E+00
   1.9595036E-04   3.4929725E+05   -1.7854620E+00
   1.9685528E-04   3.4643601E+05   -1.7848974E+00
   1.9776438E-04   3.4359909E+05   -1.7843325E+00
   1.9867768E-04   3.4078630E+05   -1.7837672E+00
   1.9959519E-04   3.3799741E+05   -1.7832015E+00
   2.0051694E-04   3.3523222E+05   -1.7826355E+00
   2.0144295E-04   3.3249052E+05   -1.7820692E+00
   2.0237324E-04   3.2977210E+05   -1.7815026E+00
   2.0330782E-04   3.2707676E+05   -1.7809356E+00
   2.0424671E-04   3.2440430E+05   -1.7803682E+00
   2.0518995E-04   3.2175452E+05   -1.7798006E+00
   2.0613754E-04   3.1912721E+05   -1.7792327E+00
   2.0708950E-04   3.1652219E+05   -1.7786644E+00
   2.0804586E-04   3.1393925E+05   -1.7780958E+00
   2.0900664E-04   3.1137821E+05   -1.7775270E+00
   2.0997185E-04   3.0883887E+05   -1.7769579E+00
   2.1094152E-04   3.0632105E+05   -1.7763884E+00
   2.1191567E-04   3.0382454E+05   -1.7758187E+00
   2.1289432E-04   3.0134918E+05   -1.7752488E+00
   2.1387749E-04   2.9889476E+05   -1.7746785E+00
   2.1486520E-04   2.9646112E+05   -1.7741080E+00
   2.1585747E-04   2.9404806E+05   -1.7735373E+00
   2.1685432E-04   2.9165541E+05   -1.7729663E+00
   2.1785578E-04   2.8928300E+05   -1.7723950E+00
   2.1886186E-04   2.8693063E+05   -1.7718236E+00
   2.1987259E-04   2.8459815E+05   -1.7712519E+00
   2.2088798E-04   2.8228537E+05   -1.7706799E+00
   2.2190807E-04   2.7999212E+05   -1.7701078E+00
   2.2293286E-04   2.7771823E+05   -1.7695354E+00
   2.2396239E-04   2.7546354E+05   -1.7689629E+00
   2.2499667E-04   2.7322787E+05   -1.7683901E+00
   2.2603573E-04   2.7101107E+05   -1.7678171E+00
   2.2707958E-04   2.6881296E+05   -1.7672440E+00
   2.2812826E-04   2.6663338E+05   -1.7666706E+00
   2.2918178E-04   2.6447217E+05   -1.7660971E+00
   2.3024017E-04   2.6232917E+05   -1.7655234E+00
   2.3130344E-04   2.6020423E+05   -1.7649496E+00
   2.3237162E-04   2.5809718E+05   -1.7643756E+00
   2.3344474E-04   2.5600787E+05   -1.7638014E+00
   2.3452281E-04   2.5393615E+05   -1.7632271E+00
   2.3560586E-04   2.5188186E+05   -1.7626527E+00
   2.3669392E-04   2.4984484E+05   -1.7620781E+00
   2.3778699E-04   2.4782496E+05   -1.7615034E+00
   2.3888512E-04   2.4582206E+05   -1.7609286E+00
   2.3998831E-04   2.4383599E+05   -1.7603536E+00
   2.4109661E-04   2.4186661E+05   -1.7597786E+00
   2.4221001E-04   2.3991377E+05   -1.7592034E+00
   2.4332857E-04   2.3797733E+05   -1.7586282E+00
   2.4445228E-04   2.3605714E+05   -1.7580528E+00
   2.4558119E-04   2.3415307E+05   -1.7574774E+00
   2.4671531E-04   2.3226497E+05   -1.7569019E+00
   2.4785467E-04   2.3039271E+05   -1.7563263E+00
   2.4899928E-04   2.2853614E+05   -1.7557506E+00
   2.5014919E-04   2.2669514E+05   -1.7551749E+00
   2.5130440E-04   2.2486957E+05   -1.7545991E+00
   2.5246495E-04   2.2305929E+05   -1.7540233E+00
   2.5363086E-04   2.2126416E+05   -1.7534475E+00
   2.5480216E-04   2.1948407E+05   -1.7528716E+00
   2.5597886E-04   2.1771888E+05   -1.7522956E+00
   2.5716100E-04   2.1596845E+05   -1.7517197E+00
   2.5834859E-04   2.1423267E+05   -1.7511437E+00
   2.5954168E-04   2.1251140E+05   -1.7505677E+00
   2.6074027E-04   2.1080453E+05   -1.7499917E+00
   2.6194439E-04   2.0911191E+05   -1.7494157E+00
   2.6315408E-04   2.0743344E+05   -1.7488397E+00
   2.6436935E-04   2.0576898E+05   -1.7482638E+00
   2.6559024E-04   2.0411843E+05   -1.7476878E+00
   2.6681676E-04   2.0248165E+05   -1.7471119E+00
   2.6804895E-04   2.0085853E+05   -1.7465360E+00
   2.6928683E-04   1.9924894E+05   -1.7459601E+00
   2.7053042E-04   1.9765278E+05   -1.7453843E+00
   2.7177976E-04   1.9606993E+05   -1.7448085E+00
   2.7303487E-04   1.9450027E+05   -1.7442328E+00
   2.7429577E-04   1.9294369E+05   -1.7436571E+00
   2.7556250E-04   1.9140007E+05   -1.7430815E+00
   2.7683507E-04   1.8986931E+05   -1.7425060E+00
   2.7811353E-04   1.8835128E+05   -1.7419305E+00
   2.7939788E-04   1.8684589E+05   -1.7413552E+00
   2.8068817E-04   1.8535302E+05   -1.7407799E+00
   2.8198442E-04   1.8387257E+05   -1.7402048E+00
   2.8328665E-04   1.8240443E+05   -1.7396297E+00
   2.8459490E-04   1.8094849E+05   -1.7390547E+00
   2.8590919E-04   1.7950464E+05   -1.7384799E+00
   2.8722955E-04   1.7807279E+05   -1.7379052E+00
   2.8855600E-04   1.7665282E+05   -1.7373306E+00
   2.8988859E-04   1.7524464E+05   -1.7367561E+00
   2.9122732E-04   1.7384815E+05   -1.7361818E+00
   2.9257224E-04   1.7246325E+05   -1.7356076E+00
   2.9392337E-04   1.7108982E+05   -1.7350336E+00
   2.9528074E-04   1.6972779E+05   -1.7344597E+00
   2.9664438E-04   1.6837704E+05   -1.7338860E+00
   2.9801431E-04   1.6703748E+05   -1.7333125E+00
   2.9939057E-04   1.6570902E+05   -1.7327392E+00
   3.0077319E-04   1.6439156E+05   -1.7321660E+00
   3.0216219E-04   1.6308500E+05   -1.7315930E+00
   3.0355761E-04   1.6178925E+05   -1.7310202E+00
   3.0495947E-04   1.6050423E+05   -1.7304476E+00
   3.0636780E-04   1.5922983E+05   -1.7298752E+00
   3.0778264E-04   1.5796596E+05   -1.7293031E+00
   3.0920401E-04   1.5671254E+05   -1.7287311E+00
   3.1063195E-04   1.5546947E+05   -1.7281594E+00
   3.1206648E-04   1.5423667E+05   -1.7275879E+00
   3.1350764E-04   1.5301405E+05   -1.7270166E+00
   3.1495545E-04   1.5180152E+05   -1.7264456E+00
   3.1640994E-04   1.5059900E+05   -1.7258748E+00
   3.1787116E-04   1.4940639E+05   -1.7253043E+00
   3.1933912E-04   1.4822362E+05   -1.7247340E+00
   3.2081386E-04   1.4705060E+05   -1.7241640E+00
   3.2229541E-04   1.4588724E+05   -1.7235943E+00
   3.2378381E-04   1.4473347E+05   -1.7230248E+00
   3.2527908E-04   1.4358919E+05   -1.7224557E+00
   3.2678125E-04   1.4245434E+05   -1.7218868E+00
   3.2829036E-04   1.4132883E+05   -1.7213182E+00
   3.2980644E-04   1.4021258E+05   -1.7207499E+00
   3.3132952E-04   1.3910551E+05   -1.7201819E+00
   3.3285963E-04   1.3800754E+05   -1.7196143E+00
   3.3439681E-04   1.3691859E+05   -1.7190469E+00
   3.3594109E-04   1.3583859E+05   -1.7184799E+00
   3.3749250E-04   1.3476747E+05   -1.7179132E+00
   3.3905108E-04   1.3370514E+05   -1.7173468E+00
   3.4061685E-04   1.3265152E+05   -1.7167808E+00
   3.4218986E-04   1.3160656E+05   -1.7162151E+00
   3.4377013E-04   1.3057016E+05   -1.7156498E+00
   3.4535769E-04   1.2954227E+05   -1.7150848E+00
   3.4695259E-04   1.2852280E+05   -1.7145202E+00
   3.4855485E-04   1.2751169E+05   -1.7139559E+00
   3.5016452E-04   1.2650885E+05   -1.7133921E+00
   3.5178161E-04   1.2551424E+05   -1.7128286E+00
   3.5340618E-04   1.2452776E+05   -1.7122655E+00
   3.5503824E-04   1.2354936E+05   -1.7117028E+00
   3.5667785E-04   1.2257896E+05   -1.7111405E+00
   3.5832502E-04   1.2161650E+05   -1.7105785E+00
   3.5997981E-04   1.2066191E+05   -1.7100170E+00
   3.6164223E-04   1.1971513E+05   -1.7094559E+00
   3.6331233E-04   1.1877607E+05   -1.7088953E+00
   3.6499015E-04   1.1784469E+05   -1.7083350E+00
   3.6667571E-04   1.1692092E+05   -1.7077752E+00
   3.6836906E-04   1.1600468E+05   -1.7072158E+00
   3.7007022E-04   1.1509592E+05   -1.7066569E+00
   3.7177925E-04   1.1419457E+05   -1.7060984E+00
   3.7349616E-04   1.1330058E+05   -1.7055403E+00
   3.7522101E-04   1.1241387E+05   -1.7049827E+00
   3.7695382E-04   1.1153438E+05   -1.7044256E+00
   3.7869463E-04   1.1066207E+05   -1.7038689E+00
   3.8044348E-04   1.0979685E+05   -1.7033127E+00
   3.8220041E-04   1.0893868E+05   -1.7027570E+00
   3.8396545E-04   1.0808750E+05   -1.7022018E+00
   3.8573864E-04   1.0724323E+05   -1.7016470E+00
   3.8752002E-04   1.0640584E+05   -1.7010928E+00
   3.8930963E-04   1.0557525E+05   -1.7005390E+00
   3.9110750E-04   1.0475142E+05   -1.6999858E+00
   3.9291368E-04   1.0393427E+05   -1.6994331E+00
   3.9472820E-04   1.0312377E+05   -1.6988808E+00
   3.9655109E-04   1.0231984E+05   -1.6983291E+00
   3.9838241E-04   1.0152244E+05   -1.6977780E+00
   4.0022218E-04   1.0073151E+05   -1.6972273E+00
   4.0207045E-04   9.9946996E+04   -1.6966772E+00
   4.0392725E-04   9.9168843E+04   -1.6961276E+00
   4.0579263E-04   9.8396997E+04   -1.6955786E+00
   4.0766662E-04   9.7631405E+04   -1.6950301E+00
   4.0954927E-04   9.6872015E+04   -1.6944822E+00
   4.1144061E-04   9.6118774E+04   -1.6939348E+00
   4.1334068E-04   9.5371630E+04   -1.6933880E+00
   4.1524953E-04   9.4630532E+04   -1.6928418E+00
   4.1716720E-04   9.3895429E+04   -1.6922961E+00
   4.1909372E-04   9.3166270E+04   -1.6917510E+00
   4.2102914E-04   9.2443006E+04   -1.6912065E+00
   4.2297350E-04   9.1725586E+04   -1.6906626E+00
   4.2492683E-04   9.1013963E+04   -1.6901193E+00
   4.2688919E-04   9.0308086E+04   -1.6895766E+00
   4.2886061E-04   8.9607908E+04   -1.6890345E+00
   4.3084113E-04   8.8913380E+04   -1.6884930E+00
   4.3283080E-04   8.8224456E+04   -1.6879521E+00
   4.3482966E-04   8.7541087E+04   -1.6874118E+00
   4.3683775E-04   8.6863228E+04   -1.6868722E+00
   4.3885511E-04   8.6190832E+04   -1.6863331E+00
   4.4088179E-04   8.5523853E+04   -1.6857947E+00
   4.4291783E-04   8.4862245E+04   -1.6852570E+00
   4.4496327E-04   8.4205965E+04   -1.6847199E+00
   4.4701816E-04   8.3554966E+04   -1.6841834E+00
   4.4908253E-04   8.2909205E+04   -1.6836476E+00
   4.5115644E-04   8.2268638E+04   -1.6831124E+00
   4.5323993E-04   8.1633221E+04   -1.6825779E+00
   4.5533304E-04   8.1002911E+04   -1.6820440E+00
   4.5743582E-04   8.0377666E+04   -1.6815109E+00
   4.5954830E-04   7.9757443E+04   -1.6809784E+00
   4.6167054E-04   7.9142199E+04   -1.6804465E+00
   4.6380259E-04   7.8531894E+04   -1.6799154E+00
   4.6594448E-04   7.7926486E+04   -1.6793849E+00
   4.6809626E-04   7.7325933E+04   -1.6788551E+00
   4.7025797E-04   7.6730196E+04   -1.6783260E+00
   4.7242967E-04   7.6139235E+04   -1.6777977E+00
   4.7461140E-04   7.5553008E+04   -1.6772700E+00
   4.7680321E-04   7.4971478E+04   -1.6767430E+00
   4.7900514E-04   7.4394603E+04   -1.6762167E+00
   4.8121723E-04   7.3822347E+04   -1.6756912E+00
   4.8343954E-04   7.3254670E+04   -1.6751663E+00
   4.8567212E-04   7.2691534E+04   -1.6746422E+00
   4.8791500E-04   7.2132900E+04   -1.6741188E+00
   4.9016825E-04   7.1578733E+04   -1.6735962E+00
   4.9243189E-04   7.1028994E+04   -1.6730743E+00
   4.9470600E-04   7.0483646E+04   -1.6725531E+00
   4.9699060E-04   6.9942653E+04   -1.6720326E+00
   4.9928575E-04   6.9405979E+04   -1.6715129E+00
   5.0159151E-04   6.8873588E+04   -1.6709940E+00
   5.0390791E-04   6.8345443E+04   -1.6704758E+00
   5.0623501E-04   6.7821511E+04   -1.6699584E+00
   5.0857286E-04   6.7301755E+04   -1.6694417E+00
   5.1092150E-04   6.6786141E+04   -1.6689258E+00
   5.1328099E-04   6.6274635E+04   -1.6684107E+00
   5.1565137E-04   6.5767203E+04   -1.6678963E+00
   5.1803270E-04   6.5263810E+04   -1.6673827E+00
   5.2042503E-04   6.4764423E+04   -1.6668699E+00
   5.2282841E-04   6.4269010E+04   -1.6663579E+00
   5.2524289E-04   6.3777536E+04   -1.6658466E+00
   5.2766851E-04   6.3289970E+04   -1.6653362E+00
   5.3010534E-04   6.2806278E+04   -1.6648266E+00
   5.3255342E-04   6.2326430E+04   -1.6643177E+00
   5.3501281E-04   6.1850392E+04   -1.6638097E+00
   5.3748356E-04   6.1378134E+04   -1.6633024E+00
   5.3996571E-04   6.0909624E+04   -1.6627960E+00
   5.4245933E-04   6.0444831E+04   -1.6622904E+00
   5.4496446E-04   5.9983725E+04   -1.6617856E+00
   5.4748117E-04   5.9526274E+04   -1.6612816E+00
   5.5000949E-04   5.9072449E+04   -1.6607784E+00
   5.5254949E-04   5.8622220E+04   -1.6602761E+00
   5.5510123E-04   5.8175557E+04   -1.6597746E+00
   5.5766474E-04   5.7732431E+04   -1.6592739E+00
   5.6024010E-04   5.7292812E+04   -1.6587740E+00
   5.6282734E-04   5.6856671E+04   -1.6582750E+00
   5.6542654E-04   5.6423980E+04   -1.6577769E+00
   5.6803774E-04   5.5994710E+04   -1.6572796E+00
   5.7066099E-04   5.5568834E+04   -1.6567831E+00
   5.7329637E-04   5.5146322E+04   -1.6562875E+00
   5.7594391E-04   5.4727148E+04   -1.6557927E+00
   5.7860368E-04   5.4311284E+04   -1.6552988E+00
   5.8127573E-04   5.3898702E+04   -1.6548057E+00
   5.8396012E-04   5.3489377E+04   -1.6543136E+00
   5.8665691E-04   5.3083279E+04   -1.6538222E+00
   5.8936616E-04   5.2680385E+04   -1.6533318E+00
   5.9208791E-04   5.2280666E+04   -1.6528422E+00
   5.9482223E-04   5.1884097E+04   -1.6523535E+00
   5.9756919E-04   5.1490652E+04   -1.6518657E+00
   6.0032882E-04   5.1100305E+04   -1.6513788E+00
   6.0310120E-04   5.0713031E+04   -1.6508927E+00
   6.0588639E-04   5.0328805E+04   -1.6504075E+00
   6.0868443E-04   4.9947601E+04   -1.6499232E+00
   6.1149540E-04   4.9569395E+04   -1.6494398E+00
   6.1431935E-04   4.9194163E+04   -1.6489573E+00
   6.1715634E-04   4.8821879E+04   -1.6484757E+00
   6.2000644E-04   4.8452520E+04   -1.6479950E+00
   6.2286969E-04   4.8086062E+04   -1.6475152E+00
