#        a       HoverH0(a)       dlogHdloga_of_a(a)
   1.0000000E-04   1.0706334E+06   -1.8818933E+00
   1.0046181E-04   1.0613913E+06   -1.8814771E+00
   1.0092575E-04   1.0522311E+06   -1.8810600E+00
   1.0139184E-04   1.0431518E+06   -1.8806418E+00
   1.0186008E-04   1.0341530E+06   -1.8802226E+00
   1.0233048E-04   1.0252337E+06   -1.8798024E+00
   1.0280305E-04   1.0163934E+06   -1.8793812E+00
   1.0327781E-04   1.0076312E+06   -1.8789591E+00
   1.0375475E-04   9.9894648E+05   -1.8785358E+00
   1.0423390E-04   9.9033857E+05   -1.8781116E+00
   1.0471527E-04   9.8180676E+05   -1.8776864E+00
   1.0519885E-04   9.7335035E+05   -1.8772602E+00
   1.0568467E-04   9.6496868E+05   -1.8768330E+00
   1.0617274E-04   9.5666107E+05   -1.8764048E+00
   1.0666305E-04   9.4842686E+05   -1.8759756E+00
   1.0715563E-04   9.4026539E+05   -1.8755454E+00
   1.0765049E-04   9.3217599E+05   -1.8751142E+00
   1.0814763E-04   9.2415803E+05   -1.8746820E+00
   1.0864707E-04   9.1621086E+05   -1.8742488E+00
   1.0914881E-04   9.0833385E+05   -1.8738146E+00
   1.0965287E-04   9.0052636E+05   -1.8733794E+00
   1.1015926E-04   8.9278777E+05   -1.8729432E+00
   1.1066799E-04   8.8511746E+05   -1.8725061E+00
   1.1117906E-04   8.7751482E+05   -1.8720679E+00
   1.1169250E-04   8.6997924E+05   -1.8716288E+00
   1.1220831E-04   8.6251012E+05   -1.8711887E+00
   1.1272650E-04   8.5510686E+05   -1.8707476E+00
   1.1324708E-04   8.4776887E+05   -1.8703055E+00
   1.1377007E-04   8.4049557E+05   -1.8698624E+00
   1.1429547E-04   8.3328637E+05   -1.8694184E+00
   1.1482330E-04   8.2614070E+05   -1.8689733E+00
   1.1535356E-04   8.1905798E+05   -1.8685273E+00
   1.1588628E-04   8.1203766E+05   -1.8680803E+00
   1.1642145E-04   8.0507917E+05   -1.8676324E+00
   1.1695910E-04   7.9818195E+05   -1.8671835E+00
   1.1749923E-04   7.9134547E+05   -1.8667336E+00
   1.1804185E-04   7.8456916E+05   -1.8662827E+00
   1.1858698E-04   7.7785250E+05   -1.8658309E+00
   1.1913463E-04   7.7119495E+05   -1.8653781E+00
   1.1968481E-04   7.6459598E+05   -1.8649243E+00
   1.2023752E-04   7.5805505E+05   -1.8644696E+00
   1.2079279E-04   7.5157167E+05   -1.8640139E+00
   1.2135063E-04   7.4514530E+05   -1.8635572E+00
   1.2191104E-04   7.3877543E+05   -1.8630996E+00
   1.2247403E-04   7.3246156E+05   -1.8626411E+00
   1.2303963E-04   7.2620319E+05   -1.8621816E+00
   1.2360784E-04   7.1999982E+05   -1.8617211E+00
   1.2417868E-04   7.1385096E+05   -1.8612597E+00
   1.2475215E-04   7.0775611E+05   -1.8607973E+00
   1.2532826E-04   7.0171479E+05   -1.8603340E+00
   1.2590704E-04   6.9572653E+05   -1.8598698E+00
   1.2648850E-04   6.8979085E+05   -1.8594046E+00
   1.2707263E-04   6.8390728E+05   -1.8589385E+00
   1.2765947E-04   6.7807535E+05   -1.8584714E+00
   1.2824901E-04   6.7229460E+05   -1.8580034E+00
   1.2884128E-04   6.6656457E+05   -1.8575345E+00
   1.2943628E-04   6.6088481E+05   -1.8570646E+00
   1.3003403E-04   6.5525487E+05   -1.8565938E+00
   1.3063454E-04   6.4967429E+05   -1.8561221E+00
   1.3123783E-04   6.4414265E+05   -1.8556495E+00
   1.3184390E-04   6.3865949E+05   -1.8551759E+00
   1.3245277E-04   6.3322440E+05   -1.8547014E+00
   1.3306445E-04   6.2783693E+05   -1.8542260E+00
   1.3367895E-04   6.2249666E+05   -1.8537497E+00
   1.3429630E-04   6.1720317E+05   -1.8532725E+00
   1.3491649E-04   6.1195604E+05   -1.8527944E+00
   1.3553955E-04   6.0675486E+05   -1.8523153E+00
   1.3616548E-04   6.0159921E+05   -1.8518354E+00
   1.3679431E-04   5.9648870E+05   -1.8513545E+00
   1.3742604E-04   5.9142290E+05   -1.8508728E+00
   1.3806069E-04   5.8640143E+05   -1.8503901E+00
   1.3869827E-04   5.8142390E+05   -1.8499066E+00
   1.3933879E-04   5.7648989E+05   -1.8494222E+00
   1.3998227E-04   5.7159904E+05   -1.8489369E+00
   1.4062872E-04   5.6675094E+05   -1.8484507E+00
   1.4127816E-04   5.6194523E+05   -1.8479636E+00
   1.4193060E-04   5.5718151E+05   -1.8474756E+00
   1.4258605E-04   5.5245943E+05   -1.8469868E+00
   1.4324453E-04   5.4777859E+05   -1.8464971E+00
   1.4390605E-04   5.4313864E+05   -1.8460065E+00
   1.4457062E-04   5.3853922E+05   -1.8455150E+00
   1.4523826E-04   5.3397995E+05   -1.8450227E+00
   1.4590899E-04   5.2946049E+05   -1.8445295E+00
   1.4658281E-04   5.2498047E+05   -1.8440355E+00
   1.4725974E-04   5.2053954E+05   -1.8435406E+00
   1.4793981E-04   5.1613736E+05   -1.8430448E+00
   1.4862301E-04   5.1177358E+05   -1.8425482E+00
   1.4930936E-04   5.0744785E+05   -1.8420507E+00
   1.4999889E-04   5.0315984E+05   -1.8415524E+00
   1.5069160E-04   4.9890921E+05   -1.8410533E+00
   1.5138751E-04   4.9469563E+05   -1.8405533E+00
   1.5208663E-04   4.9051876E+05   -1.8400525E+00
   1.5278899E-04   4.8637829E+05   -1.8395508E+00
   1.5349458E-04   4.8227388E+05   -1.8390484E+00
   1.5420343E-04   4.7820522E+05   -1.8385450E+00
   1.5491556E-04   4.7417198E+05   -1.8380409E+00
   1.5563098E-04   4.7017385E+05   -1.8375360E+00
   1.5634970E-04   4.6621052E+05   -1.8370302E+00
   1.5707174E-04   4.6228167E+05   -1.8365236E+00
   1.5779711E-04   4.5838700E+05   -1.8360163E+00
   1.5852584E-04   4.5452621E+05   -1.8355081E+00
   1.5925792E-04   4.5069900E+05   -1.8349991E+00
   1.5999339E-04   4.4690505E+05   -1.8344893E+00
   1.6073226E-04   4.4314409E+05   -1.8339787E+00
   1.6147454E-04   4.3941581E+05   -1.8334673E+00
   1.6222024E-04   4.3571993E+05   -1.8329552E+00
   1.6296939E-04   4.3205615E+05   -1.8324422E+00
   1.6372200E-04   4.2842420E+05   -1.8319285E+00
   1.6447809E-04   4.2482378E+05   -1.8314140E+00
   1.6523767E-04   4.2125461E+05   -1.8308987E+00
   1.6600075E-04   4.1771643E+05   -1.8303827E+00
   1.6676736E-04   4.1420895E+05   -1.8298659E+00
   1.6753751E-04   4.1073190E+05   -1.8293483E+00
   1.6831122E-04   4.0728501E+05   -1.8288300E+00
   1.6908849E-04   4.0386801E+05   -1.8283109E+00
   1.6986936E-04   4.0048064E+05   -1.8277911E+00
   1.7065384E-04   3.9712263E+05   -1.8272705E+00
   1.7144193E-04   3.9379372E+05   -1.8267492E+00
   1.7223367E-04   3.9049365E+05   -1.8262271E+00
   1.7302906E-04   3.8722218E+05   -1.8257043E+00
   1.7382813E-04   3.8397903E+05   -1.8251808E+00
   1.7463089E-04   3.8076397E+05   -1.8246566E+00
   1.7543735E-04   3.7757674E+05   -1.8241316E+00
   1.7624754E-04   3.7441710E+05   -1.8236059E+00
   1.7706147E-04   3.7128480E+05   -1.8230795E+00
   1.7787916E-04   3.6817959E+05   -1.8225524E+00
   1.7870062E-04   3.6510124E+05   -1.8220246E+00
   1.7952588E-04   3.6204951E+05   -1.8214961E+00
   1.8035495E-04   3.5902416E+05   -1.8209668E+00
   1.8118785E-04   3.5602497E+05   -1.8204369E+00
   1.8202459E-04   3.5305168E+05   -1.8199063E+00
   1.8286520E-04   3.5010409E+05   -1.8193751E+00
   1.8370969E-04   3.4718196E+05   -1.8188431E+00
   1.8455808E-04   3.4428506E+05   -1.8183105E+00
   1.8541039E-04   3.4141317E+05   -1.8177772E+00
   1.8626663E-04   3.3856607E+05   -1.8172432E+00
   1.8712683E-04   3.3574354E+05   -1.8167085E+00
   1.8799100E-04   3.3294536E+05   -1.8161732E+00
   1.8885917E-04   3.3017131E+05   -1.8156373E+00
   1.8973134E-04   3.2742119E+05   -1.8151007E+00
   1.9060754E-04   3.2469478E+05   -1.8145635E+00
   1.9148778E-04   3.2199186E+05   -1.8140256E+00
   1.9237209E-04   3.1931224E+05   -1.8134871E+00
   1.9326049E-04   3.1665571E+05   -1.8129479E+00
   1.9415299E-04   3.1402205E+05   -1.8124081E+00
   1.9504960E-04   3.1141108E+05   -1.8118677E+00
   1.9595036E-04   3.0882258E+05   -1.8113267E+00
   1.9685528E-04   3.0625637E+05   -1.8107851E+00
   1.9776438E-04   3.0371224E+05   -1.8102429E+00
   1.9867768E-04   3.0118999E+05   -1.8097000E+00
   1.9959519E-04   2.9868944E+05   -1.8091566E+00
   2.0051694E-04   2.9621039E+05   -1.8086126E+00
   2.0144295E-04   2.9375266E+05   -1.8080680E+00
   2.0237324E-04   2.9131604E+05   -1.8075228E+00
   2.0330782E-04   2.8890037E+05   -1.8069770E+00
   2.0424671E-04   2.8650544E+05   -1.8064306E+00
   2.0518995E-04   2.8413109E+05   -1.8058837E+00
   2.0613754E-04   2.8177712E+05   -1.8053362E+00
   2.0708950E-04   2.7944336E+05   -1.8047882E+00
   2.0804586E-04   2.7712963E+05   -1.8042396E+00
   2.0900664E-04   2.7483575E+05   -1.8036904E+00
   2.0997185E-04   2.7256155E+05   -1.8031407E+00
   2.1094152E-04   2.7030686E+05   -1.8025905E+00
   2.1191567E-04   2.6807149E+05   -1.8020398E+00
   2.1289432E-04   2.6585528E+05   -1.8014885E+00
   2.1387749E-04   2.6365807E+05   -1.8009367E+00
   2.1486520E-04   2.6147968E+05   -1.8003843E+00
   2.1585747E-04   2.5931995E+05   -1.7998315E+00
   2.1685432E-04   2.5717871E+05   -1.7992781E+00
   2.1785578E-04   2.5505581E+05   -1.7987243E+00
   2.1886186E-04   2.5295107E+05   -1.7981699E+00
   2.1987259E-04   2.5086434E+05   -1.7976151E+00
   2.2088798E-04   2.4879547E+05   -1.7970597E+00
   2.2190807E-04   2.4674429E+05   -1.7965039E+00
   2.2293286E-04   2.4471064E+05   -1.7959476E+00
   2.2396239E-04   2.4269438E+05   -1.7953908E+00
   2.2499667E-04   2.4069535E+05   -1.7948336E+00
   2.2603573E-04   2.3871340E+05   -1.7942759E+00
   2.2707958E-04   2.3674838E+05   -1.7937178E+00
   2.2812826E-04   2.3480013E+05   -1.7931592E+00
   2.2918178E-04   2.3286852E+05   -1.7926001E+00
   2.3024017E-04   2.3095339E+05   -1.7920406E+00
   2.3130344E-04   2.2905461E+05   -1.7914807E+00
   2.3237162E-04   2.2717202E+05   -1.7909204E+00
   2.3344474E-04   2.2530549E+05   -1.7903596E+00
   2.3452281E-04   2.2345487E+05   -1.7897984E+00
   2.3560586E-04   2.2162002E+05   -1.7892368E+00
   2.3669392E-04   2.1980081E+05   -1.7886748E+00
   2.3778699E-04   2.1799710E+05   -1.7881124E+00
   2.3888512E-04   2.1620875E+05   -1.7875496E+00
   2.3998831E-04   2.1443563E+05   -1.7869864E+00
   2.4109661E-04   2.1267760E+05   -1.7864228E+00
   2.4221001E-04   2.1093453E+05   -1.7858588E+00
   2.4332857E-04   2.0920629E+05   -1.7852945E+00
   2.4445228E-04   2.0749275E+05   -1.7847298E+00
   2.4558119E-04   2.0579378E+05   -1.7841647E+00
   2.4671531E-04   2.0410926E+05   -1.7835993E+00
   2.4785467E-04   2.0243905E+05   -1.7830336E+00
   2.4899928E-04   2.0078303E+05   -1.7824675E+00
   2.5014919E-04   1.9914107E+05   -1.7819010E+00
   2.5130440E-04   1.9751307E+05   -1.7813342E+00
   2.5246495E-04   1.9589888E+05   -1.7807671E+00
   2.5363086E-04   1.9429839E+05   -1.7801997E+00
   2.5480216E-04   1.9271148E+05   -1.7796319E+00
   2.5597886E-04   1.9113803E+05   -1.7790638E+00
   2.5716100E-04   1.8957793E+05   -1.7784955E+00
   2.5834859E-04   1.8803105E+05   -1.7779268E+00
   2.5954168E-04   1.8649728E+05   -1.7773579E+00
   2.6074027E-04   1.8497651E+05   -1.7767886E+00
   2.6194439E-04   1.8346862E+05   -1.7762191E+00
   2.6315408E-04   1.8197350E+05   -1.7756493E+00
   2.6436935E-04   1.8049104E+05   -1.7750792E+00
   2.6559024E-04   1.7902113E+05   -1.7745089E+00
   2.6681676E-04   1.7756365E+05   -1.7739383E+00
   2.6804895E-04   1.7611850E+05   -1.7733674E+00
   2.6928683E-04   1.7468558E+05   -1.7727963E+00
   2.7053042E-04   1.7326476E+05   -1.7722250E+00
   2.7177976E-04   1.7185596E+05   -1.7716534E+00
   2.7303487E-04   1.7045906E+05   -1.7710816E+00
   2.7429577E-04   1.6907396E+05   -1.7705096E+00
   2.7556250E-04   1.6770056E+05   -1.7699374E+00
   2.7683507E-04   1.6633875E+05   -1.7693649E+00
   2.7811353E-04   1.6498844E+05   -1.7687923E+00
   2.7939788E-04   1.6364952E+05   -1.7682194E+00
   2.8068817E-04   1.6232189E+05   -1.7676464E+00
   2.8198442E-04   1.6100546E+05   -1.7670731E+00
   2.8328665E-04   1.5970013E+05   -1.7664997E+00
   2.8459490E-04   1.5840580E+05   -1.7659261E+00
   2.8590919E-04   1.5712237E+05   -1.7653524E+00
   2.8722955E-04   1.5584976E+05   -1.7647784E+00
   2.8855600E-04   1.5458786E+05   -1.7642044E+00
   2.8988859E-04   1.5333658E+05   -1.7636301E+00
   2.9122732E-04   1.5209584E+05   -1.7630558E+00
   2.9257224E-04   1.5086553E+05   -1.7624812E+00
   2.9392337E-04   1.4964558E+05   -1.7619066E+00
   2.9528074E-04   1.4843588E+05   -1.7613318E+00
   2.9664438E-04   1.4723635E+05   -1.7607569E+00
   2.9801431E-04   1.4604690E+05   -1.7601819E+00
   2.9939057E-04   1.4486744E+05   -1.7596068E+00
   3.0077319E-04   1.4369789E+05   -1.7590316E+00
   3.0216219E-04   1.4253816E+05   -1.7584563E+00
   3.0355761E-04   1.4138816E+05   -1.7578809E+00
   3.0495947E-04   1.4024781E+05   -1.7573054E+00
   3.0636780E-04   1.3911703E+05   -1.7567298E+00
   3.0778264E-04   1.3799573E+05   -1.7561542E+00
   3.0920401E-04   1.3688384E+05   -1.7555785E+00
   3.1063195E-04   1.3578126E+05   -1.7550027E+00
   3.1206648E-04   1.3468792E+05   -1.7544269E+00
   3.1350764E-04   1.3360374E+05   -1.7538510E+00
   3.1495545E-04   1.3252864E+05   -1.7532751E+00
   3.1640994E-04   1.3146254E+05   -1.7526992E+00
   3.1787116E-04   1.3040536E+05   -1.7521232E+00
   3.1933912E-04   1.2935702E+05   -1.7515472E+00
   3.2081386E-04   1.2831745E+05   -1.7509712E+00
   3.2229541E-04   1.2728658E+05   -1.7503952E+00
   3.2378381E-04   1.2626432E+05   -1.7498192E+00
   3.2527908E-04   1.2525061E+05   -1.7492431E+00
   3.2678125E-04   1.2424536E+05   -1.7486671E+00
   3.2829036E-04   1.2324851E+05   -1.7480911E+00
   3.2980644E-04   1.2225998E+05   -1.7475151E+00
   3.3132952E-04   1.2127970E+05   -1.7469392E+00
   3.3285963E-04   1.2030760E+05   -1.7463632E+00
   3.3439681E-04   1.1934361E+05   -1.7457873E+00
   3.3594109E-04   1.1838766E+05   -1.7452115E+00
   3.3749250E-04   1.1743967E+05   -1.7446357E+00
   3.3905108E-04   1.1649959E+05   -1.7440600E+00
   3.4061685E-04   1.1556734E+05   -1.7434843E+00
   3.4218986E-04   1.1464285E+05   -1.7429087E+00
   3.4377013E-04   1.1372606E+05   -1.7423331E+00
   3.4535769E-04   1.1281690E+05   -1.7417577E+00
   3.4695259E-04   1.1191530E+05   -1.7411823E+00
   3.4855485E-04   1.1102120E+05   -1.7406071E+00
   3.5016452E-04   1.1013454E+05   -1.7400319E+00
   3.5178161E-04   1.0925525E+05   -1.7394568E+00
   3.5340618E-04   1.0838327E+05   -1.7388818E+00
   3.5503824E-04   1.0751853E+05   -1.7383070E+00
   3.5667785E-04   1.0666097E+05   -1.7377323E+00
   3.5832502E-04   1.0581053E+05   -1.7371577E+00
   3.5997981E-04   1.0496716E+05   -1.7365832E+00
   3.6164223E-04   1.0413078E+05   -1.7360089E+00
   3.6331233E-04   1.0330133E+05   -1.7354348E+00
   3.6499015E-04   1.0247877E+05   -1.7348607E+00
   3.6667571E-04   1.0166302E+05   -1.7342869E+00
   3.6836906E-04   1.0085403E+05   -1.7337132E+00
   3.7007022E-04   1.0005175E+05   -1.7331397E+00
   3.7177925E-04   9.9256109E+04   -1.7325663E+00
   3.7349616E-04   9.8467056E+04   -1.7319932E+00
   3.7522101E-04   9.7684533E+04   -1.7314202E+00
   3.7695382E-04   9.6908485E+04   -1.7308475E+00
   3.7869463E-04   9.6138857E+04   -1.7302749E+00
   3.8044348E-04   9.5375592E+04   -1.7297025E+00
   3.8220041E-04   9.4618636E+04   -1.7291304E+00
   3.8396545E-04   9.3867935E+04   -1.7285584E+00
   3.8573864E-04   9.3123436E+04   -1.7279867E+00
   3.8752002E-04   9.2385084E+04   -1.7274153E+00
   3.8930963E-04   9.1652829E+04   -1.7268440E+00
   3.9110750E-04   9.0926616E+04   -1.7262730E+00
   3.9291368E-04   9.0206395E+04   -1.7257023E+00
   3.9472820E-04   8.9492114E+04   -1.7251318E+00
   3.9655109E-04   8.8783722E+04   -1.7245616E+00
   3.9838241E-04   8.8081168E+04   -1.7239916E+00
   4.0022218E-04   8.7384404E+04   -1.7234219E+00
   4.0207045E-04   8.6693379E+04   -1.7228525E+00
   4.0392725E-04   8.6008044E+04   -1.7222834E+00
   4.0579263E-04   8.5328351E+04   -1.7217145E+00
   4.0766662E-04   8.4654251E+04   -1.7211460E+00
   4.0954927E-04   8.3985696E+04   -1.7205777E+00
   4.1144061E-04   8.3322639E+04   -1.7200098E+00
   4.1334068E-04   8.2665033E+04   -1.7194422E+00
   4.1524953E-04   8.2012832E+04   -1.7188749E+00
   4.1716720E-04   8.1365988E+04   -1.7183079E+00
   4.1909372E-04   8.0724458E+04   -1.7177413E+00
   4.2102914E-04   8.0088194E+04   -1.7171749E+00
   4.2297350E-04   7.9457153E+04   -1.7166090E+00
   4.2492683E-04   7.8831289E+04   -1.7160434E+00
   4.2688919E-04   7.8210559E+04   -1.7154781E+00
   4.2886061E-04   7.7594919E+04   -1.7149132E+00
   4.3084113E-04   7.6984325E+04   -1.7143486E+00
   4.3283080E-04   7.6378735E+04   -1.7137844E+00
   4.3482966E-04   7.5778105E+04   -1.7132206E+00
   4.3683775E-04   7.5182394E+04   -1.7126572E+00
   4.3885511E-04   7.4591559E+04   -1.7120942E+00
   4.4088179E-04   7.4005560E+04   -1.7115315E+00
   4.4291783E-04   7.3424354E+04   -1.7109693E+00
   4.4496327E-04   7.2847902E+04   -1.7104075E+00
   4.4701816E-04   7.2276162E+04   -1.7098460E+00
   4.4908253E-04   7.1709095E+04   -1.7092850E+00
   4.5115644E-04   7.1146660E+04   -1.7087244E+00
   4.5323993E-04   7.0588820E+04   -1.7081642E+00
   4.5533304E-04   7.0035534E+04   -1.7076045E+00
   4.5743582E-04   6.9486764E+04   -1.7070452E+00
   4.5954830E-04   6.8942472E+04   -1.7064863E+00
   4.6167054E-04   6.8402619E+04   -1.7059279E+00
   4.6380259E-04   6.7867168E+04   -1.7053699E+00
   4.6594448E-04   6.7336081E+04   -1.7048124E+00
   4.6809626E-04   6.6809322E+04   -1.7042554E+00
   4.7025797E-04   6.6286853E+04   -1.7036988E+00
   4.7242967E-04   6.5768640E+04   -1.7031427E+00
   4.7461140E-04   6.5254644E+04   -1.7025871E+00
   4.7680321E-04   6.4744831E+04   -1.7020319E+00
   4.7900514E-04   6.4239165E+04   -1.7014773E+00
   4.8121723E-04   6.3737612E+04   -1.7009231E+00
   4.8343954E-04   6.3240136E+04   -1.7003695E+00
   4.8567212E-04   6.2746703E+04   -1.6998163E+00
   4.8791500E-04   6.2257278E+04   -1.6992637E+00
   4.9016825E-04   6.1771828E+04   -1.6987116E+00
   4.9243189E-04   6.1290319E+04   -1.6981600E+00
   4.9470600E-04   6.0812718E+04   -1.6976089E+00
   4.9699060E-04   6.0338992E+04   -1.6970583E+00
   4.9928575E-04   5.9869108E+04   -1.6965083E+00
   5.0159151E-04   5.9403033E+04   -1.6959589E+00
   5.0390791E-04   5.8940736E+04   -1.6954099E+00
   5.0623501E-04   5.8482185E+04   -1.6948616E+00
   5.0857286E-04   5.8027347E+04   -1.6943137E+00
   5.1092150E-04   5.7576193E+04   -1.6937665E+00
   5.1328099E-04   5.7128690E+04   -1.6932198E+00
   5.1565137E-04   5.6684807E+04   -1.6926737E+00
   5.1803270E-04   5.6244516E+04   -1.6921281E+00
   5.2042503E-04   5.5807784E+04   -1.6915832E+00
   5.2282841E-04   5.5374582E+04   -1.6910388E+00
   5.2524289E-04   5.4944881E+04   -1.6904950E+00
   5.2766851E-04   5.4518651E+04   -1.6899518E+00
   5.3010534E-04   5.4095862E+04   -1.6894092E+00
   5.3255342E-04   5.3676487E+04   -1.6888672E+00
   5.3501281E-04   5.3260495E+04   -1.6883258E+00
   5.3748356E-04   5.2847859E+04   -1.6877851E+00
   5.3996571E-04   5.2438551E+04   -1.6872449E+00
   5.4245933E-04   5.2032542E+04   -1.6867054E+00
   5.4496446E-04   5.1629805E+04   -1.6861665E+00
   5.4748117E-04   5.1230312E+04   -1.6856282E+00
   5.5000949E-04   5.0834037E+04   -1.6850906E+00
   5.5254949E-04   5.0440951E+04   -1.6845536E+00
   5.5510123E-04   5.0051029E+04   -1.6840173E+00
   5.5766474E-04   4.9664244E+04   -1.6834816E+00
   5.6024010E-04   4.9280570E+04   -1.6829465E+00
   5.6282734E-04   4.8899979E+04   -1.6824122E+00
   5.6542654E-04   4.8522448E+04   -1.6818785E+00
   5.6803774E-04   4.8147949E+04   -1.6813454E+00
   5.7066099E-04   4.7776459E+04   -1.6808130E+00
   5.7329637E-04   4.7407950E+04   -1.6802813E+00
   5.7594391E-04   4.7042400E+04   -1.6797503E+00
   5.7860368E-04   4.6679782E+04   -1.6792200E+00
   5.8127573E-04   4.6320072E+04   -1.6786904E+00
   5.8396012E-04   4.5963247E+04   -1.6781614E+00
   5.8665691E-04   4.5609281E+04   -1.6776332E+00
   5.8936616E-04   4.5258151E+04   -1.6771056E+00
   5.9208791E-04   4.4909834E+04   -1.6765788E+00
   5.9482223E-04   4.4564305E+04   -1.6760527E+00
   5.9756919E-04   4.4221542E+04   -1.6755273E+00
   6.0032882E-04   4.3881521E+04   -1.6750026E+00
   6.0310120E-04   4.3544220E+04   -1.6744786E+00
   6.0588639E-04   4.3209616E+04   -1.6739554E+00
   6.0868443E-04   4.2877687E+04   -1.6734329E+00
   6.1149540E-04   4.2548409E+04   -1.6729111E+00
   6.1431935E-04   4.2221762E+04   -1.6723901E+00
   6.1715634E-04   4.1897723E+04   -1.6718698E+00
   6.2000644E-04   4.1576270E+04   -1.6713502E+00
   6.2286969E-04   4.1257383E+04   -1.6708315E+00
