#        a       HoverH0(a)       dlogHdloga_of_a(a)
   1.0000000E-04   1.1630731E+06   -1.8592644E+00
   1.0046181E-04   1.1531534E+06   -1.8587980E+00
   1.0092575E-04   1.1433208E+06   -1.8583307E+00
   1.0139184E-04   1.1335744E+06   -1.8578624E+00
   1.0186008E-04   1.1239136E+06   -1.8573932E+00
   1.0233048E-04   1.1143375E+06   -1.8569231E+00
   1.0280305E-04   1.1048454E+06   -1.8564520E+00
   1.0327781E-04   1.0954366E+06   -1.8559800E+00
   1.0375475E-04   1.0861102E+06   -1.8555071E+00
   1.0423390E-04   1.0768656E+06   -1.8550333E+00
   1.0471527E-04   1.0677020E+06   -1.8545585E+00
   1.0519885E-04   1.0586187E+06   -1.8540829E+00
   1.0568467E-04   1.0496149E+06   -1.8536063E+00
   1.0617274E-04   1.0406901E+06   -1.8531288E+00
   1.0666305E-04   1.0318434E+06   -1.8526504E+00
   1.0715563E-04   1.0230741E+06   -1.8521711E+00
   1.0765049E-04   1.0143817E+06   -1.8516909E+00
   1.0814763E-04   1.0057653E+06   -1.8512098E+00
   1.0864707E-04   9.9722429E+05   -1.8507278E+00
   1.0914881E-04   9.8875803E+05   -1.8502449E+00
   1.0965287E-04   9.8036584E+05   -1.8497611E+00
   1.1015926E-04   9.7204704E+05   -1.8492764E+00
   1.1066799E-04   9.6380098E+05   -1.8487908E+00
   1.1117906E-04   9.5562701E+05   -1.8483044E+00
   1.1169250E-04   9.4752450E+05   -1.8478170E+00
   1.1220831E-04   9.3949279E+05   -1.8473288E+00
   1.1272650E-04   9.3153126E+05   -1.8468397E+00
   1.1324708E-04   9.2363929E+05   -1.8463497E+00
   1.1377007E-04   9.1581624E+05   -1.8458589E+00
   1.1429547E-04   9.0806152E+05   -1.8453672E+00
   1.1482330E-04   9.0037449E+05   -1.8448746E+00
   1.1535356E-04   8.9275457E+05   -1.8443812E+00
   1.1588628E-04   8.8520115E+05   -1.8438869E+00
   1.1642145E-04   8.7771364E+05   -1.8433917E+00
   1.1695910E-04   8.7029144E+05   -1.8428957E+00
   1.1749923E-04   8.6293399E+05   -1.8423989E+00
   1.1804185E-04   8.5564070E+05   -1.8419012E+00
   1.1858698E-04   8.4841099E+05   -1.8414026E+00
   1.1913463E-04   8.4124430E+05   -1.8409033E+00
   1.1968481E-04   8.3414008E+05   -1.8404030E+00
   1.2023752E-04   8.2709775E+05   -1.8399020E+00
   1.2079279E-04   8.2011678E+05   -1.8394001E+00
   1.2135063E-04   8.1319662E+05   -1.8388974E+00
   1.2191104E-04   8.0633671E+05   -1.8383938E+00
   1.2247403E-04   7.9953653E+05   -1.8378895E+00
   1.2303963E-04   7.9279554E+05   -1.8373843E+00
   1.2360784E-04   7.8611322E+05   -1.8368783E+00
   1.2417868E-04   7.7948903E+05   -1.8363715E+00
   1.2475215E-04   7.7292248E+05   -1.8358639E+00
   1.2532826E-04   7.6641303E+05   -1.8353555E+00
   1.2590704E-04   7.5996019E+05   -1.8348462E+00
   1.2648850E-04   7.5356345E+05   -1.8343362E+00
   1.2707263E-04   7.4722230E+05   -1.8338254E+00
   1.2765947E-04   7.4093627E+05   -1.8333138E+00
   1.2824901E-04   7.3470485E+05   -1.8328014E+00
   1.2884128E-04   7.2852755E+05   -1.8322883E+00
   1.2943628E-04   7.2240391E+05   -1.8317743E+00
   1.3003403E-04   7.1633343E+05   -1.8312596E+00
   1.3063454E-04   7.1031565E+05   -1.8307441E+00
   1.3123783E-04   7.0435010E+05   -1.8302279E+00
   1.3184390E-04   6.9843631E+05   -1.8297108E+00
   1.3245277E-04   6.9257383E+05   -1.8291930E+00
   1.3306445E-04   6.8676219E+05   -1.8286745E+00
   1.3367895E-04   6.8100095E+05   -1.8281552E+00
   1.3429630E-04   6.7528966E+05   -1.8276352E+00
   1.3491649E-04   6.6962787E+05   -1.8271144E+00
   1.3553955E-04   6.6401515E+05   -1.8265929E+00
   1.3616548E-04   6.5845105E+05   -1.8260706E+00
   1.3679431E-04   6.5293515E+05   -1.8255476E+00
   1.3742604E-04   6.4746702E+05   -1.8250239E+00
   1.3806069E-04   6.4204624E+05   -1.8244994E+00
   1.3869827E-04   6.3667238E+05   -1.8239742E+00
   1.3933879E-04   6.3134502E+05   -1.8234484E+00
   1.3998227E-04   6.2606376E+05   -1.8229218E+00
   1.4062872E-04   6.2082819E+05   -1.8223944E+00
   1.4127816E-04   6.1563789E+05   -1.8218664E+00
   1.4193060E-04   6.1049247E+05   -1.8213377E+00
   1.4258605E-04   6.0539154E+05   -1.8208083E+00
   1.4324453E-04   6.0033469E+05   -1.8202782E+00
   1.4390605E-04   5.9532153E+05   -1.8197474E+00
   1.4457062E-04   5.9035168E+05   -1.8192159E+00
   1.4523826E-04   5.8542476E+05   -1.8186838E+00
   1.4590899E-04   5.8054038E+05   -1.8181510E+00
   1.4658281E-04   5.7569817E+05   -1.8176175E+00
   1.4725974E-04   5.7089775E+05   -1.8170833E+00
   1.4793981E-04   5.6613875E+05   -1.8165485E+00
   1.4862301E-04   5.6142080E+05   -1.8160130E+00
   1.4930936E-04   5.5674355E+05   -1.8154769E+00
   1.4999889E-04   5.5210663E+05   -1.8149401E+00
   1.5069160E-04   5.4750968E+05   -1.8144027E+00
   1.5138751E-04   5.4295235E+05   -1.8138646E+00
   1.5208663E-04   5.3843429E+05   -1.8133260E+00
   1.5278899E-04   5.3395516E+05   -1.8127866E+00
   1.5349458E-04   5.2951460E+05   -1.8122467E+00
   1.5420343E-04   5.2511228E+05   -1.8117061E+00
   1.5491556E-04   5.2074786E+05   -1.8111649E+00
   1.5563098E-04   5.1642100E+05   -1.8106232E+00
   1.5634970E-04   5.1213137E+05   -1.8100808E+00
   1.5707174E-04   5.0787864E+05   -1.8095378E+00
   1.5779711E-04   5.0366249E+05   -1.8089942E+00
   1.5852584E-04   4.9948259E+05   -1.8084500E+00
   1.5925792E-04   4.9533862E+05   -1.8079052E+00
   1.5999339E-04   4.9123026E+05   -1.8073598E+00
   1.6073226E-04   4.8715721E+05   -1.8068139E+00
   1.6147454E-04   4.8311914E+05   -1.8062674E+00
   1.6222024E-04   4.7911575E+05   -1.8057203E+00
   1.6296939E-04   4.7514673E+05   -1.8051727E+00
   1.6372200E-04   4.7121179E+05   -1.8046245E+00
   1.6447809E-04   4.6731061E+05   -1.8040758E+00
   1.6523767E-04   4.6344290E+05   -1.8035265E+00
   1.6600075E-04   4.5960837E+05   -1.8029767E+00
   1.6676736E-04   4.5580672E+05   -1.8024263E+00
   1.6753751E-04   4.5203766E+05   -1.8018754E+00
   1.6831122E-04   4.4830090E+05   -1.8013239E+00
   1.6908849E-04   4.4459617E+05   -1.8007720E+00
   1.6986936E-04   4.4092317E+05   -1.8002195E+00
   1.7065384E-04   4.3728163E+05   -1.7996665E+00
   1.7144193E-04   4.3367127E+05   -1.7991131E+00
   1.7223367E-04   4.3009182E+05   -1.7985591E+00
   1.7302906E-04   4.2654300E+05   -1.7980046E+00
   1.7382813E-04   4.2302454E+05   -1.7974496E+00
   1.7463089E-04   4.1953619E+05   -1.7968942E+00
   1.7543735E-04   4.1607766E+05   -1.7963382E+00
   1.7624754E-04   4.1264870E+05   -1.7957818E+00
   1.7706147E-04   4.0924905E+05   -1.7952249E+00
   1.7787916E-04   4.0587844E+05   -1.7946676E+00
   1.7870062E-04   4.0253664E+05   -1.7941097E+00
   1.7952588E-04   3.9922337E+05   -1.7935515E+00
   1.8035495E-04   3.9593840E+05   -1.7929928E+00
   1.8118785E-04   3.9268146E+05   -1.7924336E+00
   1.8202459E-04   3.8945232E+05   -1.7918740E+00
   1.8286520E-04   3.8625073E+05   -1.7913140E+00
   1.8370969E-04   3.8307645E+05   -1.7907535E+00
   1.8455808E-04   3.7992924E+05   -1.7901927E+00
   1.8541039E-04   3.7680886E+05   -1.7896314E+00
   1.8626663E-04   3.7371507E+05   -1.7890697E+00
   1.8712683E-04   3.7064765E+05   -1.7885076E+00
   1.8799100E-04   3.6760635E+05   -1.7879451E+00
   1.8885917E-04   3.6459096E+05   -1.7873822E+00
   1.8973134E-04   3.6160123E+05   -1.7868189E+00
   1.9060754E-04   3.5863696E+05   -1.7862552E+00
   1.9148778E-04   3.5569791E+05   -1.7856912E+00
   1.9237209E-04   3.5278386E+05   -1.7851267E+00
   1.9326049E-04   3.4989459E+05   -1.7845620E+00
   1.9415299E-04   3.4702989E+05   -1.7839968E+00
   1.9504960E-04   3.4418954E+05   -1.7834313E+00
   1.9595036E-04   3.4137333E+05   -1.7828655E+00
   1.9685528E-04   3.3858105E+05   -1.7822993E+00
   1.9776438E-04   3.3581248E+05   -1.7817327E+00
   1.9867768E-04   3.3306742E+05   -1.7811659E+00
   1.9959519E-04   3.3034566E+05   -1.7805987E+00
   2.0051694E-04   3.2764700E+05   -1.7800312E+00
   2.0144295E-04   3.2497123E+05   -1.7794634E+00
   2.0237324E-04   3.2231816E+05   -1.7788952E+00
   2.0330782E-04   3.1968759E+05   -1.7783268E+00
   2.0424671E-04   3.1707931E+05   -1.7777581E+00
   2.0518995E-04   3.1449315E+05   -1.7771891E+00
   2.0613754E-04   3.1192889E+05   -1.7766198E+00
   2.0708950E-04   3.0938635E+05   -1.7760502E+00
   2.0804586E-04   3.0686534E+05   -1.7754803E+00
   2.0900664E-04   3.0436568E+05   -1.7749102E+00
   2.0997185E-04   3.0188717E+05   -1.7743398E+00
   2.1094152E-04   2.9942963E+05   -1.7737691E+00
   2.1191567E-04   2.9699287E+05   -1.7731983E+00
   2.1289432E-04   2.9457672E+05   -1.7726271E+00
   2.1387749E-04   2.9218100E+05   -1.7720557E+00
   2.1486520E-04   2.8980552E+05   -1.7714841E+00
   2.1585747E-04   2.8745012E+05   -1.7709123E+00
   2.1685432E-04   2.8511461E+05   -1.7703402E+00
   2.1785578E-04   2.8279882E+05   -1.7697680E+00
   2.1886186E-04   2.8050257E+05   -1.7691955E+00
   2.1987259E-04   2.7822571E+05   -1.7686228E+00
   2.2088798E-04   2.7596806E+05   -1.7680499E+00
   2.2190807E-04   2.7372945E+05   -1.7674768E+00
   2.2293286E-04   2.7150972E+05   -1.7669036E+00
   2.2396239E-04   2.6930870E+05   -1.7663301E+00
   2.2499667E-04   2.6712622E+05   -1.7657565E+00
   2.2603573E-04   2.6496214E+05   -1.7651827E+00
   2.2707958E-04   2.6281628E+05   -1.7646088E+00
   2.2812826E-04   2.6068849E+05   -1.7640347E+00
   2.2918178E-04   2.5857861E+05   -1.7634605E+00
   2.3024017E-04   2.5648648E+05   -1.7628861E+00
   2.3130344E-04   2.5441196E+05   -1.7623116E+00
   2.3237162E-04   2.5235488E+05   -1.7617369E+00
   2.3344474E-04   2.5031510E+05   -1.7611621E+00
   2.3452281E-04   2.4829246E+05   -1.7605872E+00
   2.3560586E-04   2.4628682E+05   -1.7600122E+00
   2.3669392E-04   2.4429803E+05   -1.7594371E+00
   2.3778699E-04   2.4232594E+05   -1.7588619E+00
   2.3888512E-04   2.4037041E+05   -1.7582866E+00
   2.3998831E-04   2.3843129E+05   -1.7577112E+00
   2.4109661E-04   2.3650844E+05   -1.7571357E+00
   2.4221001E-04   2.3460172E+05   -1.7565602E+00
   2.4332857E-04   2.3271099E+05   -1.7559845E+00
   2.4445228E-04   2.3083610E+05   -1.7554088E+00
   2.4558119E-04   2.2897693E+05   -1.7548331E+00
   2.4671531E-04   2.2713334E+05   -1.7542573E+00
   2.4785467E-04   2.2530519E+05   -1.7536815E+00
   2.4899928E-04   2.2349235E+05   -1.7531056E+00
   2.5014919E-04   2.2169468E+05   -1.7525297E+00
   2.5130440E-04   2.1991205E+05   -1.7519537E+00
   2.5246495E-04   2.1814434E+05   -1.7513777E+00
   2.5363086E-04   2.1639141E+05   -1.7508018E+00
   2.5480216E-04   2.1465314E+05   -1.7502258E+00
   2.5597886E-04   2.1292939E+05   -1.7496498E+00
   2.5716100E-04   2.1122005E+05   -1.7490738E+00
   2.5834859E-04   2.0952498E+05   -1.7484978E+00
   2.5954168E-04   2.0784407E+05   -1.7479218E+00
   2.6074027E-04   2.0617720E+05   -1.7473459E+00
   2.6194439E-04   2.0452423E+05   -1.7467700E+00
   2.6315408E-04   2.0288505E+05   -1.7461941E+00
   2.6436935E-04   2.0125955E+05   -1.7456183E+00
   2.6559024E-04   1.9964760E+05   -1.7450425E+00
   2.6681676E-04   1.9804908E+05   -1.7444667E+00
   2.6804895E-04   1.9646389E+05   -1.7438910E+00
   2.6928683E-04   1.9489190E+05   -1.7433154E+00
   2.7053042E-04   1.9333300E+05   -1.7427399E+00
   2.7177976E-04   1.9178707E+05   -1.7421644E+00
   2.7303487E-04   1.9025402E+05   -1.7415890E+00
   2.7429577E-04   1.8873372E+05   -1.7410137E+00
   2.7556250E-04   1.8722606E+05   -1.7404385E+00
   2.7683507E-04   1.8573094E+05   -1.7398634E+00
   2.7811353E-04   1.8424825E+05   -1.7392884E+00
   2.7939788E-04   1.8277787E+05   -1.7387135E+00
   2.8068817E-04   1.8131972E+05   -1.7381387E+00
   2.8198442E-04   1.7987367E+05   -1.7375641E+00
   2.8328665E-04   1.7843962E+05   -1.7369896E+00
   2.8459490E-04   1.7701748E+05   -1.7364152E+00
   2.8590919E-04   1.7560714E+05   -1.7358410E+00
   2.8722955E-04   1.7420849E+05   -1.7352669E+00
   2.8855600E-04   1.7282144E+05   -1.7346930E+00
   2.8988859E-04   1.7144589E+05   -1.7341192E+00
   2.9122732E-04   1.7008173E+05   -1.7335456E+00
   2.9257224E-04   1.6872888E+05   -1.7329722E+00
   2.9392337E-04   1.6738723E+05   -1.7323990E+00
   2.9528074E-04   1.6605668E+05   -1.7318259E+00
   2.9664438E-04   1.6473715E+05   -1.7312530E+00
   2.9801431E-04   1.6342853E+05   -1.7306804E+00
   2.9939057E-04   1.6213074E+05   -1.7301079E+00
   3.0077319E-04   1.6084368E+05   -1.7295356E+00
   3.0216219E-04   1.5956725E+05   -1.7289636E+00
   3.0355761E-04   1.5830137E+05   -1.7283918E+00
   3.0495947E-04   1.5704595E+05   -1.7278202E+00
   3.0636780E-04   1.5580089E+05   -1.7272488E+00
   3.0778264E-04   1.5456611E+05   -1.7266777E+00
   3.0920401E-04   1.5334152E+05   -1.7261068E+00
   3.1063195E-04   1.5212704E+05   -1.7255362E+00
   3.1206648E-04   1.5092256E+05   -1.7249658E+00
   3.1350764E-04   1.4972802E+05   -1.7243957E+00
   3.1495545E-04   1.4854332E+05   -1.7238259E+00
   3.1640994E-04   1.4736839E+05   -1.7232563E+00
   3.1787116E-04   1.4620313E+05   -1.7226871E+00
   3.1933912E-04   1.4504746E+05   -1.7221181E+00
   3.2081386E-04   1.4390131E+05   -1.7215494E+00
   3.2229541E-04   1.4276459E+05   -1.7209809E+00
   3.2378381E-04   1.4163722E+05   -1.7204128E+00
   3.2527908E-04   1.4051911E+05   -1.7198450E+00
   3.2678125E-04   1.3941020E+05   -1.7192776E+00
   3.2829036E-04   1.3831041E+05   -1.7187104E+00
   3.2980644E-04   1.3721964E+05   -1.7181436E+00
   3.3132952E-04   1.3613784E+05   -1.7175771E+00
   3.3285963E-04   1.3506491E+05   -1.7170109E+00
   3.3439681E-04   1.3400079E+05   -1.7164451E+00
   3.3594109E-04   1.3294540E+05   -1.7158796E+00
   3.3749250E-04   1.3189867E+05   -1.7153145E+00
   3.3905108E-04   1.3086052E+05   -1.7147498E+00
   3.4061685E-04   1.2983087E+05   -1.7141854E+00
   3.4218986E-04   1.2880967E+05   -1.7136213E+00
   3.4377013E-04   1.2779683E+05   -1.7130577E+00
   3.4535769E-04   1.2679228E+05   -1.7124945E+00
   3.4695259E-04   1.2579595E+05   -1.7119316E+00
   3.4855485E-04   1.2480778E+05   -1.7113691E+00
   3.5016452E-04   1.2382769E+05   -1.7108070E+00
   3.5178161E-04   1.2285561E+05   -1.7102454E+00
   3.5340618E-04   1.2189148E+05   -1.7096841E+00
   3.5503824E-04   1.2093523E+05   -1.7091233E+00
   3.5667785E-04   1.1998679E+05   -1.7085629E+00
   3.5832502E-04   1.1904610E+05   -1.7080029E+00
   3.5997981E-04   1.1811308E+05   -1.7074433E+00
   3.6164223E-04   1.1718769E+05   -1.7068842E+00
   3.6331233E-04   1.1626984E+05   -1.7063255E+00
   3.6499015E-04   1.1535947E+05   -1.7057673E+00
   3.6667571E-04   1.1445653E+05   -1.7052095E+00
   3.6836906E-04   1.1356095E+05   -1.7046522E+00
   3.7007022E-04   1.1267266E+05   -1.7040953E+00
   3.7177925E-04   1.1179161E+05   -1.7035390E+00
   3.7349616E-04   1.1091774E+05   -1.7029830E+00
   3.7522101E-04   1.1005097E+05   -1.7024276E+00
   3.7695382E-04   1.0919126E+05   -1.7018727E+00
   3.7869463E-04   1.0833854E+05   -1.7013182E+00
   3.8044348E-04   1.0749276E+05   -1.7007643E+00
   3.8220041E-04   1.0665385E+05   -1.7002108E+00
   3.8396545E-04   1.0582175E+05   -1.6996579E+00
   3.8573864E-04   1.0499642E+05   -1.6991055E+00
   3.8752002E-04   1.0417779E+05   -1.6985536E+00
   3.8930963E-04   1.0336580E+05   -1.6980022E+00
   3.9110750E-04   1.0256040E+05   -1.6974513E+00
   3.9291368E-04   1.0176154E+05   -1.6969010E+00
   3.9472820E-04   1.0096916E+05   -1.6963512E+00
   3.9655109E-04   1.0018319E+05   -1.6958019E+00
   3.9838241E-04   9.9403602E+04   -1.6952532E+00
   4.0022218E-04   9.8630326E+04   -1.6947051E+00
   4.0207045E-04   9.7863312E+04   -1.6941575E+00
   4.0392725E-04   9.7102508E+04   -1.6936105E+00
   4.0579263E-04   9.6347862E+04   -1.6930640E+00
   4.0766662E-04   9.5599320E+04   -1.6925181E+00
   4.0954927E-04   9.4856833E+04   -1.6919728E+00
   4.1144061E-04   9.4120349E+04   -1.6914281E+00
   4.1334068E-04   9.3389817E+04   -1.6908839E+00
   4.1524953E-04   9.2665187E+04   -1.6903404E+00
   4.1716720E-04   9.1946411E+04   -1.6897974E+00
   4.1909372E-04   9.1233437E+04   -1.6892551E+00
   4.2102914E-04   9.0526218E+04   -1.6887133E+00
   4.2297350E-04   8.9824706E+04   -1.6881722E+00
   4.2492683E-04   8.9128851E+04   -1.6876317E+00
   4.2688919E-04   8.8438608E+04   -1.6870918E+00
   4.2886061E-04   8.7753928E+04   -1.6865525E+00
   4.3084113E-04   8.7074766E+04   -1.6860139E+00
   4.3283080E-04   8.6401074E+04   -1.6854758E+00
   4.3482966E-04   8.5732806E+04   -1.6849385E+00
   4.3683775E-04   8.5069918E+04   -1.6844017E+00
   4.3885511E-04   8.4412364E+04   -1.6838657E+00
   4.4088179E-04   8.3760099E+04   -1.6833302E+00
   4.4291783E-04   8.3113079E+04   -1.6827955E+00
   4.4496327E-04   8.2471260E+04   -1.6822613E+00
   4.4701816E-04   8.1834599E+04   -1.6817279E+00
   4.4908253E-04   8.1203052E+04   -1.6811951E+00
   4.5115644E-04   8.0576577E+04   -1.6806630E+00
   4.5323993E-04   7.9955131E+04   -1.6801316E+00
   4.5533304E-04   7.9338672E+04   -1.6796009E+00
   4.5743582E-04   7.8727158E+04   -1.6790708E+00
   4.5954830E-04   7.8120548E+04   -1.6785414E+00
   4.6167054E-04   7.7518802E+04   -1.6780128E+00
   4.6380259E-04   7.6921877E+04   -1.6774848E+00
   4.6594448E-04   7.6329735E+04   -1.6769575E+00
   4.6809626E-04   7.5742335E+04   -1.6764310E+00
   4.7025797E-04   7.5159637E+04   -1.6759051E+00
   4.7242967E-04   7.4581603E+04   -1.6753800E+00
   4.7461140E-04   7.4008193E+04   -1.6748556E+00
   4.7680321E-04   7.3439369E+04   -1.6743319E+00
   4.7900514E-04   7.2875093E+04   -1.6738090E+00
   4.8121723E-04   7.2315327E+04   -1.6732868E+00
   4.8343954E-04   7.1760032E+04   -1.6727653E+00
   4.8567212E-04   7.1209173E+04   -1.6722446E+00
   4.8791500E-04   7.0662712E+04   -1.6717246E+00
   4.9016825E-04   7.0120612E+04   -1.6712053E+00
   4.9243189E-04   6.9582838E+04   -1.6706868E+00
   4.9470600E-04   6.9049352E+04   -1.6701691E+00
   4.9699060E-04   6.8520121E+04   -1.6696521E+00
   4.9928575E-04   6.7995107E+04   -1.6691359E+00
   5.0159151E-04   6.7474276E+04   -1.6686205E+00
   5.0390791E-04   6.6957594E+04   -1.6681058E+00
   5.0623501E-04   6.6445025E+04   -1.6675919E+00
   5.0857286E-04   6.5936537E+04   -1.6670788E+00
   5.1092150E-04   6.5432094E+04   -1.6665664E+00
   5.1328099E-04   6.4931664E+04   -1.6660549E+00
   5.1565137E-04   6.4435213E+04   -1.6655441E+00
   5.1803270E-04   6.3942708E+04   -1.6650342E+00
   5.2042503E-04   6.3454116E+04   -1.6645250E+00
   5.2282841E-04   6.2969405E+04   -1.6640166E+00
   5.2524289E-04   6.2488544E+04   -1.6635091E+00
   5.2766851E-04   6.2011499E+04   -1.6630023E+00
   5.3010534E-04   6.1538239E+04   -1.6624964E+00
   5.3255342E-04   6.1068734E+04   -1.6619912E+00
   5.3501281E-04   6.0602951E+04   -1.6614869E+00
   5.3748356E-04   6.0140861E+04   -1.6609834E+00
   5.3996571E-04   5.9682432E+04   -1.6604808E+00
   5.4245933E-04   5.9227635E+04   -1.6599789E+00
   5.4496446E-04   5.8776440E+04   -1.6594779E+00
   5.4748117E-04   5.8328816E+04   -1.6589777E+00
   5.5000949E-04   5.7884735E+04   -1.6584784E+00
   5.5254949E-04   5.7444166E+04   -1.6579799E+00
   5.5510123E-04   5.7007082E+04   -1.6574822E+00
   5.5766474E-04   5.6573453E+04   -1.6569854E+00
   5.6024010E-04   5.6143250E+04   -1.6564895E+00
   5.6282734E-04   5.5716447E+04   -1.6559944E+00
   5.6542654E-04   5.5293014E+04   -1.6555001E+00
   5.6803774E-04   5.4872923E+04   -1.6550067E+00
   5.7066099E-04   5.4456148E+04   -1.6545142E+00
   5.7329637E-04   5.4042661E+04   -1.6540225E+00
   5.7594391E-04   5.3632435E+04   -1.6535318E+00
   5.7860368E-04   5.3225444E+04   -1.6530418E+00
   5.8127573E-04   5.2821660E+04   -1.6525528E+00
   5.8396012E-04   5.2421057E+04   -1.6520646E+00
   5.8665691E-04   5.2023609E+04   -1.6515773E+00
   5.8936616E-04   5.1629291E+04   -1.6510909E+00
   5.9208791E-04   5.1238076E+04   -1.6506054E+00
   5.9482223E-04   5.0849939E+04   -1.6501207E+00
   5.9756919E-04   5.0464855E+04   -1.6496370E+00
   6.0032882E-04   5.0082798E+04   -1.6491541E+00
   6.0310120E-04   4.9703745E+04   -1.6486722E+00
   6.0588639E-04   4.9327669E+04   -1.6481911E+00
   6.0868443E-04   4.8954548E+04   -1.6477109E+00
   6.1149540E-04   4.8584356E+04   -1.6472317E+00
   6.1431935E-04   4.8217071E+04   -1.6467533E+00
   6.1715634E-04   4.7852667E+04   -1.6462759E+00
   6.2000644E-04   4.7491122E+04   -1.6457993E+00
   6.2286969E-04   4.7132411E+04   -1.6453237E+00
