#        a       HoverH0(a)       dlogHdloga_of_a(a)
   1.0000000E-04   1.0666293E+06   -1.8580862E+00
   1.0046181E-04   1.0575379E+06   -1.8576175E+00
   1.0092575E-04   1.0485263E+06   -1.8571478E+00
   1.0139184E-04   1.0395937E+06   -1.8566772E+00
   1.0186008E-04   1.0307394E+06   -1.8562056E+00
   1.0233048E-04   1.0219628E+06   -1.8557331E+00
   1.0280305E-04   1.0132631E+06   -1.8552598E+00
   1.0327781E-04   1.0046397E+06   -1.8547854E+00
   1.0375475E-04   9.9609186E+05   -1.8543102E+00
   1.0423390E-04   9.8761890E+05   -1.8538341E+00
   1.0471527E-04   9.7922016E+05   -1.8533570E+00
   1.0519885E-04   9.7089498E+05   -1.8528791E+00
   1.0568467E-04   9.6264270E+05   -1.8524002E+00
   1.0617274E-04   9.5446267E+05   -1.8519204E+00
   1.0666305E-04   9.4635424E+05   -1.8514397E+00
   1.0715563E-04   9.3831678E+05   -1.8509582E+00
   1.0765049E-04   9.3034965E+05   -1.8504757E+00
   1.0814763E-04   9.2245222E+05   -1.8499923E+00
   1.0864707E-04   9.1462386E+05   -1.8495081E+00
   1.0914881E-04   9.0686397E+05   -1.8490229E+00
   1.0965287E-04   8.9917192E+05   -1.8485369E+00
   1.1015926E-04   8.9154712E+05   -1.8480500E+00
   1.1066799E-04   8.8398896E+05   -1.8475622E+00
   1.1117906E-04   8.7649684E+05   -1.8470735E+00
   1.1169250E-04   8.6907019E+05   -1.8465839E+00
   1.1220831E-04   8.6170840E+05   -1.8460935E+00
   1.1272650E-04   8.5441090E+05   -1.8456022E+00
   1.1324708E-04   8.4717713E+05   -1.8451101E+00
   1.1377007E-04   8.4000651E+05   -1.8446170E+00
   1.1429547E-04   8.3289847E+05   -1.8441232E+00
   1.1482330E-04   8.2585247E+05   -1.8436284E+00
   1.1535356E-04   8.1886793E+05   -1.8431328E+00
   1.1588628E-04   8.1194433E+05   -1.8426364E+00
   1.1642145E-04   8.0508110E+05   -1.8421391E+00
   1.1695910E-04   7.9827772E+05   -1.8416409E+00
   1.1749923E-04   7.9153366E+05   -1.8411419E+00
   1.1804185E-04   7.8484837E+05   -1.8406421E+00
   1.1858698E-04   7.7822134E+05   -1.8401415E+00
   1.1913463E-04   7.7165204E+05   -1.8396400E+00
   1.1968481E-04   7.6513997E+05   -1.8391376E+00
   1.2023752E-04   7.5868462E+05   -1.8386345E+00
   1.2079279E-04   7.5228547E+05   -1.8381305E+00
   1.2135063E-04   7.4594204E+05   -1.8376257E+00
   1.2191104E-04   7.3965381E+05   -1.8371201E+00
   1.2247403E-04   7.3342030E+05   -1.8366137E+00
   1.2303963E-04   7.2724102E+05   -1.8361065E+00
   1.2360784E-04   7.2111549E+05   -1.8355985E+00
   1.2417868E-04   7.1504324E+05   -1.8350896E+00
   1.2475215E-04   7.0902377E+05   -1.8345800E+00
   1.2532826E-04   7.0305664E+05   -1.8340696E+00
   1.2590704E-04   6.9714136E+05   -1.8335583E+00
   1.2648850E-04   6.9127748E+05   -1.8330463E+00
   1.2707263E-04   6.8546454E+05   -1.8325335E+00
   1.2765947E-04   6.7970209E+05   -1.8320200E+00
   1.2824901E-04   6.7398969E+05   -1.8315056E+00
   1.2884128E-04   6.6832687E+05   -1.8309905E+00
   1.2943628E-04   6.6271321E+05   -1.8304746E+00
   1.3003403E-04   6.5714826E+05   -1.8299579E+00
   1.3063454E-04   6.5163160E+05   -1.8294405E+00
   1.3123783E-04   6.4616278E+05   -1.8289223E+00
   1.3184390E-04   6.4074140E+05   -1.8284034E+00
   1.3245277E-04   6.3536702E+05   -1.8278837E+00
   1.3306445E-04   6.3003923E+05   -1.8273633E+00
   1.3367895E-04   6.2475762E+05   -1.8268421E+00
   1.3429630E-04   6.1952177E+05   -1.8263202E+00
   1.3491649E-04   6.1433127E+05   -1.8257976E+00
   1.3553955E-04   6.0918573E+05   -1.8252742E+00
   1.3616548E-04   6.0408475E+05   -1.8247501E+00
   1.3679431E-04   5.9902793E+05   -1.8242253E+00
   1.3742604E-04   5.9401488E+05   -1.8236997E+00
   1.3806069E-04   5.8904521E+05   -1.8231734E+00
   1.3869827E-04   5.8411853E+05   -1.8226465E+00
   1.3933879E-04   5.7923447E+05   -1.8221188E+00
   1.3998227E-04   5.7439264E+05   -1.8215904E+00
   1.4062872E-04   5.6959267E+05   -1.8210613E+00
   1.4127816E-04   5.6483419E+05   -1.8205316E+00
   1.4193060E-04   5.6011683E+05   -1.8200011E+00
   1.4258605E-04   5.5544023E+05   -1.8194700E+00
   1.4324453E-04   5.5080402E+05   -1.8189381E+00
   1.4390605E-04   5.4620785E+05   -1.8184056E+00
   1.4457062E-04   5.4165136E+05   -1.8178725E+00
   1.4523826E-04   5.3713421E+05   -1.8173386E+00
   1.4590899E-04   5.3265603E+05   -1.8168041E+00
   1.4658281E-04   5.2821650E+05   -1.8162690E+00
   1.4725974E-04   5.2381525E+05   -1.8157331E+00
   1.4793981E-04   5.1945197E+05   -1.8151967E+00
   1.4862301E-04   5.1512630E+05   -1.8146596E+00
   1.4930936E-04   5.1083792E+05   -1.8141218E+00
   1.4999889E-04   5.0658649E+05   -1.8135834E+00
   1.5069160E-04   5.0237170E+05   -1.8130444E+00
   1.5138751E-04   4.9819320E+05   -1.8125048E+00
   1.5208663E-04   4.9405070E+05   -1.8119645E+00
   1.5278899E-04   4.8994385E+05   -1.8114236E+00
   1.5349458E-04   4.8587236E+05   -1.8108821E+00
   1.5420343E-04   4.8183591E+05   -1.8103400E+00
   1.5491556E-04   4.7783419E+05   -1.8097973E+00
   1.5563098E-04   4.7386688E+05   -1.8092540E+00
   1.5634970E-04   4.6993369E+05   -1.8087101E+00
   1.5707174E-04   4.6603432E+05   -1.8081656E+00
   1.5779711E-04   4.6216846E+05   -1.8076205E+00
   1.5852584E-04   4.5833582E+05   -1.8070748E+00
   1.5925792E-04   4.5453611E+05   -1.8065286E+00
   1.5999339E-04   4.5076903E+05   -1.8059818E+00
   1.6073226E-04   4.4703430E+05   -1.8054345E+00
   1.6147454E-04   4.4333163E+05   -1.8048865E+00
   1.6222024E-04   4.3966074E+05   -1.8043381E+00
   1.6296939E-04   4.3602135E+05   -1.8037890E+00
   1.6372200E-04   4.3241318E+05   -1.8032394E+00
   1.6447809E-04   4.2883596E+05   -1.8026893E+00
   1.6523767E-04   4.2528940E+05   -1.8021387E+00
   1.6600075E-04   4.2177325E+05   -1.8015875E+00
   1.6676736E-04   4.1828723E+05   -1.8010358E+00
   1.6753751E-04   4.1483108E+05   -1.8004836E+00
   1.6831122E-04   4.1140453E+05   -1.7999309E+00
   1.6908849E-04   4.0800733E+05   -1.7993776E+00
   1.6986936E-04   4.0463920E+05   -1.7988239E+00
   1.7065384E-04   4.0129991E+05   -1.7982696E+00
   1.7144193E-04   3.9798919E+05   -1.7977149E+00
   1.7223367E-04   3.9470680E+05   -1.7971596E+00
   1.7302906E-04   3.9145248E+05   -1.7966039E+00
   1.7382813E-04   3.8822598E+05   -1.7960477E+00
   1.7463089E-04   3.8502707E+05   -1.7954911E+00
   1.7543735E-04   3.8185549E+05   -1.7949339E+00
   1.7624754E-04   3.7871101E+05   -1.7943764E+00
   1.7706147E-04   3.7559340E+05   -1.7938183E+00
   1.7787916E-04   3.7250240E+05   -1.7932598E+00
   1.7870062E-04   3.6943779E+05   -1.7927009E+00
   1.7952588E-04   3.6639934E+05   -1.7921415E+00
   1.8035495E-04   3.6338682E+05   -1.7915817E+00
   1.8118785E-04   3.6039999E+05   -1.7910214E+00
   1.8202459E-04   3.5743864E+05   -1.7904607E+00
   1.8286520E-04   3.5450254E+05   -1.7898996E+00
   1.8370969E-04   3.5159146E+05   -1.7893381E+00
   1.8455808E-04   3.4870519E+05   -1.7887762E+00
   1.8541039E-04   3.4584351E+05   -1.7882139E+00
   1.8626663E-04   3.4300621E+05   -1.7876512E+00
   1.8712683E-04   3.4019306E+05   -1.7870881E+00
   1.8799100E-04   3.3740387E+05   -1.7865246E+00
   1.8885917E-04   3.3463841E+05   -1.7859607E+00
   1.8973134E-04   3.3189647E+05   -1.7853965E+00
   1.9060754E-04   3.2917786E+05   -1.7848319E+00
   1.9148778E-04   3.2648237E+05   -1.7842669E+00
   1.9237209E-04   3.2380980E+05   -1.7837016E+00
   1.9326049E-04   3.2115994E+05   -1.7831359E+00
   1.9415299E-04   3.1853259E+05   -1.7825699E+00
   1.9504960E-04   3.1592756E+05   -1.7820035E+00
   1.9595036E-04   3.1334466E+05   -1.7814368E+00
   1.9685528E-04   3.1078368E+05   -1.7808698E+00
   1.9776438E-04   3.0824444E+05   -1.7803024E+00
   1.9867768E-04   3.0572675E+05   -1.7797348E+00
   1.9959519E-04   3.0323041E+05   -1.7791668E+00
   2.0051694E-04   3.0075524E+05   -1.7785985E+00
   2.0144295E-04   2.9830106E+05   -1.7780299E+00
   2.0237324E-04   2.9586768E+05   -1.7774610E+00
   2.0330782E-04   2.9345492E+05   -1.7768919E+00
   2.0424671E-04   2.9106260E+05   -1.7763224E+00
   2.0518995E-04   2.8869054E+05   -1.7757527E+00
   2.0613754E-04   2.8633856E+05   -1.7751827E+00
   2.0708950E-04   2.8400649E+05   -1.7746124E+00
   2.0804586E-04   2.8169416E+05   -1.7740419E+00
   2.0900664E-04   2.7940139E+05   -1.7734711E+00
   2.0997185E-04   2.7712800E+05   -1.7729001E+00
   2.1094152E-04   2.7487384E+05   -1.7723288E+00
   2.1191567E-04   2.7263873E+05   -1.7717573E+00
   2.1289432E-04   2.7042251E+05   -1.7711856E+00
   2.1387749E-04   2.6822501E+05   -1.7706137E+00
   2.1486520E-04   2.6604606E+05   -1.7700415E+00
   2.1585747E-04   2.6388552E+05   -1.7694691E+00
   2.1685432E-04   2.6174321E+05   -1.7688965E+00
   2.1785578E-04   2.5961897E+05   -1.7683237E+00
   2.1886186E-04   2.5751266E+05   -1.7677507E+00
   2.1987259E-04   2.5542411E+05   -1.7671776E+00
   2.2088798E-04   2.5335317E+05   -1.7666042E+00
   2.2190807E-04   2.5129968E+05   -1.7660307E+00
   2.2293286E-04   2.4926350E+05   -1.7654570E+00
   2.2396239E-04   2.4724446E+05   -1.7648831E+00
   2.2499667E-04   2.4524244E+05   -1.7643091E+00
   2.2603573E-04   2.4325726E+05   -1.7637349E+00
   2.2707958E-04   2.4128879E+05   -1.7631606E+00
   2.2812826E-04   2.3933689E+05   -1.7625862E+00
   2.2918178E-04   2.3740140E+05   -1.7620116E+00
   2.3024017E-04   2.3548219E+05   -1.7614369E+00
   2.3130344E-04   2.3357911E+05   -1.7608620E+00
   2.3237162E-04   2.3169203E+05   -1.7602871E+00
   2.3344474E-04   2.2982080E+05   -1.7597120E+00
   2.3452281E-04   2.2796529E+05   -1.7591368E+00
   2.3560586E-04   2.2612536E+05   -1.7585616E+00
   2.3669392E-04   2.2430087E+05   -1.7579862E+00
   2.3778699E-04   2.2249170E+05   -1.7574108E+00
   2.3888512E-04   2.2069770E+05   -1.7568353E+00
   2.3998831E-04   2.1891875E+05   -1.7562597E+00
   2.4109661E-04   2.1715471E+05   -1.7556840E+00
   2.4221001E-04   2.1540546E+05   -1.7551083E+00
   2.4332857E-04   2.1367086E+05   -1.7545325E+00
   2.4445228E-04   2.1195080E+05   -1.7539567E+00
   2.4558119E-04   2.1024514E+05   -1.7533808E+00
   2.4671531E-04   2.0855376E+05   -1.7528049E+00
   2.4785467E-04   2.0687654E+05   -1.7522290E+00
   2.4899928E-04   2.0521335E+05   -1.7516530E+00
   2.5014919E-04   2.0356407E+05   -1.7510771E+00
   2.5130440E-04   2.0192858E+05   -1.7505011E+00
   2.5246495E-04   2.0030677E+05   -1.7499251E+00
   2.5363086E-04   1.9869850E+05   -1.7493491E+00
   2.5480216E-04   1.9710368E+05   -1.7487731E+00
   2.5597886E-04   1.9552217E+05   -1.7481972E+00
   2.5716100E-04   1.9395386E+05   -1.7476212E+00
   2.5834859E-04   1.9239865E+05   -1.7470453E+00
   2.5954168E-04   1.9085641E+05   -1.7464694E+00
   2.6074027E-04   1.8932704E+05   -1.7458935E+00
   2.6194439E-04   1.8781042E+05   -1.7453177E+00
   2.6315408E-04   1.8630645E+05   -1.7447419E+00
   2.6436935E-04   1.8481501E+05   -1.7441662E+00
   2.6559024E-04   1.8333599E+05   -1.7435906E+00
   2.6681676E-04   1.8186929E+05   -1.7430150E+00
   2.6804895E-04   1.8041481E+05   -1.7424395E+00
   2.6928683E-04   1.7897243E+05   -1.7418641E+00
   2.7053042E-04   1.7754205E+05   -1.7412887E+00
   2.7177976E-04   1.7612358E+05   -1.7407135E+00
   2.7303487E-04   1.7471690E+05   -1.7401383E+00
   2.7429577E-04   1.7332191E+05   -1.7395633E+00
   2.7556250E-04   1.7193851E+05   -1.7389883E+00
   2.7683507E-04   1.7056661E+05   -1.7384135E+00
   2.7811353E-04   1.6920611E+05   -1.7378388E+00
   2.7939788E-04   1.6785690E+05   -1.7372642E+00
   2.8068817E-04   1.6651889E+05   -1.7366898E+00
   2.8198442E-04   1.6519198E+05   -1.7361155E+00
   2.8328665E-04   1.6387608E+05   -1.7355413E+00
   2.8459490E-04   1.6257109E+05   -1.7349673E+00
   2.8590919E-04   1.6127692E+05   -1.7343935E+00
   2.8722955E-04   1.5999348E+05   -1.7338198E+00
   2.8855600E-04   1.5872067E+05   -1.7332463E+00
   2.8988859E-04   1.5745840E+05   -1.7326730E+00
   2.9122732E-04   1.5620658E+05   -1.7320998E+00
   2.9257224E-04   1.5496512E+05   -1.7315269E+00
   2.9392337E-04   1.5373394E+05   -1.7309541E+00
   2.9528074E-04   1.5251294E+05   -1.7303816E+00
   2.9664438E-04   1.5130203E+05   -1.7298092E+00
   2.9801431E-04   1.5010114E+05   -1.7292371E+00
   2.9939057E-04   1.4891017E+05   -1.7286651E+00
   3.0077319E-04   1.4772904E+05   -1.7280934E+00
   3.0216219E-04   1.4655766E+05   -1.7275220E+00
   3.0355761E-04   1.4539595E+05   -1.7269507E+00
   3.0495947E-04   1.4424384E+05   -1.7263797E+00
   3.0636780E-04   1.4310122E+05   -1.7258090E+00
   3.0778264E-04   1.4196803E+05   -1.7252385E+00
   3.0920401E-04   1.4084419E+05   -1.7246683E+00
   3.1063195E-04   1.3972961E+05   -1.7240983E+00
   3.1206648E-04   1.3862421E+05   -1.7235286E+00
   3.1350764E-04   1.3752792E+05   -1.7229592E+00
   3.1495545E-04   1.3644066E+05   -1.7223901E+00
   3.1640994E-04   1.3536235E+05   -1.7218212E+00
   3.1787116E-04   1.3429291E+05   -1.7212527E+00
   3.1933912E-04   1.3323227E+05   -1.7206844E+00
   3.2081386E-04   1.3218035E+05   -1.7201165E+00
   3.2229541E-04   1.3113708E+05   -1.7195489E+00
   3.2378381E-04   1.3010239E+05   -1.7189816E+00
   3.2527908E-04   1.2907619E+05   -1.7184146E+00
   3.2678125E-04   1.2805843E+05   -1.7178479E+00
   3.2829036E-04   1.2704902E+05   -1.7172816E+00
   3.2980644E-04   1.2604790E+05   -1.7167156E+00
   3.3132952E-04   1.2505499E+05   -1.7161500E+00
   3.3285963E-04   1.2407022E+05   -1.7155847E+00
   3.3439681E-04   1.2309354E+05   -1.7150198E+00
   3.3594109E-04   1.2212485E+05   -1.7144552E+00
   3.3749250E-04   1.2116411E+05   -1.7138910E+00
   3.3905108E-04   1.2021124E+05   -1.7133272E+00
   3.4061685E-04   1.1926617E+05   -1.7127637E+00
   3.4218986E-04   1.1832883E+05   -1.7122007E+00
   3.4377013E-04   1.1739917E+05   -1.7116380E+00
   3.4535769E-04   1.1647712E+05   -1.7110758E+00
   3.4695259E-04   1.1556260E+05   -1.7105139E+00
   3.4855485E-04   1.1465556E+05   -1.7099525E+00
   3.5016452E-04   1.1375594E+05   -1.7093914E+00
   3.5178161E-04   1.1286366E+05   -1.7088308E+00
   3.5340618E-04   1.1197868E+05   -1.7082706E+00
   3.5503824E-04   1.1110092E+05   -1.7077108E+00
   3.5667785E-04   1.1023032E+05   -1.7071515E+00
   3.5832502E-04   1.0936683E+05   -1.7065926E+00
   3.5997981E-04   1.0851038E+05   -1.7060342E+00
   3.6164223E-04   1.0766091E+05   -1.7054762E+00
   3.6331233E-04   1.0681837E+05   -1.7049187E+00
   3.6499015E-04   1.0598270E+05   -1.7043616E+00
   3.6667571E-04   1.0515383E+05   -1.7038050E+00
   3.6836906E-04   1.0433172E+05   -1.7032489E+00
   3.7007022E-04   1.0351629E+05   -1.7026932E+00
   3.7177925E-04   1.0270750E+05   -1.7021380E+00
   3.7349616E-04   1.0190529E+05   -1.7015834E+00
   3.7522101E-04   1.0110961E+05   -1.7010292E+00
   3.7695382E-04   1.0032039E+05   -1.7004755E+00
   3.7869463E-04   9.9537591E+04   -1.6999223E+00
   3.8044348E-04   9.8761149E+04   -1.6993696E+00
   3.8220041E-04   9.7991013E+04   -1.6988175E+00
   3.8396545E-04   9.7227130E+04   -1.6982658E+00
   3.8573864E-04   9.6469446E+04   -1.6977147E+00
   3.8752002E-04   9.5717911E+04   -1.6971641E+00
   3.8930963E-04   9.4972470E+04   -1.6966141E+00
   3.9110750E-04   9.4233074E+04   -1.6960646E+00
   3.9291368E-04   9.3499671E+04   -1.6955156E+00
   3.9472820E-04   9.2772210E+04   -1.6949672E+00
   3.9655109E-04   9.2050642E+04   -1.6944194E+00
   3.9838241E-04   9.1334916E+04   -1.6938721E+00
   4.0022218E-04   9.0624984E+04   -1.6933253E+00
   4.0207045E-04   8.9920796E+04   -1.6927792E+00
   4.0392725E-04   8.9222305E+04   -1.6922336E+00
   4.0579263E-04   8.8529462E+04   -1.6916886E+00
   4.0766662E-04   8.7842219E+04   -1.6911442E+00
   4.0954927E-04   8.7160530E+04   -1.6906003E+00
   4.1144061E-04   8.6484348E+04   -1.6900571E+00
   4.1334068E-04   8.5813626E+04   -1.6895144E+00
   4.1524953E-04   8.5148318E+04   -1.6889724E+00
   4.1716720E-04   8.4488380E+04   -1.6884310E+00
   4.1909372E-04   8.3833765E+04   -1.6878902E+00
   4.2102914E-04   8.3184430E+04   -1.6873500E+00
   4.2297350E-04   8.2540329E+04   -1.6868104E+00
   4.2492683E-04   8.1901419E+04   -1.6862715E+00
   4.2688919E-04   8.1267656E+04   -1.6857331E+00
   4.2886061E-04   8.0638997E+04   -1.6851955E+00
   4.3084113E-04   8.0015400E+04   -1.6846584E+00
   4.3283080E-04   7.9396821E+04   -1.6841220E+00
   4.3482966E-04   7.8783219E+04   -1.6835863E+00
   4.3683775E-04   7.8174552E+04   -1.6830512E+00
   4.3885511E-04   7.7570779E+04   -1.6825168E+00
   4.4088179E-04   7.6971858E+04   -1.6819830E+00
   4.4291783E-04   7.6377749E+04   -1.6814499E+00
   4.4496327E-04   7.5788411E+04   -1.6809175E+00
   4.4701816E-04   7.5203805E+04   -1.6803858E+00
   4.4908253E-04   7.4623892E+04   -1.6798547E+00
   4.5115644E-04   7.4048631E+04   -1.6793243E+00
   4.5323993E-04   7.3477985E+04   -1.6787946E+00
   4.5533304E-04   7.2911914E+04   -1.6782656E+00
   4.5743582E-04   7.2350380E+04   -1.6777373E+00
   4.5954830E-04   7.1793346E+04   -1.6772097E+00
   4.6167054E-04   7.1240773E+04   -1.6766829E+00
   4.6380259E-04   7.0692625E+04   -1.6761567E+00
   4.6594448E-04   7.0148864E+04   -1.6756312E+00
   4.6809626E-04   6.9609454E+04   -1.6751065E+00
   4.7025797E-04   6.9074359E+04   -1.6745824E+00
   4.7242967E-04   6.8543543E+04   -1.6740592E+00
   4.7461140E-04   6.8016969E+04   -1.6735366E+00
   4.7680321E-04   6.7494603E+04   -1.6730148E+00
   4.7900514E-04   6.6976410E+04   -1.6724937E+00
   4.8121723E-04   6.6462355E+04   -1.6719733E+00
   4.8343954E-04   6.5952404E+04   -1.6714537E+00
   4.8567212E-04   6.5446521E+04   -1.6709349E+00
   4.8791500E-04   6.4944675E+04   -1.6704168E+00
   4.9016825E-04   6.4446830E+04   -1.6698994E+00
   4.9243189E-04   6.3952954E+04   -1.6693829E+00
   4.9470600E-04   6.3463013E+04   -1.6688671E+00
   4.9699060E-04   6.2976975E+04   -1.6683520E+00
   4.9928575E-04   6.2494808E+04   -1.6678378E+00
   5.0159151E-04   6.2016480E+04   -1.6673243E+00
   5.0390791E-04   6.1541957E+04   -1.6668116E+00
   5.0623501E-04   6.1071210E+04   -1.6662996E+00
   5.0857286E-04   6.0604207E+04   -1.6657885E+00
   5.1092150E-04   6.0140916E+04   -1.6652782E+00
   5.1328099E-04   5.9681307E+04   -1.6647686E+00
   5.1565137E-04   5.9225350E+04   -1.6642599E+00
   5.1803270E-04   5.8773013E+04   -1.6637519E+00
   5.2042503E-04   5.8324268E+04   -1.6632448E+00
   5.2282841E-04   5.7879084E+04   -1.6627385E+00
   5.2524289E-04   5.7437432E+04   -1.6622329E+00
   5.2766851E-04   5.6999283E+04   -1.6617282E+00
   5.3010534E-04   5.6564607E+04   -1.6612244E+00
   5.3255342E-04   5.6133377E+04   -1.6607213E+00
   5.3501281E-04   5.5705563E+04   -1.6602191E+00
   5.3748356E-04   5.5281137E+04   -1.6597177E+00
   5.3996571E-04   5.4860072E+04   -1.6592171E+00
   5.4245933E-04   5.4442340E+04   -1.6587173E+00
   5.4496446E-04   5.4027912E+04   -1.6582184E+00
   5.4748117E-04   5.3616763E+04   -1.6577204E+00
   5.5000949E-04   5.3208864E+04   -1.6572232E+00
   5.5254949E-04   5.2804189E+04   -1.6567268E+00
   5.5510123E-04   5.2402712E+04   -1.6562313E+00
   5.5766474E-04   5.2004406E+04   -1.6557367E+00
   5.6024010E-04   5.1609245E+04   -1.6552429E+00
   5.6282734E-04   5.1217203E+04   -1.6547499E+00
   5.6542654E-04   5.0828254E+04   -1.6542579E+00
   5.6803774E-04   5.0442374E+04   -1.6537666E+00
   5.7066099E-04   5.0059536E+04   -1.6532763E+00
   5.7329637E-04   4.9679715E+04   -1.6527868E+00
   5.7594391E-04   4.9302888E+04   -1.6522983E+00
   5.7860368E-04   4.8929029E+04   -1.6518105E+00
   5.8127573E-04   4.8558114E+04   -1.6513237E+00
   5.8396012E-04   4.8190119E+04   -1.6508378E+00
   5.8665691E-04   4.7825020E+04   -1.6503527E+00
   5.8936616E-04   4.7462793E+04   -1.6498685E+00
   5.9208791E-04   4.7103414E+04   -1.6493852E+00
   5.9482223E-04   4.6746860E+04   -1.6489029E+00
   5.9756919E-04   4.6393108E+04   -1.6484214E+00
   6.0032882E-04   4.6042136E+04   -1.6479408E+00
   6.0310120E-04   4.5693919E+04   -1.6474611E+00
   6.0588639E-04   4.5348437E+04   -1.6469823E+00
   6.0868443E-04   4.5005665E+04   -1.6465044E+00
   6.1149540E-04   4.4665583E+04   -1.6460275E+00
   6.1431935E-04   4.4328168E+04   -1.6455514E+00
   6.1715634E-04   4.3993398E+04   -1.6450763E+00
   6.2000644E-04   4.3661252E+04   -1.6446020E+00
   6.2286969E-04   4.3331708E+04   -1.6441287E+00
