#        a       HoverH0(a)       dlogHdloga_of_a(a)
   1.0000000E-04   1.1719309E+06   -1.8926756E+00
   1.0046181E-04   1.1617566E+06   -1.8922867E+00
   1.0092575E-04   1.1516727E+06   -1.8918968E+00
   1.0139184E-04   1.1416784E+06   -1.8915059E+00
   1.0186008E-04   1.1317728E+06   -1.8911140E+00
   1.0233048E-04   1.1219552E+06   -1.8907210E+00
   1.0280305E-04   1.1122248E+06   -1.8903270E+00
   1.0327781E-04   1.1025808E+06   -1.8899320E+00
   1.0375475E-04   1.0930225E+06   -1.8895360E+00
   1.0423390E-04   1.0835489E+06   -1.8891390E+00
   1.0471527E-04   1.0741594E+06   -1.8887409E+00
   1.0519885E-04   1.0648533E+06   -1.8883418E+00
   1.0568467E-04   1.0556297E+06   -1.8879417E+00
   1.0617274E-04   1.0464879E+06   -1.8875406E+00
   1.0666305E-04   1.0374273E+06   -1.8871385E+00
   1.0715563E-04   1.0284470E+06   -1.8867353E+00
   1.0765049E-04   1.0195463E+06   -1.8863311E+00
   1.0814763E-04   1.0107245E+06   -1.8859260E+00
   1.0864707E-04   1.0019810E+06   -1.8855197E+00
   1.0914881E-04   9.9331491E+05   -1.8851125E+00
   1.0965287E-04   9.8472565E+05   -1.8847043E+00
   1.1015926E-04   9.7621250E+05   -1.8842950E+00
   1.1066799E-04   9.6777478E+05   -1.8838848E+00
   1.1117906E-04   9.5941181E+05   -1.8834735E+00
   1.1169250E-04   9.5112290E+05   -1.8830612E+00
   1.1220831E-04   9.4290740E+05   -1.8826479E+00
   1.1272650E-04   9.3476465E+05   -1.8822336E+00
   1.1324708E-04   9.2669399E+05   -1.8818183E+00
   1.1377007E-04   9.1869477E+05   -1.8814019E+00
   1.1429547E-04   9.1076635E+05   -1.8809846E+00
   1.1482330E-04   9.0290809E+05   -1.8805662E+00
   1.1535356E-04   8.9511935E+05   -1.8801469E+00
   1.1588628E-04   8.8739953E+05   -1.8797265E+00
   1.1642145E-04   8.7974799E+05   -1.8793051E+00
   1.1695910E-04   8.7216411E+05   -1.8788827E+00
   1.1749923E-04   8.6464730E+05   -1.8784593E+00
   1.1804185E-04   8.5719695E+05   -1.8780349E+00
   1.1858698E-04   8.4981246E+05   -1.8776095E+00
   1.1913463E-04   8.4249324E+05   -1.8771831E+00
   1.1968481E-04   8.3523869E+05   -1.8767558E+00
   1.2023752E-04   8.2804825E+05   -1.8763274E+00
   1.2079279E-04   8.2092133E+05   -1.8758980E+00
   1.2135063E-04   8.1385737E+05   -1.8754676E+00
   1.2191104E-04   8.0685579E+05   -1.8750362E+00
   1.2247403E-04   7.9991604E+05   -1.8746038E+00
   1.2303963E-04   7.9303756E+05   -1.8741704E+00
   1.2360784E-04   7.8621980E+05   -1.8737360E+00
   1.2417868E-04   7.7946221E+05   -1.8733007E+00
   1.2475215E-04   7.7276425E+05   -1.8728643E+00
   1.2532826E-04   7.6612540E+05   -1.8724270E+00
   1.2590704E-04   7.5954511E+05   -1.8719886E+00
   1.2648850E-04   7.5302286E+05   -1.8715493E+00
   1.2707263E-04   7.4655813E+05   -1.8711090E+00
   1.2765947E-04   7.4015040E+05   -1.8706677E+00
   1.2824901E-04   7.3379917E+05   -1.8702255E+00
   1.2884128E-04   7.2750392E+05   -1.8697822E+00
   1.2943628E-04   7.2126415E+05   -1.8693380E+00
   1.3003403E-04   7.1507936E+05   -1.8688928E+00
   1.3063454E-04   7.0894907E+05   -1.8684466E+00
   1.3123783E-04   7.0287277E+05   -1.8679994E+00
   1.3184390E-04   6.9685000E+05   -1.8675513E+00
   1.3245277E-04   6.9088025E+05   -1.8671022E+00
   1.3306445E-04   6.8496307E+05   -1.8666521E+00
   1.3367895E-04   6.7909798E+05   -1.8662010E+00
   1.3429630E-04   6.7328450E+05   -1.8657490E+00
   1.3491649E-04   6.6752219E+05   -1.8652961E+00
   1.3553955E-04   6.6181057E+05   -1.8648421E+00
   1.3616548E-04   6.5614921E+05   -1.8643872E+00
   1.3679431E-04   6.5053763E+05   -1.8639313E+00
   1.3742604E-04   6.4497541E+05   -1.8634745E+00
   1.3806069E-04   6.3946208E+05   -1.8630167E+00
   1.3869827E-04   6.3399723E+05   -1.8625580E+00
   1.3933879E-04   6.2858041E+05   -1.8620983E+00
   1.3998227E-04   6.2321119E+05   -1.8616377E+00
   1.4062872E-04   6.1788915E+05   -1.8611761E+00
   1.4127816E-04   6.1261385E+05   -1.8607135E+00
   1.4193060E-04   6.0738490E+05   -1.8602501E+00
   1.4258605E-04   6.0220186E+05   -1.8597856E+00
   1.4324453E-04   5.9706433E+05   -1.8593203E+00
   1.4390605E-04   5.9197190E+05   -1.8588540E+00
   1.4457062E-04   5.8692416E+05   -1.8583867E+00
   1.4523826E-04   5.8192073E+05   -1.8579186E+00
   1.4590899E-04   5.7696119E+05   -1.8574495E+00
   1.4658281E-04   5.7204516E+05   -1.8569794E+00
   1.4725974E-04   5.6717224E+05   -1.8565085E+00
   1.4793981E-04   5.6234206E+05   -1.8560366E+00
   1.4862301E-04   5.5755422E+05   -1.8555638E+00
   1.4930936E-04   5.5280835E+05   -1.8550900E+00
   1.4999889E-04   5.4810408E+05   -1.8546154E+00
   1.5069160E-04   5.4344103E+05   -1.8541398E+00
   1.5138751E-04   5.3881883E+05   -1.8536633E+00
   1.5208663E-04   5.3423712E+05   -1.8531859E+00
   1.5278899E-04   5.2969554E+05   -1.8527076E+00
   1.5349458E-04   5.2519372E+05   -1.8522284E+00
   1.5420343E-04   5.2073132E+05   -1.8517483E+00
   1.5491556E-04   5.1630797E+05   -1.8512673E+00
   1.5563098E-04   5.1192333E+05   -1.8507854E+00
   1.5634970E-04   5.0757706E+05   -1.8503026E+00
   1.5707174E-04   5.0326881E+05   -1.8498189E+00
   1.5779711E-04   4.9899824E+05   -1.8493343E+00
   1.5852584E-04   4.9476501E+05   -1.8488488E+00
   1.5925792E-04   4.9056879E+05   -1.8483624E+00
   1.5999339E-04   4.8640925E+05   -1.8478752E+00
   1.6073226E-04   4.8228607E+05   -1.8473870E+00
   1.6147454E-04   4.7819891E+05   -1.8468980E+00
   1.6222024E-04   4.7414746E+05   -1.8464081E+00
   1.6296939E-04   4.7013140E+05   -1.8459174E+00
   1.6372200E-04   4.6615041E+05   -1.8454258E+00
   1.6447809E-04   4.6220417E+05   -1.8449333E+00
   1.6523767E-04   4.5829239E+05   -1.8444399E+00
   1.6600075E-04   4.5441474E+05   -1.8439457E+00
   1.6676736E-04   4.5057093E+05   -1.8434506E+00
   1.6753751E-04   4.4676066E+05   -1.8429547E+00
   1.6831122E-04   4.4298362E+05   -1.8424579E+00
   1.6908849E-04   4.3923952E+05   -1.8419603E+00
   1.6986936E-04   4.3552806E+05   -1.8414619E+00
   1.7065384E-04   4.3184895E+05   -1.8409626E+00
   1.7144193E-04   4.2820191E+05   -1.8404624E+00
   1.7223367E-04   4.2458665E+05   -1.8399614E+00
   1.7302906E-04   4.2100289E+05   -1.8394596E+00
   1.7382813E-04   4.1745034E+05   -1.8389570E+00
   1.7463089E-04   4.1392873E+05   -1.8384535E+00
   1.7543735E-04   4.1043778E+05   -1.8379493E+00
   1.7624754E-04   4.0697722E+05   -1.8374442E+00
   1.7706147E-04   4.0354677E+05   -1.8369382E+00
   1.7787916E-04   4.0014618E+05   -1.8364315E+00
   1.7870062E-04   3.9677516E+05   -1.8359240E+00
   1.7952588E-04   3.9343347E+05   -1.8354156E+00
   1.8035495E-04   3.9012083E+05   -1.8349065E+00
   1.8118785E-04   3.8683700E+05   -1.8343965E+00
   1.8202459E-04   3.8358171E+05   -1.8338858E+00
   1.8286520E-04   3.8035470E+05   -1.8333743E+00
   1.8370969E-04   3.7715574E+05   -1.8328620E+00
   1.8455808E-04   3.7398456E+05   -1.8323489E+00
   1.8541039E-04   3.7084093E+05   -1.8318350E+00
   1.8626663E-04   3.6772459E+05   -1.8313204E+00
   1.8712683E-04   3.6463531E+05   -1.8308049E+00
   1.8799100E-04   3.6157283E+05   -1.8302887E+00
   1.8885917E-04   3.5853693E+05   -1.8297718E+00
   1.8973134E-04   3.5552737E+05   -1.8292541E+00
   1.9060754E-04   3.5254391E+05   -1.8287356E+00
   1.9148778E-04   3.4958633E+05   -1.8282164E+00
   1.9237209E-04   3.4665439E+05   -1.8276964E+00
   1.9326049E-04   3.4374786E+05   -1.8271757E+00
   1.9415299E-04   3.4086651E+05   -1.8266542E+00
   1.9504960E-04   3.3801014E+05   -1.8261320E+00
   1.9595036E-04   3.3517850E+05   -1.8256091E+00
   1.9685528E-04   3.3237139E+05   -1.8250854E+00
   1.9776438E-04   3.2958859E+05   -1.8245610E+00
   1.9867768E-04   3.2682987E+05   -1.8240359E+00
   1.9959519E-04   3.2409503E+05   -1.8235101E+00
   2.0051694E-04   3.2138386E+05   -1.8229835E+00
   2.0144295E-04   3.1869613E+05   -1.8224563E+00
   2.0237324E-04   3.1603165E+05   -1.8219283E+00
   2.0330782E-04   3.1339022E+05   -1.8213997E+00
   2.0424671E-04   3.1077161E+05   -1.8208703E+00
   2.0518995E-04   3.0817564E+05   -1.8203403E+00
   2.0613754E-04   3.0560210E+05   -1.8198095E+00
   2.0708950E-04   3.0305080E+05   -1.8192781E+00
   2.0804586E-04   3.0052153E+05   -1.8187460E+00
   2.0900664E-04   2.9801410E+05   -1.8182133E+00
   2.0997185E-04   2.9552831E+05   -1.8176798E+00
   2.1094152E-04   2.9306399E+05   -1.8171457E+00
   2.1191567E-04   2.9062092E+05   -1.8166109E+00
   2.1289432E-04   2.8819894E+05   -1.8160755E+00
   2.1387749E-04   2.8579784E+05   -1.8155394E+00
   2.1486520E-04   2.8341745E+05   -1.8150027E+00
   2.1585747E-04   2.8105758E+05   -1.8144653E+00
   2.1685432E-04   2.7871805E+05   -1.8139273E+00
   2.1785578E-04   2.7639868E+05   -1.8133887E+00
   2.1886186E-04   2.7409929E+05   -1.8128494E+00
   2.1987259E-04   2.7181970E+05   -1.8123095E+00
   2.2088798E-04   2.6955975E+05   -1.8117690E+00
   2.2190807E-04   2.6731925E+05   -1.8112278E+00
   2.2293286E-04   2.6509804E+05   -1.8106861E+00
   2.2396239E-04   2.6289593E+05   -1.8101437E+00
   2.2499667E-04   2.6071278E+05   -1.8096008E+00
   2.2603573E-04   2.5854840E+05   -1.8090572E+00
   2.2707958E-04   2.5640262E+05   -1.8085131E+00
   2.2812826E-04   2.5427530E+05   -1.8079684E+00
   2.2918178E-04   2.5216626E+05   -1.8074230E+00
   2.3024017E-04   2.5007534E+05   -1.8068771E+00
   2.3130344E-04   2.4800238E+05   -1.8063307E+00
   2.3237162E-04   2.4594723E+05   -1.8057836E+00
   2.3344474E-04   2.4390972E+05   -1.8052360E+00
   2.3452281E-04   2.4188970E+05   -1.8046879E+00
   2.3560586E-04   2.3988702E+05   -1.8041392E+00
   2.3669392E-04   2.3790152E+05   -1.8035899E+00
   2.3778699E-04   2.3593305E+05   -1.8030401E+00
   2.3888512E-04   2.3398146E+05   -1.8024898E+00
   2.3998831E-04   2.3204660E+05   -1.8019389E+00
   2.4109661E-04   2.3012833E+05   -1.8013875E+00
   2.4221001E-04   2.2822649E+05   -1.8008356E+00
   2.4332857E-04   2.2634095E+05   -1.8002831E+00
   2.4445228E-04   2.2447156E+05   -1.7997302E+00
   2.4558119E-04   2.2261817E+05   -1.7991767E+00
   2.4671531E-04   2.2078065E+05   -1.7986227E+00
   2.4785467E-04   2.1895886E+05   -1.7980683E+00
   2.4899928E-04   2.1715265E+05   -1.7975133E+00
   2.5014919E-04   2.1536190E+05   -1.7969579E+00
   2.5130440E-04   2.1358646E+05   -1.7964020E+00
   2.5246495E-04   2.1182620E+05   -1.7958456E+00
   2.5363086E-04   2.1008098E+05   -1.7952887E+00
   2.5480216E-04   2.0835068E+05   -1.7947314E+00
   2.5597886E-04   2.0663516E+05   -1.7941736E+00
   2.5716100E-04   2.0493429E+05   -1.7936153E+00
   2.5834859E-04   2.0324795E+05   -1.7930566E+00
   2.5954168E-04   2.0157600E+05   -1.7924975E+00
   2.6074027E-04   1.9991832E+05   -1.7919379E+00
   2.6194439E-04   1.9827479E+05   -1.7913779E+00
   2.6315408E-04   1.9664527E+05   -1.7908175E+00
   2.6436935E-04   1.9502965E+05   -1.7902566E+00
   2.6559024E-04   1.9342780E+05   -1.7896953E+00
   2.6681676E-04   1.9183961E+05   -1.7891336E+00
   2.6804895E-04   1.9026495E+05   -1.7885715E+00
   2.6928683E-04   1.8870370E+05   -1.7880090E+00
   2.7053042E-04   1.8715575E+05   -1.7874461E+00
   2.7177976E-04   1.8562098E+05   -1.7868828E+00
   2.7303487E-04   1.8409927E+05   -1.7863192E+00
   2.7429577E-04   1.8259051E+05   -1.7857551E+00
   2.7556250E-04   1.8109459E+05   -1.7851907E+00
   2.7683507E-04   1.7961139E+05   -1.7846259E+00
   2.7811353E-04   1.7814080E+05   -1.7840608E+00
   2.7939788E-04   1.7668271E+05   -1.7834953E+00
   2.8068817E-04   1.7523701E+05   -1.7829294E+00
   2.8198442E-04   1.7380360E+05   -1.7823632E+00
   2.8328665E-04   1.7238236E+05   -1.7817967E+00
   2.8459490E-04   1.7097319E+05   -1.7812299E+00
   2.8590919E-04   1.6957598E+05   -1.7806627E+00
   2.8722955E-04   1.6819063E+05   -1.7800951E+00
   2.8855600E-04   1.6681704E+05   -1.7795273E+00
   2.8988859E-04   1.6545509E+05   -1.7789592E+00
   2.9122732E-04   1.6410469E+05   -1.7783907E+00
   2.9257224E-04   1.6276574E+05   -1.7778220E+00
   2.9392337E-04   1.6143814E+05   -1.7772530E+00
   2.9528074E-04   1.6012179E+05   -1.7766837E+00
   2.9664438E-04   1.5881659E+05   -1.7761141E+00
   2.9801431E-04   1.5752244E+05   -1.7755442E+00
   2.9939057E-04   1.5623925E+05   -1.7749740E+00
   3.0077319E-04   1.5496691E+05   -1.7744036E+00
   3.0216219E-04   1.5370535E+05   -1.7738330E+00
   3.0355761E-04   1.5245445E+05   -1.7732621E+00
   3.0495947E-04   1.5121413E+05   -1.7726909E+00
   3.0636780E-04   1.4998430E+05   -1.7721195E+00
   3.0778264E-04   1.4876486E+05   -1.7715479E+00
   3.0920401E-04   1.4755572E+05   -1.7709760E+00
   3.1063195E-04   1.4635680E+05   -1.7704039E+00
   3.1206648E-04   1.4516800E+05   -1.7698316E+00
   3.1350764E-04   1.4398924E+05   -1.7692591E+00
   3.1495545E-04   1.4282043E+05   -1.7686864E+00
   3.1640994E-04   1.4166147E+05   -1.7681135E+00
   3.1787116E-04   1.4051230E+05   -1.7675404E+00
   3.1933912E-04   1.3937281E+05   -1.7669671E+00
   3.2081386E-04   1.3824293E+05   -1.7663936E+00
   3.2229541E-04   1.3712257E+05   -1.7658200E+00
   3.2378381E-04   1.3601165E+05   -1.7652462E+00
   3.2527908E-04   1.3491009E+05   -1.7646722E+00
   3.2678125E-04   1.3381780E+05   -1.7640981E+00
   3.2829036E-04   1.3273471E+05   -1.7635238E+00
   3.2980644E-04   1.3166073E+05   -1.7629494E+00
   3.3132952E-04   1.3059579E+05   -1.7623748E+00
   3.3285963E-04   1.2953981E+05   -1.7618001E+00
   3.3439681E-04   1.2849270E+05   -1.7612253E+00
   3.3594109E-04   1.2745440E+05   -1.7606504E+00
   3.3749250E-04   1.2642482E+05   -1.7600753E+00
   3.3905108E-04   1.2540389E+05   -1.7595002E+00
   3.4061685E-04   1.2439153E+05   -1.7589249E+00
   3.4218986E-04   1.2338767E+05   -1.7583496E+00
   3.4377013E-04   1.2239224E+05   -1.7577741E+00
   3.4535769E-04   1.2140517E+05   -1.7571986E+00
   3.4695259E-04   1.2042637E+05   -1.7566230E+00
   3.4855485E-04   1.1945578E+05   -1.7560473E+00
   3.5016452E-04   1.1849332E+05   -1.7554716E+00
   3.5178161E-04   1.1753894E+05   -1.7548958E+00
   3.5340618E-04   1.1659255E+05   -1.7543199E+00
   3.5503824E-04   1.1565408E+05   -1.7537440E+00
   3.5667785E-04   1.1472348E+05   -1.7531681E+00
   3.5832502E-04   1.1380066E+05   -1.7525921E+00
   3.5997981E-04   1.1288557E+05   -1.7520161E+00
   3.6164223E-04   1.1197813E+05   -1.7514401E+00
   3.6331233E-04   1.1107828E+05   -1.7508640E+00
   3.6499015E-04   1.1018596E+05   -1.7502880E+00
   3.6667571E-04   1.0930109E+05   -1.7497119E+00
   3.6836906E-04   1.0842362E+05   -1.7491359E+00
   3.7007022E-04   1.0755348E+05   -1.7485598E+00
   3.7177925E-04   1.0669060E+05   -1.7479838E+00
   3.7349616E-04   1.0583493E+05   -1.7474078E+00
   3.7522101E-04   1.0498640E+05   -1.7468318E+00
   3.7695382E-04   1.0414495E+05   -1.7462559E+00
   3.7869463E-04   1.0331051E+05   -1.7456800E+00
   3.8044348E-04   1.0248304E+05   -1.7451041E+00
   3.8220041E-04   1.0166246E+05   -1.7445283E+00
   3.8396545E-04   1.0084872E+05   -1.7439525E+00
   3.8573864E-04   1.0004176E+05   -1.7433768E+00
   3.8752002E-04   9.9241518E+04   -1.7428012E+00
   3.8930963E-04   9.8447939E+04   -1.7422257E+00
   3.9110750E-04   9.7660964E+04   -1.7416502E+00
   3.9291368E-04   9.6880538E+04   -1.7410748E+00
   3.9472820E-04   9.6106603E+04   -1.7404995E+00
   3.9655109E-04   9.5339103E+04   -1.7399243E+00
   3.9838241E-04   9.4577982E+04   -1.7393493E+00
   4.0022218E-04   9.3823187E+04   -1.7387743E+00
   4.0207045E-04   9.3074662E+04   -1.7381994E+00
   4.0392725E-04   9.2332354E+04   -1.7376247E+00
   4.0579263E-04   9.1596208E+04   -1.7370501E+00
   4.0766662E-04   9.0866172E+04   -1.7364757E+00
   4.0954927E-04   9.0142192E+04   -1.7359013E+00
   4.1144061E-04   8.9424218E+04   -1.7353272E+00
   4.1334068E-04   8.8712197E+04   -1.7347532E+00
   4.1524953E-04   8.8006078E+04   -1.7341793E+00
   4.1716720E-04   8.7305810E+04   -1.7336056E+00
   4.1909372E-04   8.6611344E+04   -1.7330321E+00
   4.2102914E-04   8.5922628E+04   -1.7324588E+00
   4.2297350E-04   8.5239614E+04   -1.7318856E+00
   4.2492683E-04   8.4562252E+04   -1.7313127E+00
   4.2688919E-04   8.3890495E+04   -1.7307399E+00
   4.2886061E-04   8.3224294E+04   -1.7301673E+00
   4.3084113E-04   8.2563601E+04   -1.7295950E+00
   4.3283080E-04   8.1908369E+04   -1.7290228E+00
   4.3482966E-04   8.1258552E+04   -1.7284509E+00
   4.3683775E-04   8.0614102E+04   -1.7278792E+00
   4.3885511E-04   7.9974973E+04   -1.7273077E+00
   4.4088179E-04   7.9341121E+04   -1.7267365E+00
   4.4291783E-04   7.8712499E+04   -1.7261655E+00
   4.4496327E-04   7.8089063E+04   -1.7255948E+00
   4.4701816E-04   7.7470769E+04   -1.7250243E+00
   4.4908253E-04   7.6857573E+04   -1.7244541E+00
   4.5115644E-04   7.6249430E+04   -1.7238842E+00
   4.5323993E-04   7.5646298E+04   -1.7233145E+00
   4.5533304E-04   7.5048133E+04   -1.7227451E+00
   4.5743582E-04   7.4454894E+04   -1.7221760E+00
   4.5954830E-04   7.3866538E+04   -1.7216072E+00
   4.6167054E-04   7.3283023E+04   -1.7210386E+00
   4.6380259E-04   7.2704308E+04   -1.7204704E+00
   4.6594448E-04   7.2130352E+04   -1.7199025E+00
   4.6809626E-04   7.1561115E+04   -1.7193349E+00
   4.7025797E-04   7.0996555E+04   -1.7187676E+00
   4.7242967E-04   7.0436633E+04   -1.7182007E+00
   4.7461140E-04   6.9881309E+04   -1.7176340E+00
   4.7680321E-04   6.9330545E+04   -1.7170678E+00
   4.7900514E-04   6.8784300E+04   -1.7165018E+00
   4.8121723E-04   6.8242538E+04   -1.7159362E+00
   4.8343954E-04   6.7705219E+04   -1.7153710E+00
   4.8567212E-04   6.7172305E+04   -1.7148061E+00
   4.8791500E-04   6.6643760E+04   -1.7142416E+00
   4.9016825E-04   6.6119545E+04   -1.7136774E+00
   4.9243189E-04   6.5599624E+04   -1.7131137E+00
   4.9470600E-04   6.5083961E+04   -1.7125503E+00
   4.9699060E-04   6.4572518E+04   -1.7119873E+00
   4.9928575E-04   6.4065261E+04   -1.7114247E+00
   5.0159151E-04   6.3562153E+04   -1.7108625E+00
   5.0390791E-04   6.3063160E+04   -1.7103006E+00
   5.0623501E-04   6.2568245E+04   -1.7097393E+00
   5.0857286E-04   6.2077375E+04   -1.7091783E+00
   5.1092150E-04   6.1590516E+04   -1.7086177E+00
   5.1328099E-04   6.1107632E+04   -1.7080576E+00
   5.1565137E-04   6.0628691E+04   -1.7074979E+00
   5.1803270E-04   6.0153659E+04   -1.7069386E+00
   5.2042503E-04   5.9682502E+04   -1.7063798E+00
   5.2282841E-04   5.9215189E+04   -1.7058214E+00
   5.2524289E-04   5.8751685E+04   -1.7052635E+00
   5.2766851E-04   5.8291959E+04   -1.7047060E+00
   5.3010534E-04   5.7835979E+04   -1.7041490E+00
   5.3255342E-04   5.7383713E+04   -1.7035925E+00
   5.3501281E-04   5.6935129E+04   -1.7030364E+00
   5.3748356E-04   5.6490197E+04   -1.7024809E+00
   5.3996571E-04   5.6048885E+04   -1.7019258E+00
   5.4245933E-04   5.5611163E+04   -1.7013712E+00
   5.4496446E-04   5.5177001E+04   -1.7008171E+00
   5.4748117E-04   5.4746368E+04   -1.7002635E+00
   5.5000949E-04   5.4319234E+04   -1.6997104E+00
   5.5254949E-04   5.3895570E+04   -1.6991578E+00
   5.5510123E-04   5.3475346E+04   -1.6986057E+00
   5.5766474E-04   5.3058534E+04   -1.6980542E+00
   5.6024010E-04   5.2645104E+04   -1.6975031E+00
   5.6282734E-04   5.2235028E+04   -1.6969526E+00
   5.6542654E-04   5.1828278E+04   -1.6964027E+00
   5.6803774E-04   5.1424826E+04   -1.6958533E+00
   5.7066099E-04   5.1024643E+04   -1.6953044E+00
   5.7329637E-04   5.0627702E+04   -1.6947561E+00
   5.7594391E-04   5.0233976E+04   -1.6942083E+00
   5.7860368E-04   4.9843438E+04   -1.6936611E+00
   5.8127573E-04   4.9456061E+04   -1.6931145E+00
   5.8396012E-04   4.9071818E+04   -1.6925684E+00
   5.8665691E-04   4.8690683E+04   -1.6920229E+00
   5.8936616E-04   4.8312629E+04   -1.6914780E+00
   5.9208791E-04   4.7937631E+04   -1.6909337E+00
   5.9482223E-04   4.7565663E+04   -1.6903900E+00
   5.9756919E-04   4.7196699E+04   -1.6898469E+00
   6.0032882E-04   4.6830714E+04   -1.6893043E+00
   6.0310120E-04   4.6467684E+04   -1.6887624E+00
   6.0588639E-04   4.6107583E+04   -1.6882211E+00
   6.0868443E-04   4.5750386E+04   -1.6876804E+00
   6.1149540E-04   4.5396070E+04   -1.6871403E+00
   6.1431935E-04   4.5044609E+04   -1.6866008E+00
   6.1715634E-04   4.4695981E+04   -1.6860620E+00
   6.2000644E-04   4.4350161E+04   -1.6855238E+00
   6.2286969E-04   4.4007126E+04   -1.6849863E+00
