#        a       HoverH0(a)       dlogHdloga_of_a(a)
   1.0000000E-04   1.1254398E+06   -1.8403068E+00
   1.0046181E-04   1.1159387E+06   -1.8398056E+00
   1.0092575E-04   1.1065203E+06   -1.8393036E+00
   1.0139184E-04   1.0971839E+06   -1.8388007E+00
   1.0186008E-04   1.0879288E+06   -1.8382970E+00
   1.0233048E-04   1.0787544E+06   -1.8377925E+00
   1.0280305E-04   1.0696597E+06   -1.8372872E+00
   1.0327781E-04   1.0606442E+06   -1.8367810E+00
   1.0375475E-04   1.0517072E+06   -1.8362741E+00
   1.0423390E-04   1.0428479E+06   -1.8357663E+00
   1.0471527E-04   1.0340656E+06   -1.8352578E+00
   1.0519885E-04   1.0253597E+06   -1.8347484E+00
   1.0568467E-04   1.0167295E+06   -1.8342382E+00
   1.0617274E-04   1.0081743E+06   -1.8337273E+00
   1.0666305E-04   9.9969349E+05   -1.8332155E+00
   1.0715563E-04   9.9128632E+05   -1.8327030E+00
   1.0765049E-04   9.8295217E+05   -1.8321897E+00
   1.0814763E-04   9.7469040E+05   -1.8316756E+00
   1.0864707E-04   9.6650036E+05   -1.8311607E+00
   1.0914881E-04   9.5838141E+05   -1.8306451E+00
   1.0965287E-04   9.5033293E+05   -1.8301287E+00
   1.1015926E-04   9.4235428E+05   -1.8296115E+00
   1.1066799E-04   9.3444484E+05   -1.8290936E+00
   1.1117906E-04   9.2660400E+05   -1.8285749E+00
   1.1169250E-04   9.1883115E+05   -1.8280555E+00
   1.1220831E-04   9.1112569E+05   -1.8275353E+00
   1.1272650E-04   9.0348701E+05   -1.8270144E+00
   1.1324708E-04   8.9591452E+05   -1.8264927E+00
   1.1377007E-04   8.8840765E+05   -1.8259703E+00
   1.1429547E-04   8.8096579E+05   -1.8254472E+00
   1.1482330E-04   8.7358838E+05   -1.8249234E+00
   1.1535356E-04   8.6627484E+05   -1.8243988E+00
   1.1588628E-04   8.5902460E+05   -1.8238735E+00
   1.1642145E-04   8.5183711E+05   -1.8233475E+00
   1.1695910E-04   8.4471181E+05   -1.8228207E+00
   1.1749923E-04   8.3764814E+05   -1.8222933E+00
   1.1804185E-04   8.3064556E+05   -1.8217651E+00
   1.1858698E-04   8.2370352E+05   -1.8212363E+00
   1.1913463E-04   8.1682149E+05   -1.8207068E+00
   1.1968481E-04   8.0999894E+05   -1.8201765E+00
   1.2023752E-04   8.0323534E+05   -1.8196456E+00
   1.2079279E-04   7.9653017E+05   -1.8191140E+00
   1.2135063E-04   7.8988290E+05   -1.8185818E+00
   1.2191104E-04   7.8329303E+05   -1.8180488E+00
   1.2247403E-04   7.7676005E+05   -1.8175152E+00
   1.2303963E-04   7.7028345E+05   -1.8169809E+00
   1.2360784E-04   7.6386273E+05   -1.8164460E+00
   1.2417868E-04   7.5749741E+05   -1.8159104E+00
   1.2475215E-04   7.5118697E+05   -1.8153742E+00
   1.2532826E-04   7.4493095E+05   -1.8148373E+00
   1.2590704E-04   7.3872886E+05   -1.8142997E+00
   1.2648850E-04   7.3258022E+05   -1.8137616E+00
   1.2707263E-04   7.2648456E+05   -1.8132228E+00
   1.2765947E-04   7.2044142E+05   -1.8126833E+00
   1.2824901E-04   7.1445031E+05   -1.8121433E+00
   1.2884128E-04   7.0851080E+05   -1.8116026E+00
   1.2943628E-04   7.0262241E+05   -1.8110613E+00
   1.3003403E-04   6.9678470E+05   -1.8105194E+00
   1.3063454E-04   6.9099722E+05   -1.8099769E+00
   1.3123783E-04   6.8525952E+05   -1.8094338E+00
   1.3184390E-04   6.7957117E+05   -1.8088901E+00
   1.3245277E-04   6.7393172E+05   -1.8083458E+00
   1.3306445E-04   6.6834075E+05   -1.8078009E+00
   1.3367895E-04   6.6279783E+05   -1.8072555E+00
   1.3429630E-04   6.5730253E+05   -1.8067094E+00
   1.3491649E-04   6.5185443E+05   -1.8061628E+00
   1.3553955E-04   6.4645312E+05   -1.8056157E+00
   1.3616548E-04   6.4109819E+05   -1.8050679E+00
   1.3679431E-04   6.3578921E+05   -1.8045196E+00
   1.3742604E-04   6.3052580E+05   -1.8039708E+00
   1.3806069E-04   6.2530754E+05   -1.8034214E+00
   1.3869827E-04   6.2013403E+05   -1.8028715E+00
   1.3933879E-04   6.1500489E+05   -1.8023210E+00
   1.3998227E-04   6.0991972E+05   -1.8017700E+00
   1.4062872E-04   6.0487814E+05   -1.8012185E+00
   1.4127816E-04   5.9987975E+05   -1.8006665E+00
   1.4193060E-04   5.9492417E+05   -1.8001139E+00
   1.4258605E-04   5.9001104E+05   -1.7995608E+00
   1.4324453E-04   5.8513998E+05   -1.7990073E+00
   1.4390605E-04   5.8031061E+05   -1.7984532E+00
   1.4457062E-04   5.7552257E+05   -1.7978986E+00
   1.4523826E-04   5.7077550E+05   -1.7973436E+00
   1.4590899E-04   5.6606903E+05   -1.7967880E+00
   1.4658281E-04   5.6140280E+05   -1.7962320E+00
   1.4725974E-04   5.5677647E+05   -1.7956755E+00
   1.4793981E-04   5.5218967E+05   -1.7951185E+00
   1.4862301E-04   5.4764207E+05   -1.7945611E+00
   1.4930936E-04   5.4313332E+05   -1.7940032E+00
   1.4999889E-04   5.3866307E+05   -1.7934449E+00
   1.5069160E-04   5.3423099E+05   -1.7928861E+00
   1.5138751E-04   5.2983674E+05   -1.7923269E+00
   1.5208663E-04   5.2547999E+05   -1.7917672E+00
   1.5278899E-04   5.2116041E+05   -1.7912071E+00
   1.5349458E-04   5.1687767E+05   -1.7906466E+00
   1.5420343E-04   5.1263145E+05   -1.7900856E+00
   1.5491556E-04   5.0842143E+05   -1.7895243E+00
   1.5563098E-04   5.0424729E+05   -1.7889625E+00
   1.5634970E-04   5.0010871E+05   -1.7884003E+00
   1.5707174E-04   4.9600539E+05   -1.7878378E+00
   1.5779711E-04   4.9193700E+05   -1.7872748E+00
   1.5852584E-04   4.8790326E+05   -1.7867114E+00
   1.5925792E-04   4.8390384E+05   -1.7861477E+00
   1.5999339E-04   4.7993846E+05   -1.7855836E+00
   1.6073226E-04   4.7600681E+05   -1.7850191E+00
   1.6147454E-04   4.7210859E+05   -1.7844543E+00
   1.6222024E-04   4.6824352E+05   -1.7838891E+00
   1.6296939E-04   4.6441130E+05   -1.7833235E+00
   1.6372200E-04   4.6061164E+05   -1.7827576E+00
   1.6447809E-04   4.5684427E+05   -1.7821914E+00
   1.6523767E-04   4.5310889E+05   -1.7816248E+00
   1.6600075E-04   4.4940522E+05   -1.7810579E+00
   1.6676736E-04   4.4573300E+05   -1.7804907E+00
   1.6753751E-04   4.4209193E+05   -1.7799231E+00
   1.6831122E-04   4.3848176E+05   -1.7793552E+00
   1.6908849E-04   4.3490221E+05   -1.7787871E+00
   1.6986936E-04   4.3135300E+05   -1.7782186E+00
   1.7065384E-04   4.2783388E+05   -1.7776498E+00
   1.7144193E-04   4.2434459E+05   -1.7770808E+00
   1.7223367E-04   4.2088485E+05   -1.7765114E+00
   1.7302906E-04   4.1745442E+05   -1.7759418E+00
   1.7382813E-04   4.1405304E+05   -1.7753719E+00
   1.7463089E-04   4.1068045E+05   -1.7748017E+00
   1.7543735E-04   4.0733640E+05   -1.7742313E+00
   1.7624754E-04   4.0402064E+05   -1.7736606E+00
   1.7706147E-04   4.0073293E+05   -1.7730897E+00
   1.7787916E-04   3.9747301E+05   -1.7725185E+00
   1.7870062E-04   3.9424066E+05   -1.7719471E+00
   1.7952588E-04   3.9103561E+05   -1.7713755E+00
   1.8035495E-04   3.8785765E+05   -1.7708036E+00
   1.8118785E-04   3.8470653E+05   -1.7702315E+00
   1.8202459E-04   3.8158201E+05   -1.7696592E+00
   1.8286520E-04   3.7848387E+05   -1.7690867E+00
   1.8370969E-04   3.7541188E+05   -1.7685140E+00
   1.8455808E-04   3.7236580E+05   -1.7679411E+00
   1.8541039E-04   3.6934541E+05   -1.7673680E+00
   1.8626663E-04   3.6635049E+05   -1.7667947E+00
   1.8712683E-04   3.6338081E+05   -1.7662213E+00
   1.8799100E-04   3.6043616E+05   -1.7656476E+00
   1.8885917E-04   3.5751632E+05   -1.7650738E+00
   1.8973134E-04   3.5462107E+05   -1.7644999E+00
   1.9060754E-04   3.5175019E+05   -1.7639258E+00
   1.9148778E-04   3.4890348E+05   -1.7633515E+00
   1.9237209E-04   3.4608072E+05   -1.7627771E+00
   1.9326049E-04   3.4328171E+05   -1.7622026E+00
   1.9415299E-04   3.4050623E+05   -1.7616279E+00
   1.9504960E-04   3.3775409E+05   -1.7610532E+00
   1.9595036E-04   3.3502509E+05   -1.7604783E+00
   1.9685528E-04   3.3231901E+05   -1.7599032E+00
   1.9776438E-04   3.2963567E+05   -1.7593281E+00
   1.9867768E-04   3.2697486E+05   -1.7587529E+00
   1.9959519E-04   3.2433638E+05   -1.7581776E+00
   2.0051694E-04   3.2172005E+05   -1.7576022E+00
   2.0144295E-04   3.1912567E+05   -1.7570267E+00
   2.0237324E-04   3.1655305E+05   -1.7564512E+00
   2.0330782E-04   3.1400201E+05   -1.7558755E+00
   2.0424671E-04   3.1147234E+05   -1.7552999E+00
   2.0518995E-04   3.0896388E+05   -1.7547241E+00
   2.0613754E-04   3.0647643E+05   -1.7541483E+00
   2.0708950E-04   3.0400982E+05   -1.7535725E+00
   2.0804586E-04   3.0156385E+05   -1.7529966E+00
   2.0900664E-04   2.9913836E+05   -1.7524207E+00
   2.0997185E-04   2.9673317E+05   -1.7518448E+00
   2.1094152E-04   2.9434809E+05   -1.7512688E+00
   2.1191567E-04   2.9198297E+05   -1.7506929E+00
   2.1289432E-04   2.8963761E+05   -1.7501169E+00
   2.1387749E-04   2.8731186E+05   -1.7495409E+00
   2.1486520E-04   2.8500553E+05   -1.7489649E+00
   2.1585747E-04   2.8271847E+05   -1.7483890E+00
   2.1685432E-04   2.8045051E+05   -1.7478130E+00
   2.1785578E-04   2.7820148E+05   -1.7472371E+00
   2.1886186E-04   2.7597122E+05   -1.7466612E+00
   2.1987259E-04   2.7375956E+05   -1.7460854E+00
   2.2088798E-04   2.7156635E+05   -1.7455096E+00
   2.2190807E-04   2.6939142E+05   -1.7449338E+00
   2.2293286E-04   2.6723463E+05   -1.7443581E+00
   2.2396239E-04   2.6509580E+05   -1.7437824E+00
   2.2499667E-04   2.6297479E+05   -1.7432068E+00
   2.2603573E-04   2.6087144E+05   -1.7426313E+00
   2.2707958E-04   2.5878560E+05   -1.7420559E+00
   2.2812826E-04   2.5671711E+05   -1.7414805E+00
   2.2918178E-04   2.5466584E+05   -1.7409053E+00
   2.3024017E-04   2.5263162E+05   -1.7403301E+00
   2.3130344E-04   2.5061432E+05   -1.7397550E+00
   2.3237162E-04   2.4861379E+05   -1.7391801E+00
   2.3344474E-04   2.4662988E+05   -1.7386052E+00
   2.3452281E-04   2.4466245E+05   -1.7380305E+00
   2.3560586E-04   2.4271135E+05   -1.7374559E+00
   2.3669392E-04   2.4077645E+05   -1.7368814E+00
   2.3778699E-04   2.3885761E+05   -1.7363071E+00
   2.3888512E-04   2.3695469E+05   -1.7357329E+00
   2.3998831E-04   2.3506755E+05   -1.7351589E+00
   2.4109661E-04   2.3319606E+05   -1.7345850E+00
   2.4221001E-04   2.3134007E+05   -1.7340113E+00
   2.4332857E-04   2.2949947E+05   -1.7334378E+00
   2.4445228E-04   2.2767411E+05   -1.7328644E+00
   2.4558119E-04   2.2586387E+05   -1.7322912E+00
   2.4671531E-04   2.2406861E+05   -1.7317182E+00
   2.4785467E-04   2.2228821E+05   -1.7311454E+00
   2.4899928E-04   2.2052253E+05   -1.7305728E+00
   2.5014919E-04   2.1877146E+05   -1.7300004E+00
   2.5130440E-04   2.1703487E+05   -1.7294282E+00
   2.5246495E-04   2.1531263E+05   -1.7288562E+00
   2.5363086E-04   2.1360461E+05   -1.7282845E+00
   2.5480216E-04   2.1191071E+05   -1.7277130E+00
   2.5597886E-04   2.1023079E+05   -1.7271417E+00
   2.5716100E-04   2.0856474E+05   -1.7265706E+00
   2.5834859E-04   2.0691243E+05   -1.7259998E+00
   2.5954168E-04   2.0527375E+05   -1.7254292E+00
   2.6074027E-04   2.0364859E+05   -1.7248590E+00
   2.6194439E-04   2.0203683E+05   -1.7242889E+00
   2.6315408E-04   2.0043834E+05   -1.7237192E+00
   2.6436935E-04   1.9885303E+05   -1.7231497E+00
   2.6559024E-04   1.9728077E+05   -1.7225805E+00
   2.6681676E-04   1.9572146E+05   -1.7220116E+00
   2.6804895E-04   1.9417498E+05   -1.7214429E+00
   2.6928683E-04   1.9264122E+05   -1.7208746E+00
   2.7053042E-04   1.9112008E+05   -1.7203066E+00
   2.7177976E-04   1.8961145E+05   -1.7197389E+00
   2.7303487E-04   1.8811522E+05   -1.7191715E+00
   2.7429577E-04   1.8663128E+05   -1.7186044E+00
   2.7556250E-04   1.8515953E+05   -1.7180377E+00
   2.7683507E-04   1.8369987E+05   -1.7174712E+00
   2.7811353E-04   1.8225219E+05   -1.7169052E+00
   2.7939788E-04   1.8081639E+05   -1.7163394E+00
   2.8068817E-04   1.7939236E+05   -1.7157741E+00
   2.8198442E-04   1.7798002E+05   -1.7152090E+00
   2.8328665E-04   1.7657926E+05   -1.7146444E+00
   2.8459490E-04   1.7518997E+05   -1.7140801E+00
   2.8590919E-04   1.7381207E+05   -1.7135162E+00
   2.8722955E-04   1.7244546E+05   -1.7129526E+00
   2.8855600E-04   1.7109003E+05   -1.7123895E+00
   2.8988859E-04   1.6974570E+05   -1.7118267E+00
   2.9122732E-04   1.6841236E+05   -1.7112643E+00
   2.9257224E-04   1.6708993E+05   -1.7107024E+00
   2.9392337E-04   1.6577832E+05   -1.7101408E+00
   2.9528074E-04   1.6447743E+05   -1.7095796E+00
   2.9664438E-04   1.6318716E+05   -1.7090189E+00
   2.9801431E-04   1.6190744E+05   -1.7084586E+00
   2.9939057E-04   1.6063817E+05   -1.7078987E+00
   3.0077319E-04   1.5937926E+05   -1.7073393E+00
   3.0216219E-04   1.5813062E+05   -1.7067803E+00
   3.0355761E-04   1.5689217E+05   -1.7062217E+00
   3.0495947E-04   1.5566381E+05   -1.7056636E+00
   3.0636780E-04   1.5444548E+05   -1.7051059E+00
   3.0778264E-04   1.5323707E+05   -1.7045487E+00
   3.0920401E-04   1.5203850E+05   -1.7039920E+00
   3.1063195E-04   1.5084970E+05   -1.7034357E+00
   3.1206648E-04   1.4967058E+05   -1.7028799E+00
   3.1350764E-04   1.4850105E+05   -1.7023246E+00
   3.1495545E-04   1.4734104E+05   -1.7017698E+00
   3.1640994E-04   1.4619046E+05   -1.7012155E+00
   3.1787116E-04   1.4504924E+05   -1.7006617E+00
   3.1933912E-04   1.4391730E+05   -1.7001083E+00
   3.2081386E-04   1.4279455E+05   -1.6995555E+00
   3.2229541E-04   1.4168092E+05   -1.6990032E+00
   3.2378381E-04   1.4057633E+05   -1.6984514E+00
   3.2527908E-04   1.3948071E+05   -1.6979002E+00
   3.2678125E-04   1.3839399E+05   -1.6973495E+00
   3.2829036E-04   1.3731607E+05   -1.6967993E+00
   3.2980644E-04   1.3624690E+05   -1.6962496E+00
   3.3132952E-04   1.3518639E+05   -1.6957005E+00
   3.3285963E-04   1.3413448E+05   -1.6951519E+00
   3.3439681E-04   1.3309109E+05   -1.6946039E+00
   3.3594109E-04   1.3205615E+05   -1.6940564E+00
   3.3749250E-04   1.3102958E+05   -1.6935096E+00
   3.3905108E-04   1.3001133E+05   -1.6929632E+00
   3.4061685E-04   1.2900131E+05   -1.6924175E+00
   3.4218986E-04   1.2799946E+05   -1.6918723E+00
   3.4377013E-04   1.2700571E+05   -1.6913277E+00
   3.4535769E-04   1.2601999E+05   -1.6907837E+00
   3.4695259E-04   1.2504223E+05   -1.6902403E+00
   3.4855485E-04   1.2407238E+05   -1.6896975E+00
   3.5016452E-04   1.2311035E+05   -1.6891553E+00
   3.5178161E-04   1.2215608E+05   -1.6886137E+00
   3.5340618E-04   1.2120952E+05   -1.6880727E+00
   3.5503824E-04   1.2027059E+05   -1.6875324E+00
   3.5667785E-04   1.1933922E+05   -1.6869926E+00
   3.5832502E-04   1.1841537E+05   -1.6864535E+00
   3.5997981E-04   1.1749896E+05   -1.6859150E+00
   3.6164223E-04   1.1658993E+05   -1.6853771E+00
   3.6331233E-04   1.1568822E+05   -1.6848399E+00
   3.6499015E-04   1.1479377E+05   -1.6843033E+00
   3.6667571E-04   1.1390651E+05   -1.6837674E+00
   3.6836906E-04   1.1302640E+05   -1.6832321E+00
   3.7007022E-04   1.1215335E+05   -1.6826975E+00
   3.7177925E-04   1.1128733E+05   -1.6821636E+00
   3.7349616E-04   1.1042826E+05   -1.6816303E+00
   3.7522101E-04   1.0957610E+05   -1.6810977E+00
   3.7695382E-04   1.0873078E+05   -1.6805657E+00
   3.7869463E-04   1.0789224E+05   -1.6800345E+00
   3.8044348E-04   1.0706043E+05   -1.6795039E+00
   3.8220041E-04   1.0623530E+05   -1.6789740E+00
   3.8396545E-04   1.0541678E+05   -1.6784448E+00
   3.8573864E-04   1.0460482E+05   -1.6779163E+00
   3.8752002E-04   1.0379937E+05   -1.6773885E+00
   3.8930963E-04   1.0300037E+05   -1.6768614E+00
   3.9110750E-04   1.0220777E+05   -1.6763351E+00
   3.9291368E-04   1.0142151E+05   -1.6758094E+00
   3.9472820E-04   1.0064155E+05   -1.6752844E+00
   3.9655109E-04   9.9867826E+04   -1.6747602E+00
   3.9838241E-04   9.9100289E+04   -1.6742367E+00
   4.0022218E-04   9.8338889E+04   -1.6737139E+00
   4.0207045E-04   9.7583573E+04   -1.6731919E+00
   4.0392725E-04   9.6834292E+04   -1.6726706E+00
   4.0579263E-04   9.6090994E+04   -1.6721500E+00
   4.0766662E-04   9.5353631E+04   -1.6716302E+00
   4.0954927E-04   9.4622152E+04   -1.6711112E+00
   4.1144061E-04   9.3896509E+04   -1.6705929E+00
   4.1334068E-04   9.3176653E+04   -1.6700753E+00
   4.1524953E-04   9.2462536E+04   -1.6695585E+00
   4.1716720E-04   9.1754111E+04   -1.6690425E+00
   4.1909372E-04   9.1051330E+04   -1.6685272E+00
   4.2102914E-04   9.0354146E+04   -1.6680127E+00
   4.2297350E-04   8.9662512E+04   -1.6674990E+00
   4.2492683E-04   8.8976383E+04   -1.6669861E+00
   4.2688919E-04   8.8295714E+04   -1.6664739E+00
   4.2886061E-04   8.7620458E+04   -1.6659626E+00
   4.3084113E-04   8.6950571E+04   -1.6654520E+00
   4.3283080E-04   8.6286008E+04   -1.6649422E+00
   4.3482966E-04   8.5626726E+04   -1.6644333E+00
   4.3683775E-04   8.4972680E+04   -1.6639251E+00
   4.3885511E-04   8.4323827E+04   -1.6634177E+00
   4.4088179E-04   8.3680124E+04   -1.6629112E+00
   4.4291783E-04   8.3041529E+04   -1.6624054E+00
   4.4496327E-04   8.2407999E+04   -1.6619005E+00
   4.4701816E-04   8.1779492E+04   -1.6613964E+00
   4.4908253E-04   8.1155967E+04   -1.6608931E+00
   4.5115644E-04   8.0537382E+04   -1.6603906E+00
   4.5323993E-04   7.9923698E+04   -1.6598889E+00
   4.5533304E-04   7.9314873E+04   -1.6593881E+00
   4.5743582E-04   7.8710867E+04   -1.6588882E+00
   4.5954830E-04   7.8111641E+04   -1.6583890E+00
   4.6167054E-04   7.7517155E+04   -1.6578907E+00
   4.6380259E-04   7.6927369E+04   -1.6573933E+00
   4.6594448E-04   7.6342246E+04   -1.6568967E+00
   4.6809626E-04   7.5761747E+04   -1.6564009E+00
   4.7025797E-04   7.5185833E+04   -1.6559060E+00
   4.7242967E-04   7.4614467E+04   -1.6554120E+00
   4.7461140E-04   7.4047611E+04   -1.6549188E+00
   4.7680321E-04   7.3485229E+04   -1.6544265E+00
   4.7900514E-04   7.2927283E+04   -1.6539350E+00
   4.8121723E-04   7.2373737E+04   -1.6534444E+00
   4.8343954E-04   7.1824556E+04   -1.6529547E+00
   4.8567212E-04   7.1279702E+04   -1.6524659E+00
   4.8791500E-04   7.0739140E+04   -1.6519779E+00
   4.9016825E-04   7.0202836E+04   -1.6514908E+00
   4.9243189E-04   6.9670754E+04   -1.6510046E+00
   4.9470600E-04   6.9142859E+04   -1.6505193E+00
   4.9699060E-04   6.8619118E+04   -1.6500349E+00
   4.9928575E-04   6.8099495E+04   -1.6495514E+00
   5.0159151E-04   6.7583958E+04   -1.6490687E+00
   5.0390791E-04   6.7072473E+04   -1.6485870E+00
   5.0623501E-04   6.6565006E+04   -1.6481061E+00
   5.0857286E-04   6.6061525E+04   -1.6476262E+00
   5.1092150E-04   6.5561997E+04   -1.6471471E+00
   5.1328099E-04   6.5066389E+04   -1.6466690E+00
   5.1565137E-04   6.4574671E+04   -1.6461918E+00
   5.1803270E-04   6.4086809E+04   -1.6457155E+00
   5.2042503E-04   6.3602772E+04   -1.6452401E+00
   5.2282841E-04   6.3122530E+04   -1.6447656E+00
   5.2524289E-04   6.2646050E+04   -1.6442920E+00
   5.2766851E-04   6.2173303E+04   -1.6438194E+00
   5.3010534E-04   6.1704257E+04   -1.6433476E+00
   5.3255342E-04   6.1238883E+04   -1.6428769E+00
   5.3501281E-04   6.0777150E+04   -1.6424070E+00
   5.3748356E-04   6.0319029E+04   -1.6419380E+00
   5.3996571E-04   5.9864490E+04   -1.6414700E+00
   5.4245933E-04   5.9413505E+04   -1.6410030E+00
   5.4496446E-04   5.8966044E+04   -1.6405368E+00
   5.4748117E-04   5.8522079E+04   -1.6400716E+00
   5.5000949E-04   5.8081581E+04   -1.6396074E+00
   5.5254949E-04   5.7644521E+04   -1.6391441E+00
   5.5510123E-04   5.7210872E+04   -1.6386817E+00
   5.5766474E-04   5.6780607E+04   -1.6382203E+00
   5.6024010E-04   5.6353697E+04   -1.6377598E+00
   5.6282734E-04   5.5930115E+04   -1.6373003E+00
   5.6542654E-04   5.5509835E+04   -1.6368417E+00
   5.6803774E-04   5.5092828E+04   -1.6363841E+00
   5.7066099E-04   5.4679070E+04   -1.6359274E+00
   5.7329637E-04   5.4268533E+04   -1.6354717E+00
   5.7594391E-04   5.3861192E+04   -1.6350170E+00
   5.7860368E-04   5.3457020E+04   -1.6345632E+00
   5.8127573E-04   5.3055992E+04   -1.6341104E+00
   5.8396012E-04   5.2658082E+04   -1.6336585E+00
   5.8665691E-04   5.2263265E+04   -1.6332076E+00
   5.8936616E-04   5.1871515E+04   -1.6327577E+00
   5.9208791E-04   5.1482809E+04   -1.6323088E+00
   5.9482223E-04   5.1097121E+04   -1.6318608E+00
   5.9756919E-04   5.0714427E+04   -1.6314138E+00
   6.0032882E-04   5.0334703E+04   -1.6309678E+00
   6.0310120E-04   4.9957925E+04   -1.6305227E+00
   6.0588639E-04   4.9584068E+04   -1.6300786E+00
   6.0868443E-04   4.9213110E+04   -1.6296356E+00
   6.1149540E-04   4.8845027E+04   -1.6291934E+00
   6.1431935E-04   4.8479795E+04   -1.6287523E+00
   6.1715634E-04   4.8117393E+04   -1.6283122E+00
   6.2000644E-04   4.7757796E+04   -1.6278730E+00
   6.2286969E-04   4.7400982E+04   -1.6274348E+00
