#        a       HoverH0(a)       dlogHdloga_of_a(a)
   1.0000000E-04   1.1564899E+06   -1.8972739E+00
   1.0046181E-04   1.1464253E+06   -1.8968973E+00
   1.0092575E-04   1.1364503E+06   -1.8965197E+00
   1.0139184E-04   1.1265641E+06   -1.8961411E+00
   1.0186008E-04   1.1167658E+06   -1.8957614E+00
   1.0233048E-04   1.1070546E+06   -1.8953808E+00
   1.0280305E-04   1.0974299E+06   -1.8949991E+00
   1.0327781E-04   1.0878907E+06   -1.8946163E+00
   1.0375475E-04   1.0784364E+06   -1.8942326E+00
   1.0423390E-04   1.0690661E+06   -1.8938478E+00
   1.0471527E-04   1.0597791E+06   -1.8934621E+00
   1.0519885E-04   1.0505746E+06   -1.8930753E+00
   1.0568467E-04   1.0414520E+06   -1.8926874E+00
   1.0617274E-04   1.0324104E+06   -1.8922986E+00
   1.0666305E-04   1.0234492E+06   -1.8919087E+00
   1.0715563E-04   1.0145675E+06   -1.8915178E+00
   1.0765049E-04   1.0057648E+06   -1.8911259E+00
   1.0814763E-04   9.9704019E+05   -1.8907330E+00
   1.0864707E-04   9.8839310E+05   -1.8903390E+00
   1.0914881E-04   9.7982277E+05   -1.8899441E+00
   1.0965287E-04   9.7132853E+05   -1.8895481E+00
   1.1015926E-04   9.6290969E+05   -1.8891511E+00
   1.1066799E-04   9.5456556E+05   -1.8887530E+00
   1.1117906E-04   9.4629548E+05   -1.8883540E+00
   1.1169250E-04   9.3809877E+05   -1.8879539E+00
   1.1220831E-04   9.2997478E+05   -1.8875528E+00
   1.1272650E-04   9.2192285E+05   -1.8871507E+00
   1.1324708E-04   9.1394233E+05   -1.8867476E+00
   1.1377007E-04   9.0603258E+05   -1.8863434E+00
   1.1429547E-04   8.9819296E+05   -1.8859383E+00
   1.1482330E-04   8.9042284E+05   -1.8855321E+00
   1.1535356E-04   8.8272159E+05   -1.8851249E+00
   1.1588628E-04   8.7508859E+05   -1.8847167E+00
   1.1642145E-04   8.6752322E+05   -1.8843075E+00
   1.1695910E-04   8.6002489E+05   -1.8838972E+00
   1.1749923E-04   8.5259298E+05   -1.8834860E+00
   1.1804185E-04   8.4522689E+05   -1.8830737E+00
   1.1858698E-04   8.3792604E+05   -1.8826605E+00
   1.1913463E-04   8.3068984E+05   -1.8822462E+00
   1.1968481E-04   8.2351770E+05   -1.8818309E+00
   1.2023752E-04   8.1640905E+05   -1.8814146E+00
   1.2079279E-04   8.0936332E+05   -1.8809972E+00
   1.2135063E-04   8.0237993E+05   -1.8805789E+00
   1.2191104E-04   7.9545834E+05   -1.8801596E+00
   1.2247403E-04   7.8859798E+05   -1.8797392E+00
   1.2303963E-04   7.8179830E+05   -1.8793179E+00
   1.2360784E-04   7.7505876E+05   -1.8788955E+00
   1.2417868E-04   7.6837881E+05   -1.8784722E+00
   1.2475215E-04   7.6175793E+05   -1.8780478E+00
   1.2532826E-04   7.5519557E+05   -1.8776224E+00
   1.2590704E-04   7.4869121E+05   -1.8771961E+00
   1.2648850E-04   7.4224433E+05   -1.8767687E+00
   1.2707263E-04   7.3585442E+05   -1.8763403E+00
   1.2765947E-04   7.2952096E+05   -1.8759110E+00
   1.2824901E-04   7.2324345E+05   -1.8754806E+00
   1.2884128E-04   7.1702137E+05   -1.8750492E+00
   1.2943628E-04   7.1085424E+05   -1.8746169E+00
   1.3003403E-04   7.0474156E+05   -1.8741835E+00
   1.3063454E-04   6.9868284E+05   -1.8737492E+00
   1.3123783E-04   6.9267759E+05   -1.8733139E+00
   1.3184390E-04   6.8672534E+05   -1.8728775E+00
   1.3245277E-04   6.8082561E+05   -1.8724402E+00
   1.3306445E-04   6.7497792E+05   -1.8720019E+00
   1.3367895E-04   6.6918181E+05   -1.8715626E+00
   1.3429630E-04   6.6343682E+05   -1.8711223E+00
   1.3491649E-04   6.5774249E+05   -1.8706811E+00
   1.3553955E-04   6.5209835E+05   -1.8702388E+00
   1.3616548E-04   6.4650397E+05   -1.8697956E+00
   1.3679431E-04   6.4095890E+05   -1.8693514E+00
   1.3742604E-04   6.3546269E+05   -1.8689062E+00
   1.3806069E-04   6.3001490E+05   -1.8684601E+00
   1.3869827E-04   6.2461510E+05   -1.8680129E+00
   1.3933879E-04   6.1926286E+05   -1.8675648E+00
   1.3998227E-04   6.1395774E+05   -1.8671157E+00
   1.4062872E-04   6.0869934E+05   -1.8666657E+00
   1.4127816E-04   6.0348723E+05   -1.8662147E+00
   1.4193060E-04   5.9832099E+05   -1.8657627E+00
   1.4258605E-04   5.9320022E+05   -1.8653097E+00
   1.4324453E-04   5.8812449E+05   -1.8648558E+00
   1.4390605E-04   5.8309343E+05   -1.8644009E+00
   1.4457062E-04   5.7810661E+05   -1.8639451E+00
   1.4523826E-04   5.7316365E+05   -1.8634883E+00
   1.4590899E-04   5.6826414E+05   -1.8630305E+00
   1.4658281E-04   5.6340771E+05   -1.8625718E+00
   1.4725974E-04   5.5859397E+05   -1.8621122E+00
   1.4793981E-04   5.5382252E+05   -1.8616515E+00
   1.4862301E-04   5.4909300E+05   -1.8611900E+00
   1.4930936E-04   5.4440503E+05   -1.8607275E+00
   1.4999889E-04   5.3975824E+05   -1.8602640E+00
   1.5069160E-04   5.3515225E+05   -1.8597996E+00
   1.5138751E-04   5.3058670E+05   -1.8593343E+00
   1.5208663E-04   5.2606123E+05   -1.8588680E+00
   1.5278899E-04   5.2157548E+05   -1.8584008E+00
   1.5349458E-04   5.1712910E+05   -1.8579326E+00
   1.5420343E-04   5.1272173E+05   -1.8574636E+00
   1.5491556E-04   5.0835302E+05   -1.8569935E+00
   1.5563098E-04   5.0402262E+05   -1.8565226E+00
   1.5634970E-04   4.9973021E+05   -1.8560507E+00
   1.5707174E-04   4.9547542E+05   -1.8555779E+00
   1.5779711E-04   4.9125793E+05   -1.8551042E+00
   1.5852584E-04   4.8707741E+05   -1.8546296E+00
   1.5925792E-04   4.8293352E+05   -1.8541541E+00
   1.5999339E-04   4.7882593E+05   -1.8536776E+00
   1.6073226E-04   4.7475432E+05   -1.8532002E+00
   1.6147454E-04   4.7071837E+05   -1.8527220E+00
   1.6222024E-04   4.6671777E+05   -1.8522428E+00
   1.6296939E-04   4.6275218E+05   -1.8517627E+00
   1.6372200E-04   4.5882131E+05   -1.8512817E+00
   1.6447809E-04   4.5492483E+05   -1.8507998E+00
   1.6523767E-04   4.5106245E+05   -1.8503170E+00
   1.6600075E-04   4.4723386E+05   -1.8498333E+00
   1.6676736E-04   4.4343875E+05   -1.8493488E+00
   1.6753751E-04   4.3967683E+05   -1.8488633E+00
   1.6831122E-04   4.3594780E+05   -1.8483770E+00
   1.6908849E-04   4.3225137E+05   -1.8478897E+00
   1.6986936E-04   4.2858724E+05   -1.8474016E+00
   1.7065384E-04   4.2495513E+05   -1.8469126E+00
   1.7144193E-04   4.2135474E+05   -1.8464228E+00
   1.7223367E-04   4.1778581E+05   -1.8459320E+00
   1.7302906E-04   4.1424805E+05   -1.8454404E+00
   1.7382813E-04   4.1074117E+05   -1.8449480E+00
   1.7463089E-04   4.0726490E+05   -1.8444546E+00
   1.7543735E-04   4.0381898E+05   -1.8439605E+00
   1.7624754E-04   4.0040312E+05   -1.8434654E+00
   1.7706147E-04   3.9701707E+05   -1.8429695E+00
   1.7787916E-04   3.9366055E+05   -1.8424728E+00
   1.7870062E-04   3.9033330E+05   -1.8419752E+00
   1.7952588E-04   3.8703506E+05   -1.8414767E+00
   1.8035495E-04   3.8376557E+05   -1.8409774E+00
   1.8118785E-04   3.8052458E+05   -1.8404773E+00
   1.8202459E-04   3.7731182E+05   -1.8399764E+00
   1.8286520E-04   3.7412706E+05   -1.8394746E+00
   1.8370969E-04   3.7097004E+05   -1.8389720E+00
   1.8455808E-04   3.6784051E+05   -1.8384685E+00
   1.8541039E-04   3.6473823E+05   -1.8379643E+00
   1.8626663E-04   3.6166295E+05   -1.8374592E+00
   1.8712683E-04   3.5861444E+05   -1.8369533E+00
   1.8799100E-04   3.5559245E+05   -1.8364466E+00
   1.8885917E-04   3.5259676E+05   -1.8359390E+00
   1.8973134E-04   3.4962712E+05   -1.8354307E+00
   1.9060754E-04   3.4668330E+05   -1.8349216E+00
   1.9148778E-04   3.4376507E+05   -1.8344117E+00
   1.9237209E-04   3.4087221E+05   -1.8339010E+00
   1.9326049E-04   3.3800449E+05   -1.8333895E+00
   1.9415299E-04   3.3516169E+05   -1.8328772E+00
   1.9504960E-04   3.3234358E+05   -1.8323641E+00
   1.9595036E-04   3.2954995E+05   -1.8318502E+00
   1.9685528E-04   3.2678058E+05   -1.8313356E+00
   1.9776438E-04   3.2403524E+05   -1.8308202E+00
   1.9867768E-04   3.2131374E+05   -1.8303040E+00
   1.9959519E-04   3.1861584E+05   -1.8297871E+00
   2.0051694E-04   3.1594136E+05   -1.8292694E+00
   2.0144295E-04   3.1329007E+05   -1.8287509E+00
   2.0237324E-04   3.1066178E+05   -1.8282317E+00
   2.0330782E-04   3.0805627E+05   -1.8277118E+00
   2.0424671E-04   3.0547334E+05   -1.8271911E+00
   2.0518995E-04   3.0291280E+05   -1.8266696E+00
   2.0613754E-04   3.0037444E+05   -1.8261474E+00
   2.0708950E-04   2.9785808E+05   -1.8256245E+00
   2.0804586E-04   2.9536350E+05   -1.8251009E+00
   2.0900664E-04   2.9289053E+05   -1.8245765E+00
   2.0997185E-04   2.9043896E+05   -1.8240514E+00
   2.1094152E-04   2.8800861E+05   -1.8235256E+00
   2.1191567E-04   2.8559929E+05   -1.8229990E+00
   2.1289432E-04   2.8321081E+05   -1.8224718E+00
   2.1387749E-04   2.8084299E+05   -1.8219439E+00
   2.1486520E-04   2.7849565E+05   -1.8214152E+00
   2.1585747E-04   2.7616859E+05   -1.8208859E+00
   2.1685432E-04   2.7386165E+05   -1.8203559E+00
   2.1785578E-04   2.7157464E+05   -1.8198251E+00
   2.1886186E-04   2.6930740E+05   -1.8192937E+00
   2.1987259E-04   2.6705973E+05   -1.8187617E+00
   2.2088798E-04   2.6483147E+05   -1.8182289E+00
   2.2190807E-04   2.6262245E+05   -1.8176955E+00
   2.2293286E-04   2.6043250E+05   -1.8171614E+00
   2.2396239E-04   2.5826144E+05   -1.8166266E+00
   2.2499667E-04   2.5610912E+05   -1.8160912E+00
   2.2603573E-04   2.5397535E+05   -1.8155551E+00
   2.2707958E-04   2.5185999E+05   -1.8150184E+00
   2.2812826E-04   2.4976287E+05   -1.8144811E+00
   2.2918178E-04   2.4768382E+05   -1.8139431E+00
   2.3024017E-04   2.4562268E+05   -1.8134044E+00
   2.3130344E-04   2.4357930E+05   -1.8128652E+00
   2.3237162E-04   2.4155352E+05   -1.8123253E+00
   2.3344474E-04   2.3954519E+05   -1.8117848E+00
   2.3452281E-04   2.3755415E+05   -1.8112437E+00
   2.3560586E-04   2.3558024E+05   -1.8107019E+00
   2.3669392E-04   2.3362332E+05   -1.8101596E+00
   2.3778699E-04   2.3168323E+05   -1.8096166E+00
   2.3888512E-04   2.2975983E+05   -1.8090731E+00
   2.3998831E-04   2.2785297E+05   -1.8085289E+00
   2.4109661E-04   2.2596250E+05   -1.8079842E+00
   2.4221001E-04   2.2408827E+05   -1.8074389E+00
   2.4332857E-04   2.2223016E+05   -1.8068930E+00
   2.4445228E-04   2.2038800E+05   -1.8063466E+00
   2.4558119E-04   2.1856167E+05   -1.8057995E+00
   2.4671531E-04   2.1675101E+05   -1.8052520E+00
   2.4785467E-04   2.1495590E+05   -1.8047038E+00
   2.4899928E-04   2.1317620E+05   -1.8041551E+00
   2.5014919E-04   2.1141176E+05   -1.8036059E+00
   2.5130440E-04   2.0966246E+05   -1.8030561E+00
   2.5246495E-04   2.0792816E+05   -1.8025057E+00
   2.5363086E-04   2.0620873E+05   -1.8019549E+00
   2.5480216E-04   2.0450404E+05   -1.8014035E+00
   2.5597886E-04   2.0281395E+05   -1.8008516E+00
   2.5716100E-04   2.0113835E+05   -1.8002991E+00
   2.5834859E-04   1.9947709E+05   -1.7997462E+00
   2.5954168E-04   1.9783006E+05   -1.7991927E+00
   2.6074027E-04   1.9619713E+05   -1.7986388E+00
   2.6194439E-04   1.9457818E+05   -1.7980843E+00
   2.6315408E-04   1.9297308E+05   -1.7975294E+00
   2.6436935E-04   1.9138171E+05   -1.7969739E+00
   2.6559024E-04   1.8980394E+05   -1.7964180E+00
   2.6681676E-04   1.8823967E+05   -1.7958616E+00
   2.6804895E-04   1.8668877E+05   -1.7953048E+00
   2.6928683E-04   1.8515112E+05   -1.7947474E+00
   2.7053042E-04   1.8362661E+05   -1.7941896E+00
   2.7177976E-04   1.8211512E+05   -1.7936314E+00
   2.7303487E-04   1.8061653E+05   -1.7930727E+00
   2.7429577E-04   1.7913074E+05   -1.7925136E+00
   2.7556250E-04   1.7765763E+05   -1.7919540E+00
   2.7683507E-04   1.7619708E+05   -1.7913940E+00
   2.7811353E-04   1.7474900E+05   -1.7908335E+00
   2.7939788E-04   1.7331326E+05   -1.7902727E+00
   2.8068817E-04   1.7188977E+05   -1.7897114E+00
   2.8198442E-04   1.7047841E+05   -1.7891497E+00
   2.8328665E-04   1.6907907E+05   -1.7885876E+00
   2.8459490E-04   1.6769165E+05   -1.7880251E+00
   2.8590919E-04   1.6631605E+05   -1.7874622E+00
   2.8722955E-04   1.6495217E+05   -1.7868990E+00
   2.8855600E-04   1.6359989E+05   -1.7863353E+00
   2.8988859E-04   1.6225912E+05   -1.7857712E+00
   2.9122732E-04   1.6092975E+05   -1.7852068E+00
   2.9257224E-04   1.5961169E+05   -1.7846421E+00
   2.9392337E-04   1.5830484E+05   -1.7840769E+00
   2.9528074E-04   1.5700910E+05   -1.7835114E+00
   2.9664438E-04   1.5572437E+05   -1.7829456E+00
   2.9801431E-04   1.5445056E+05   -1.7823794E+00
   2.9939057E-04   1.5318756E+05   -1.7818128E+00
   3.0077319E-04   1.5193529E+05   -1.7812460E+00
   3.0216219E-04   1.5069365E+05   -1.7806788E+00
   3.0355761E-04   1.4946255E+05   -1.7801113E+00
   3.0495947E-04   1.4824189E+05   -1.7795434E+00
   3.0636780E-04   1.4703159E+05   -1.7789753E+00
   3.0778264E-04   1.4583155E+05   -1.7784069E+00
   3.0920401E-04   1.4464168E+05   -1.7778381E+00
   3.1063195E-04   1.4346190E+05   -1.7772691E+00
   3.1206648E-04   1.4229211E+05   -1.7766998E+00
   3.1350764E-04   1.4113224E+05   -1.7761302E+00
   3.1495545E-04   1.3998218E+05   -1.7755603E+00
   3.1640994E-04   1.3884186E+05   -1.7749901E+00
   3.1787116E-04   1.3771119E+05   -1.7744197E+00
   3.1933912E-04   1.3659009E+05   -1.7738491E+00
   3.2081386E-04   1.3547848E+05   -1.7732781E+00
   3.2229541E-04   1.3437626E+05   -1.7727070E+00
   3.2378381E-04   1.3328336E+05   -1.7721356E+00
   3.2527908E-04   1.3219970E+05   -1.7715639E+00
   3.2678125E-04   1.3112519E+05   -1.7709921E+00
   3.2829036E-04   1.3005976E+05   -1.7704200E+00
   3.2980644E-04   1.2900332E+05   -1.7698477E+00
   3.3132952E-04   1.2795581E+05   -1.7692752E+00
   3.3285963E-04   1.2691714E+05   -1.7687025E+00
   3.3439681E-04   1.2588723E+05   -1.7681295E+00
   3.3594109E-04   1.2486600E+05   -1.7675564E+00
   3.3749250E-04   1.2385339E+05   -1.7669831E+00
   3.3905108E-04   1.2284932E+05   -1.7664097E+00
   3.4061685E-04   1.2185370E+05   -1.7658360E+00
   3.4218986E-04   1.2086648E+05   -1.7652622E+00
   3.4377013E-04   1.1988757E+05   -1.7646882E+00
   3.4535769E-04   1.1891690E+05   -1.7641141E+00
   3.4695259E-04   1.1795440E+05   -1.7635398E+00
   3.4855485E-04   1.1700001E+05   -1.7629654E+00
   3.5016452E-04   1.1605364E+05   -1.7623908E+00
   3.5178161E-04   1.1511523E+05   -1.7618161E+00
   3.5340618E-04   1.1418472E+05   -1.7612413E+00
   3.5503824E-04   1.1326202E+05   -1.7606663E+00
   3.5667785E-04   1.1234708E+05   -1.7600913E+00
   3.5832502E-04   1.1143983E+05   -1.7595161E+00
   3.5997981E-04   1.1054019E+05   -1.7589408E+00
   3.6164223E-04   1.0964811E+05   -1.7583655E+00
   3.6331233E-04   1.0876351E+05   -1.7577900E+00
   3.6499015E-04   1.0788634E+05   -1.7572145E+00
   3.6667571E-04   1.0701653E+05   -1.7566389E+00
   3.6836906E-04   1.0615401E+05   -1.7560632E+00
   3.7007022E-04   1.0529872E+05   -1.7554874E+00
   3.7177925E-04   1.0445060E+05   -1.7549116E+00
   3.7349616E-04   1.0360958E+05   -1.7543358E+00
   3.7522101E-04   1.0277561E+05   -1.7537598E+00
   3.7695382E-04   1.0194863E+05   -1.7531839E+00
   3.7869463E-04   1.0112856E+05   -1.7526079E+00
   3.8044348E-04   1.0031536E+05   -1.7520319E+00
   3.8220041E-04   9.9508963E+04   -1.7514559E+00
   3.8396545E-04   9.8709310E+04   -1.7508798E+00
   3.8573864E-04   9.7916342E+04   -1.7503037E+00
   3.8752002E-04   9.7130002E+04   -1.7497277E+00
   3.8930963E-04   9.6350233E+04   -1.7491516E+00
   3.9110750E-04   9.5576977E+04   -1.7485755E+00
   3.9291368E-04   9.4810179E+04   -1.7479995E+00
   3.9472820E-04   9.4049782E+04   -1.7474235E+00
   3.9655109E-04   9.3295732E+04   -1.7468475E+00
   3.9838241E-04   9.2547972E+04   -1.7462715E+00
   4.0022218E-04   9.1806450E+04   -1.7456956E+00
   4.0207045E-04   9.1071111E+04   -1.7451197E+00
   4.0392725E-04   9.0341901E+04   -1.7445439E+00
   4.0579263E-04   8.9618768E+04   -1.7439681E+00
   4.0766662E-04   8.8901659E+04   -1.7433924E+00
   4.0954927E-04   8.8190522E+04   -1.7428168E+00
   4.1144061E-04   8.7485305E+04   -1.7422412E+00
   4.1334068E-04   8.6785958E+04   -1.7416657E+00
   4.1524953E-04   8.6092429E+04   -1.7410903E+00
   4.1716720E-04   8.5404669E+04   -1.7405150E+00
   4.1909372E-04   8.4722628E+04   -1.7399398E+00
   4.2102914E-04   8.4046256E+04   -1.7393647E+00
   4.2297350E-04   8.3375505E+04   -1.7387897E+00
   4.2492683E-04   8.2710326E+04   -1.7382148E+00
   4.2688919E-04   8.2050672E+04   -1.7376401E+00
   4.2886061E-04   8.1396494E+04   -1.7370655E+00
   4.3084113E-04   8.0747745E+04   -1.7364910E+00
   4.3283080E-04   8.0104379E+04   -1.7359167E+00
   4.3482966E-04   7.9466350E+04   -1.7353425E+00
   4.3683775E-04   7.8833611E+04   -1.7347684E+00
   4.3885511E-04   7.8206116E+04   -1.7341946E+00
   4.4088179E-04   7.7583822E+04   -1.7336209E+00
   4.4291783E-04   7.6966682E+04   -1.7330473E+00
   4.4496327E-04   7.6354654E+04   -1.7324740E+00
   4.4701816E-04   7.5747692E+04   -1.7319008E+00
   4.4908253E-04   7.5145753E+04   -1.7313278E+00
   4.5115644E-04   7.4548795E+04   -1.7307550E+00
   4.5323993E-04   7.3956774E+04   -1.7301824E+00
   4.5533304E-04   7.3369648E+04   -1.7296100E+00
   4.5743582E-04   7.2787375E+04   -1.7290379E+00
   4.5954830E-04   7.2209914E+04   -1.7284659E+00
   4.6167054E-04   7.1637222E+04   -1.7278942E+00
   4.6380259E-04   7.1069260E+04   -1.7273227E+00
   4.6594448E-04   7.0505986E+04   -1.7267515E+00
   4.6809626E-04   6.9947360E+04   -1.7261805E+00
   4.7025797E-04   6.9393343E+04   -1.7256097E+00
   4.7242967E-04   6.8843896E+04   -1.7250392E+00
   4.7461140E-04   6.8298978E+04   -1.7244690E+00
   4.7680321E-04   6.7758551E+04   -1.7238990E+00
   4.7900514E-04   6.7222577E+04   -1.7233293E+00
   4.8121723E-04   6.6691018E+04   -1.7227599E+00
   4.8343954E-04   6.6163835E+04   -1.7221907E+00
   4.8567212E-04   6.5640992E+04   -1.7216219E+00
   4.8791500E-04   6.5122451E+04   -1.7210533E+00
   4.9016825E-04   6.4608176E+04   -1.7204851E+00
   4.9243189E-04   6.4098130E+04   -1.7199171E+00
   4.9470600E-04   6.3592276E+04   -1.7193495E+00
   4.9699060E-04   6.3090580E+04   -1.7187822E+00
   4.9928575E-04   6.2593005E+04   -1.7182152E+00
   5.0159151E-04   6.2099516E+04   -1.7176486E+00
   5.0390791E-04   6.1610079E+04   -1.7170823E+00
   5.0623501E-04   6.1124659E+04   -1.7165163E+00
   5.0857286E-04   6.0643222E+04   -1.7159507E+00
   5.1092150E-04   6.0165733E+04   -1.7153854E+00
   5.1328099E-04   5.9692160E+04   -1.7148205E+00
   5.1565137E-04   5.9222468E+04   -1.7142559E+00
   5.1803270E-04   5.8756625E+04   -1.7136918E+00
   5.2042503E-04   5.8294597E+04   -1.7131279E+00
   5.2282841E-04   5.7836353E+04   -1.7125645E+00
   5.2524289E-04   5.7381860E+04   -1.7120015E+00
   5.2766851E-04   5.6931086E+04   -1.7114389E+00
   5.3010534E-04   5.6484000E+04   -1.7108766E+00
   5.3255342E-04   5.6040569E+04   -1.7103148E+00
   5.3501281E-04   5.5600764E+04   -1.7097533E+00
   5.3748356E-04   5.5164553E+04   -1.7091923E+00
   5.3996571E-04   5.4731906E+04   -1.7086317E+00
   5.4245933E-04   5.4302792E+04   -1.7080716E+00
   5.4496446E-04   5.3877181E+04   -1.7075118E+00
   5.4748117E-04   5.3455044E+04   -1.7069525E+00
   5.5000949E-04   5.3036352E+04   -1.7063937E+00
   5.5254949E-04   5.2621074E+04   -1.7058353E+00
   5.5510123E-04   5.2209182E+04   -1.7052773E+00
   5.5766474E-04   5.1800647E+04   -1.7047198E+00
   5.6024010E-04   5.1395441E+04   -1.7041628E+00
   5.6282734E-04   5.0993535E+04   -1.7036062E+00
   5.6542654E-04   5.0594902E+04   -1.7030501E+00
   5.6803774E-04   5.0199514E+04   -1.7024945E+00
   5.7066099E-04   4.9807343E+04   -1.7019394E+00
   5.7329637E-04   4.9418362E+04   -1.7013847E+00
   5.7594391E-04   4.9032545E+04   -1.7008306E+00
   5.7860368E-04   4.8649863E+04   -1.7002770E+00
   5.8127573E-04   4.8270292E+04   -1.6997238E+00
   5.8396012E-04   4.7893803E+04   -1.6991712E+00
   5.8665691E-04   4.7520373E+04   -1.6986191E+00
   5.8936616E-04   4.7149973E+04   -1.6980675E+00
   5.9208791E-04   4.6782580E+04   -1.6975164E+00
   5.9482223E-04   4.6418167E+04   -1.6969659E+00
   5.9756919E-04   4.6056710E+04   -1.6964159E+00
   6.0032882E-04   4.5698183E+04   -1.6958665E+00
   6.0310120E-04   4.5342561E+04   -1.6953176E+00
   6.0588639E-04   4.4989821E+04   -1.6947692E+00
   6.0868443E-04   4.4639938E+04   -1.6942214E+00
   6.1149540E-04   4.4292887E+04   -1.6936742E+00
   6.1431935E-04   4.3948646E+04   -1.6931275E+00
   6.1715634E-04   4.3607189E+04   -1.6925814E+00
   6.2000644E-04   4.3268494E+04   -1.6920359E+00
   6.2286969E-04   4.2932538E+04   -1.6914909E+00
