#        a       HoverH0(a)       dlogHdloga_of_a(a)
   1.0000000E-04   1.1311273E+06   -1.8679861E+00
   1.0046181E-04   1.1214349E+06   -1.8675380E+00
   1.0092575E-04   1.1118280E+06   -1.8670888E+00
   1.0139184E-04   1.1023056E+06   -1.8666387E+00
   1.0186008E-04   1.0928670E+06   -1.8661877E+00
   1.0233048E-04   1.0835115E+06   -1.8657356E+00
   1.0280305E-04   1.0742383E+06   -1.8652826E+00
   1.0327781E-04   1.0650467E+06   -1.8648287E+00
   1.0375475E-04   1.0559360E+06   -1.8643738E+00
   1.0423390E-04   1.0469054E+06   -1.8639179E+00
   1.0471527E-04   1.0379542E+06   -1.8634610E+00
   1.0519885E-04   1.0290817E+06   -1.8630032E+00
   1.0568467E-04   1.0202872E+06   -1.8625445E+00
   1.0617274E-04   1.0115700E+06   -1.8620848E+00
   1.0666305E-04   1.0029294E+06   -1.8616241E+00
   1.0715563E-04   9.9436477E+05   -1.8611625E+00
   1.0765049E-04   9.8587534E+05   -1.8607000E+00
   1.0814763E-04   9.7746048E+05   -1.8602365E+00
   1.0864707E-04   9.6911951E+05   -1.8597720E+00
   1.0914881E-04   9.6085178E+05   -1.8593066E+00
   1.0965287E-04   9.5265662E+05   -1.8588403E+00
   1.1015926E-04   9.4453340E+05   -1.8583731E+00
   1.1066799E-04   9.3648145E+05   -1.8579049E+00
   1.1117906E-04   9.2850016E+05   -1.8574358E+00
   1.1169250E-04   9.2058887E+05   -1.8569657E+00
   1.1220831E-04   9.1274697E+05   -1.8564947E+00
   1.1272650E-04   9.0497384E+05   -1.8560228E+00
   1.1324708E-04   8.9726886E+05   -1.8555500E+00
   1.1377007E-04   8.8963142E+05   -1.8550762E+00
   1.1429547E-04   8.8206092E+05   -1.8546016E+00
   1.1482330E-04   8.7455676E+05   -1.8541260E+00
   1.1535356E-04   8.6711834E+05   -1.8536495E+00
   1.1588628E-04   8.5974507E+05   -1.8531721E+00
   1.1642145E-04   8.5243638E+05   -1.8526938E+00
   1.1695910E-04   8.4519168E+05   -1.8522145E+00
   1.1749923E-04   8.3801040E+05   -1.8517344E+00
   1.1804185E-04   8.3089198E+05   -1.8512534E+00
   1.1858698E-04   8.2383586E+05   -1.8507715E+00
   1.1913463E-04   8.1684147E+05   -1.8502886E+00
   1.1968481E-04   8.0990827E+05   -1.8498049E+00
   1.2023752E-04   8.0303571E+05   -1.8493203E+00
   1.2079279E-04   7.9622325E+05   -1.8488348E+00
   1.2135063E-04   7.8947035E+05   -1.8483484E+00
   1.2191104E-04   7.8277647E+05   -1.8478612E+00
   1.2247403E-04   7.7614110E+05   -1.8473730E+00
   1.2303963E-04   7.6956370E+05   -1.8468840E+00
   1.2360784E-04   7.6304377E+05   -1.8463941E+00
   1.2417868E-04   7.5658078E+05   -1.8459034E+00
   1.2475215E-04   7.5017423E+05   -1.8454117E+00
   1.2532826E-04   7.4382362E+05   -1.8449192E+00
   1.2590704E-04   7.3752845E+05   -1.8444259E+00
   1.2648850E-04   7.3128821E+05   -1.8439316E+00
   1.2707263E-04   7.2510243E+05   -1.8434366E+00
   1.2765947E-04   7.1897061E+05   -1.8429406E+00
   1.2824901E-04   7.1289228E+05   -1.8424439E+00
   1.2884128E-04   7.0686695E+05   -1.8419462E+00
   1.2943628E-04   7.0089416E+05   -1.8414478E+00
   1.3003403E-04   6.9497343E+05   -1.8409484E+00
   1.3063454E-04   6.8910431E+05   -1.8404483E+00
   1.3123783E-04   6.8328632E+05   -1.8399473E+00
   1.3184390E-04   6.7751902E+05   -1.8394455E+00
   1.3245277E-04   6.7180196E+05   -1.8389428E+00
   1.3306445E-04   6.6613468E+05   -1.8384394E+00
   1.3367895E-04   6.6051674E+05   -1.8379351E+00
   1.3429630E-04   6.5494770E+05   -1.8374300E+00
   1.3491649E-04   6.4942714E+05   -1.8369241E+00
   1.3553955E-04   6.4395460E+05   -1.8364173E+00
   1.3616548E-04   6.3852968E+05   -1.8359098E+00
   1.3679431E-04   6.3315194E+05   -1.8354014E+00
   1.3742604E-04   6.2782096E+05   -1.8348923E+00
   1.3806069E-04   6.2253633E+05   -1.8343823E+00
   1.3869827E-04   6.1729764E+05   -1.8338716E+00
   1.3933879E-04   6.1210446E+05   -1.8333601E+00
   1.3998227E-04   6.0695641E+05   -1.8328477E+00
   1.4062872E-04   6.0185308E+05   -1.8323346E+00
   1.4127816E-04   5.9679407E+05   -1.8318208E+00
   1.4193060E-04   5.9177899E+05   -1.8313061E+00
   1.4258605E-04   5.8680744E+05   -1.8307907E+00
   1.4324453E-04   5.8187904E+05   -1.8302745E+00
   1.4390605E-04   5.7699341E+05   -1.8297575E+00
   1.4457062E-04   5.7215016E+05   -1.8292398E+00
   1.4523826E-04   5.6734892E+05   -1.8287213E+00
   1.4590899E-04   5.6258932E+05   -1.8282021E+00
   1.4658281E-04   5.5787098E+05   -1.8276821E+00
   1.4725974E-04   5.5319354E+05   -1.8271614E+00
   1.4793981E-04   5.4855663E+05   -1.8266399E+00
   1.4862301E-04   5.4395990E+05   -1.8261177E+00
   1.4930936E-04   5.3940298E+05   -1.8255948E+00
   1.4999889E-04   5.3488553E+05   -1.8250711E+00
   1.5069160E-04   5.3040719E+05   -1.8245467E+00
   1.5138751E-04   5.2596762E+05   -1.8240216E+00
   1.5208663E-04   5.2156648E+05   -1.8234958E+00
   1.5278899E-04   5.1720341E+05   -1.8229693E+00
   1.5349458E-04   5.1287809E+05   -1.8224420E+00
   1.5420343E-04   5.0859017E+05   -1.8219141E+00
   1.5491556E-04   5.0433934E+05   -1.8213854E+00
   1.5563098E-04   5.0012525E+05   -1.8208561E+00
   1.5634970E-04   4.9594758E+05   -1.8203260E+00
   1.5707174E-04   4.9180601E+05   -1.8197953E+00
   1.5779711E-04   4.8770023E+05   -1.8192639E+00
   1.5852584E-04   4.8362990E+05   -1.8187318E+00
   1.5925792E-04   4.7959472E+05   -1.8181990E+00
   1.5999339E-04   4.7559437E+05   -1.8176656E+00
   1.6073226E-04   4.7162855E+05   -1.8171315E+00
   1.6147454E-04   4.6769696E+05   -1.8165967E+00
   1.6222024E-04   4.6379928E+05   -1.8160613E+00
   1.6296939E-04   4.5993522E+05   -1.8155252E+00
   1.6372200E-04   4.5610448E+05   -1.8149885E+00
   1.6447809E-04   4.5230676E+05   -1.8144511E+00
   1.6523767E-04   4.4854178E+05   -1.8139131E+00
   1.6600075E-04   4.4480924E+05   -1.8133745E+00
   1.6676736E-04   4.4110886E+05   -1.8128352E+00
   1.6753751E-04   4.3744034E+05   -1.8122953E+00
   1.6831122E-04   4.3380342E+05   -1.8117548E+00
   1.6908849E-04   4.3019780E+05   -1.8112137E+00
   1.6986936E-04   4.2662322E+05   -1.8106719E+00
   1.7065384E-04   4.2307940E+05   -1.8101296E+00
   1.7144193E-04   4.1956606E+05   -1.8095866E+00
   1.7223367E-04   4.1608294E+05   -1.8090431E+00
   1.7302906E-04   4.1262977E+05   -1.8084989E+00
   1.7382813E-04   4.0920629E+05   -1.8079542E+00
   1.7463089E-04   4.0581222E+05   -1.8074089E+00
   1.7543735E-04   4.0244733E+05   -1.8068630E+00
   1.7624754E-04   3.9911133E+05   -1.8063166E+00
   1.7706147E-04   3.9580399E+05   -1.8057695E+00
   1.7787916E-04   3.9252504E+05   -1.8052219E+00
   1.7870062E-04   3.8927424E+05   -1.8046738E+00
   1.7952588E-04   3.8605134E+05   -1.8041251E+00
   1.8035495E-04   3.8285609E+05   -1.8035759E+00
   1.8118785E-04   3.7968824E+05   -1.8030261E+00
   1.8202459E-04   3.7654756E+05   -1.8024757E+00
   1.8286520E-04   3.7343381E+05   -1.8019249E+00
   1.8370969E-04   3.7034675E+05   -1.8013735E+00
   1.8455808E-04   3.6728614E+05   -1.8008216E+00
   1.8541039E-04   3.6425175E+05   -1.8002691E+00
   1.8626663E-04   3.6124335E+05   -1.7997162E+00
   1.8712683E-04   3.5826071E+05   -1.7991628E+00
   1.8799100E-04   3.5530360E+05   -1.7986088E+00
   1.8885917E-04   3.5237181E+05   -1.7980544E+00
   1.8973134E-04   3.4946509E+05   -1.7974994E+00
   1.9060754E-04   3.4658324E+05   -1.7969440E+00
   1.9148778E-04   3.4372603E+05   -1.7963881E+00
   1.9237209E-04   3.4089326E+05   -1.7958317E+00
   1.9326049E-04   3.3808469E+05   -1.7952749E+00
   1.9415299E-04   3.3530013E+05   -1.7947175E+00
   1.9504960E-04   3.3253935E+05   -1.7941598E+00
   1.9595036E-04   3.2980216E+05   -1.7936015E+00
   1.9685528E-04   3.2708833E+05   -1.7930429E+00
   1.9776438E-04   3.2439767E+05   -1.7924837E+00
   1.9867768E-04   3.2172998E+05   -1.7919242E+00
   1.9959519E-04   3.1908504E+05   -1.7913642E+00
   2.0051694E-04   3.1646267E+05   -1.7908038E+00
   2.0144295E-04   3.1386266E+05   -1.7902429E+00
   2.0237324E-04   3.1128482E+05   -1.7896817E+00
   2.0330782E-04   3.0872894E+05   -1.7891200E+00
   2.0424671E-04   3.0619485E+05   -1.7885579E+00
   2.0518995E-04   3.0368234E+05   -1.7879954E+00
   2.0613754E-04   3.0119123E+05   -1.7874326E+00
   2.0708950E-04   2.9872132E+05   -1.7868693E+00
   2.0804586E-04   2.9627245E+05   -1.7863057E+00
   2.0900664E-04   2.9384441E+05   -1.7857416E+00
   2.0997185E-04   2.9143703E+05   -1.7851772E+00
   2.1094152E-04   2.8905012E+05   -1.7846125E+00
   2.1191567E-04   2.8668350E+05   -1.7840474E+00
   2.1289432E-04   2.8433701E+05   -1.7834819E+00
   2.1387749E-04   2.8201046E+05   -1.7829161E+00
   2.1486520E-04   2.7970367E+05   -1.7823499E+00
   2.1585747E-04   2.7741647E+05   -1.7817834E+00
   2.1685432E-04   2.7514870E+05   -1.7812166E+00
   2.1785578E-04   2.7290017E+05   -1.7806494E+00
   2.1886186E-04   2.7067073E+05   -1.7800819E+00
   2.1987259E-04   2.6846021E+05   -1.7795141E+00
   2.2088798E-04   2.6626843E+05   -1.7789460E+00
   2.2190807E-04   2.6409524E+05   -1.7783776E+00
   2.2293286E-04   2.6194048E+05   -1.7778089E+00
   2.2396239E-04   2.5980397E+05   -1.7772399E+00
   2.2499667E-04   2.5768557E+05   -1.7766706E+00
   2.2603573E-04   2.5558511E+05   -1.7761010E+00
   2.2707958E-04   2.5350244E+05   -1.7755312E+00
   2.2812826E-04   2.5143740E+05   -1.7749611E+00
   2.2918178E-04   2.4938983E+05   -1.7743907E+00
   2.3024017E-04   2.4735959E+05   -1.7738200E+00
   2.3130344E-04   2.4534653E+05   -1.7732492E+00
   2.3237162E-04   2.4335048E+05   -1.7726780E+00
   2.3344474E-04   2.4137131E+05   -1.7721067E+00
   2.3452281E-04   2.3940887E+05   -1.7715351E+00
   2.3560586E-04   2.3746301E+05   -1.7709632E+00
   2.3669392E-04   2.3553359E+05   -1.7703912E+00
   2.3778699E-04   2.3362046E+05   -1.7698189E+00
   2.3888512E-04   2.3172347E+05   -1.7692465E+00
   2.3998831E-04   2.2984250E+05   -1.7686738E+00
   2.4109661E-04   2.2797740E+05   -1.7681009E+00
   2.4221001E-04   2.2612803E+05   -1.7675278E+00
   2.4332857E-04   2.2429425E+05   -1.7669546E+00
   2.4445228E-04   2.2247594E+05   -1.7663812E+00
   2.4558119E-04   2.2067294E+05   -1.7658076E+00
   2.4671531E-04   2.1888514E+05   -1.7652338E+00
   2.4785467E-04   2.1711240E+05   -1.7646599E+00
   2.4899928E-04   2.1535458E+05   -1.7640858E+00
   2.5014919E-04   2.1361156E+05   -1.7635115E+00
   2.5130440E-04   2.1188321E+05   -1.7629371E+00
   2.5246495E-04   2.1016939E+05   -1.7623626E+00
   2.5363086E-04   2.0847000E+05   -1.7617880E+00
   2.5480216E-04   2.0678489E+05   -1.7612132E+00
   2.5597886E-04   2.0511394E+05   -1.7606383E+00
   2.5716100E-04   2.0345704E+05   -1.7600633E+00
   2.5834859E-04   2.0181405E+05   -1.7594882E+00
   2.5954168E-04   2.0018487E+05   -1.7589130E+00
   2.6074027E-04   1.9856936E+05   -1.7583376E+00
   2.6194439E-04   1.9696741E+05   -1.7577622E+00
   2.6315408E-04   1.9537890E+05   -1.7571868E+00
   2.6436935E-04   1.9380372E+05   -1.7566112E+00
   2.6559024E-04   1.9224175E+05   -1.7560356E+00
   2.6681676E-04   1.9069287E+05   -1.7554599E+00
   2.6804895E-04   1.8915697E+05   -1.7548841E+00
   2.6928683E-04   1.8763395E+05   -1.7543083E+00
   2.7053042E-04   1.8612367E+05   -1.7537325E+00
   2.7177976E-04   1.8462605E+05   -1.7531566E+00
   2.7303487E-04   1.8314096E+05   -1.7525807E+00
   2.7429577E-04   1.8166830E+05   -1.7520047E+00
   2.7556250E-04   1.8020795E+05   -1.7514287E+00
   2.7683507E-04   1.7875983E+05   -1.7508527E+00
   2.7811353E-04   1.7732380E+05   -1.7502767E+00
   2.7939788E-04   1.7589979E+05   -1.7497007E+00
   2.8068817E-04   1.7448767E+05   -1.7491247E+00
   2.8198442E-04   1.7308734E+05   -1.7485487E+00
   2.8328665E-04   1.7169872E+05   -1.7479728E+00
   2.8459490E-04   1.7032168E+05   -1.7473968E+00
   2.8590919E-04   1.6895613E+05   -1.7468209E+00
   2.8722955E-04   1.6760198E+05   -1.7462450E+00
   2.8855600E-04   1.6625912E+05   -1.7456691E+00
   2.8988859E-04   1.6492746E+05   -1.7450933E+00
   2.9122732E-04   1.6360690E+05   -1.7445176E+00
   2.9257224E-04   1.6229735E+05   -1.7439419E+00
   2.9392337E-04   1.6099870E+05   -1.7433662E+00
   2.9528074E-04   1.5971087E+05   -1.7427906E+00
   2.9664438E-04   1.5843375E+05   -1.7422152E+00
   2.9801431E-04   1.5716727E+05   -1.7416397E+00
   2.9939057E-04   1.5591133E+05   -1.7410644E+00
   3.0077319E-04   1.5466583E+05   -1.7404892E+00
   3.0216219E-04   1.5343069E+05   -1.7399141E+00
   3.0355761E-04   1.5220581E+05   -1.7393390E+00
   3.0495947E-04   1.5099112E+05   -1.7387641E+00
   3.0636780E-04   1.4978651E+05   -1.7381893E+00
   3.0778264E-04   1.4859191E+05   -1.7376147E+00
   3.0920401E-04   1.4740722E+05   -1.7370401E+00
   3.1063195E-04   1.4623237E+05   -1.7364657E+00
   3.1206648E-04   1.4506727E+05   -1.7358915E+00
   3.1350764E-04   1.4391183E+05   -1.7353174E+00
   3.1495545E-04   1.4276597E+05   -1.7347434E+00
   3.1640994E-04   1.4162960E+05   -1.7341696E+00
   3.1787116E-04   1.4050266E+05   -1.7335960E+00
   3.1933912E-04   1.3938505E+05   -1.7330226E+00
   3.2081386E-04   1.3827669E+05   -1.7324493E+00
   3.2229541E-04   1.3717751E+05   -1.7318762E+00
   3.2378381E-04   1.3608743E+05   -1.7313033E+00
   3.2527908E-04   1.3500637E+05   -1.7307306E+00
   3.2678125E-04   1.3393424E+05   -1.7301581E+00
   3.2829036E-04   1.3287098E+05   -1.7295858E+00
   3.2980644E-04   1.3181651E+05   -1.7290137E+00
   3.3132952E-04   1.3077076E+05   -1.7284419E+00
   3.3285963E-04   1.2973364E+05   -1.7278703E+00
   3.3439681E-04   1.2870508E+05   -1.7272989E+00
   3.3594109E-04   1.2768502E+05   -1.7267277E+00
   3.3749250E-04   1.2667337E+05   -1.7261568E+00
   3.3905108E-04   1.2567007E+05   -1.7255861E+00
   3.4061685E-04   1.2467505E+05   -1.7250157E+00
   3.4218986E-04   1.2368822E+05   -1.7244456E+00
   3.4377013E-04   1.2270953E+05   -1.7238757E+00
   3.4535769E-04   1.2173891E+05   -1.7233061E+00
   3.4695259E-04   1.2077627E+05   -1.7227368E+00
   3.4855485E-04   1.1982157E+05   -1.7221677E+00
   3.5016452E-04   1.1887472E+05   -1.7215990E+00
   3.5178161E-04   1.1793566E+05   -1.7210306E+00
   3.5340618E-04   1.1700433E+05   -1.7204624E+00
   3.5503824E-04   1.1608066E+05   -1.7198946E+00
   3.5667785E-04   1.1516458E+05   -1.7193270E+00
   3.5832502E-04   1.1425603E+05   -1.7187598E+00
   3.5997981E-04   1.1335494E+05   -1.7181930E+00
   3.6164223E-04   1.1246125E+05   -1.7176264E+00
   3.6331233E-04   1.1157490E+05   -1.7170602E+00
   3.6499015E-04   1.1069582E+05   -1.7164943E+00
   3.6667571E-04   1.0982396E+05   -1.7159288E+00
   3.6836906E-04   1.0895924E+05   -1.7153637E+00
   3.7007022E-04   1.0810162E+05   -1.7147989E+00
   3.7177925E-04   1.0725103E+05   -1.7142344E+00
   3.7349616E-04   1.0640740E+05   -1.7136704E+00
   3.7522101E-04   1.0557069E+05   -1.7131067E+00
   3.7695382E-04   1.0474082E+05   -1.7125434E+00
   3.7869463E-04   1.0391775E+05   -1.7119804E+00
   3.8044348E-04   1.0310142E+05   -1.7114179E+00
   3.8220041E-04   1.0229176E+05   -1.7108558E+00
   3.8396545E-04   1.0148872E+05   -1.7102941E+00
   3.8573864E-04   1.0069225E+05   -1.7097328E+00
   3.8752002E-04   9.9902288E+04   -1.7091719E+00
   3.8930963E-04   9.9118779E+04   -1.7086114E+00
   3.9110750E-04   9.8341668E+04   -1.7080513E+00
   3.9291368E-04   9.7570902E+04   -1.7074917E+00
   3.9472820E-04   9.6806426E+04   -1.7069325E+00
   3.9655109E-04   9.6048187E+04   -1.7063738E+00
   3.9838241E-04   9.5296132E+04   -1.7058155E+00
   4.0022218E-04   9.4550209E+04   -1.7052577E+00
   4.0207045E-04   9.3810366E+04   -1.7047003E+00
   4.0392725E-04   9.3076551E+04   -1.7041434E+00
   4.0579263E-04   9.2348713E+04   -1.7035870E+00
   4.0766662E-04   9.1626802E+04   -1.7030310E+00
   4.0954927E-04   9.0910766E+04   -1.7024755E+00
   4.1144061E-04   9.0200557E+04   -1.7019205E+00
   4.1334068E-04   8.9496125E+04   -1.7013660E+00
   4.1524953E-04   8.8797421E+04   -1.7008120E+00
   4.1716720E-04   8.8104396E+04   -1.7002585E+00
   4.1909372E-04   8.7417003E+04   -1.6997055E+00
   4.2102914E-04   8.6735194E+04   -1.6991530E+00
   4.2297350E-04   8.6058922E+04   -1.6986010E+00
   4.2492683E-04   8.5388139E+04   -1.6980496E+00
   4.2688919E-04   8.4722801E+04   -1.6974986E+00
   4.2886061E-04   8.4062860E+04   -1.6969482E+00
   4.3084113E-04   8.3408271E+04   -1.6963984E+00
   4.3283080E-04   8.2758988E+04   -1.6958491E+00
   4.3482966E-04   8.2114968E+04   -1.6953003E+00
   4.3683775E-04   8.1476165E+04   -1.6947521E+00
   4.3885511E-04   8.0842536E+04   -1.6942044E+00
   4.4088179E-04   8.0214036E+04   -1.6936573E+00
   4.4291783E-04   7.9590624E+04   -1.6931108E+00
   4.4496327E-04   7.8972255E+04   -1.6925648E+00
   4.4701816E-04   7.8358887E+04   -1.6920194E+00
   4.4908253E-04   7.7750479E+04   -1.6914746E+00
   4.5115644E-04   7.7146988E+04   -1.6909304E+00
   4.5323993E-04   7.6548374E+04   -1.6903868E+00
   4.5533304E-04   7.5954594E+04   -1.6898438E+00
   4.5743582E-04   7.5365609E+04   -1.6893013E+00
   4.5954830E-04   7.4781378E+04   -1.6887595E+00
   4.6167054E-04   7.4201861E+04   -1.6882183E+00
   4.6380259E-04   7.3627018E+04   -1.6876777E+00
   4.6594448E-04   7.3056811E+04   -1.6871377E+00
   4.6809626E-04   7.2491199E+04   -1.6865984E+00
   4.7025797E-04   7.1930146E+04   -1.6860597E+00
   4.7242967E-04   7.1373611E+04   -1.6855216E+00
   4.7461140E-04   7.0821558E+04   -1.6849841E+00
   4.7680321E-04   7.0273949E+04   -1.6844473E+00
   4.7900514E-04   6.9730747E+04   -1.6839111E+00
   4.8121723E-04   6.9191914E+04   -1.6833756E+00
   4.8343954E-04   6.8657415E+04   -1.6828408E+00
   4.8567212E-04   6.8127212E+04   -1.6823066E+00
   4.8791500E-04   6.7601270E+04   -1.6817731E+00
   4.9016825E-04   6.7079553E+04   -1.6812402E+00
   4.9243189E-04   6.6562026E+04   -1.6807080E+00
   4.9470600E-04   6.6048653E+04   -1.6801765E+00
   4.9699060E-04   6.5539400E+04   -1.6796457E+00
   4.9928575E-04   6.5034233E+04   -1.6791156E+00
   5.0159151E-04   6.4533116E+04   -1.6785861E+00
   5.0390791E-04   6.4036018E+04   -1.6780574E+00
   5.0623501E-04   6.3542903E+04   -1.6775293E+00
   5.0857286E-04   6.3053738E+04   -1.6770020E+00
   5.1092150E-04   6.2568492E+04   -1.6764753E+00
   5.1328099E-04   6.2087130E+04   -1.6759494E+00
   5.1565137E-04   6.1609621E+04   -1.6754242E+00
   5.1803270E-04   6.1135932E+04   -1.6748997E+00
   5.2042503E-04   6.0666031E+04   -1.6743759E+00
   5.2282841E-04   6.0199888E+04   -1.6738529E+00
   5.2524289E-04   5.9737470E+04   -1.6733306E+00
   5.2766851E-04   5.9278746E+04   -1.6728090E+00
   5.3010534E-04   5.8823687E+04   -1.6722882E+00
   5.3255342E-04   5.8372260E+04   -1.6717681E+00
   5.3501281E-04   5.7924437E+04   -1.6712488E+00
   5.3748356E-04   5.7480187E+04   -1.6707302E+00
   5.3996571E-04   5.7039480E+04   -1.6702124E+00
   5.4245933E-04   5.6602287E+04   -1.6696953E+00
   5.4496446E-04   5.6168579E+04   -1.6691790E+00
   5.4748117E-04   5.5738326E+04   -1.6686635E+00
   5.5000949E-04   5.5311501E+04   -1.6681487E+00
   5.5254949E-04   5.4888074E+04   -1.6676347E+00
   5.5510123E-04   5.4468017E+04   -1.6671215E+00
   5.5766474E-04   5.4051303E+04   -1.6666091E+00
   5.6024010E-04   5.3637904E+04   -1.6660974E+00
   5.6282734E-04   5.3227791E+04   -1.6655866E+00
   5.6542654E-04   5.2820939E+04   -1.6650765E+00
   5.6803774E-04   5.2417319E+04   -1.6645672E+00
   5.7066099E-04   5.2016906E+04   -1.6640588E+00
   5.7329637E-04   5.1619672E+04   -1.6635511E+00
   5.7594391E-04   5.1225591E+04   -1.6630442E+00
   5.7860368E-04   5.0834638E+04   -1.6625382E+00
   5.8127573E-04   5.0446786E+04   -1.6620330E+00
   5.8396012E-04   5.0062009E+04   -1.6615286E+00
   5.8665691E-04   4.9680283E+04   -1.6610250E+00
   5.8936616E-04   4.9301582E+04   -1.6605222E+00
   5.9208791E-04   4.8925881E+04   -1.6600203E+00
   5.9482223E-04   4.8553154E+04   -1.6595191E+00
   5.9756919E-04   4.8183379E+04   -1.6590189E+00
   6.0032882E-04   4.7816530E+04   -1.6585194E+00
   6.0310120E-04   4.7452583E+04   -1.6580208E+00
   6.0588639E-04   4.7091514E+04   -1.6575231E+00
   6.0868443E-04   4.6733299E+04   -1.6570262E+00
   6.1149540E-04   4.6377916E+04   -1.6565301E+00
   6.1431935E-04   4.6025340E+04   -1.6560349E+00
   6.1715634E-04   4.5675549E+04   -1.6555405E+00
   6.2000644E-04   4.5328520E+04   -1.6550471E+00
   6.2286969E-04   4.4984229E+04   -1.6545544E+00
