#        a       HoverH0(a)       dlogHdloga_of_a(a)
   1.0000000E-04   1.1196423E+06   -1.8412073E+00
   1.0046181E-04   1.1101855E+06   -1.8407076E+00
   1.0092575E-04   1.1008111E+06   -1.8402070E+00
   1.0139184E-04   1.0915183E+06   -1.8397056E+00
   1.0186008E-04   1.0823066E+06   -1.8392034E+00
   1.0233048E-04   1.0731750E+06   -1.8387004E+00
   1.0280305E-04   1.0641229E+06   -1.8381965E+00
   1.0327781E-04   1.0551497E+06   -1.8376919E+00
   1.0375475E-04   1.0462546E+06   -1.8371864E+00
   1.0423390E-04   1.0374368E+06   -1.8366801E+00
   1.0471527E-04   1.0286958E+06   -1.8361730E+00
   1.0519885E-04   1.0200308E+06   -1.8356650E+00
   1.0568467E-04   1.0114412E+06   -1.8351563E+00
   1.0617274E-04   1.0029262E+06   -1.8346468E+00
   1.0666305E-04   9.9448532E+05   -1.8341365E+00
   1.0715563E-04   9.8611776E+05   -1.8336254E+00
   1.0765049E-04   9.7782291E+05   -1.8331135E+00
   1.0814763E-04   9.6960012E+05   -1.8326008E+00
   1.0864707E-04   9.6144875E+05   -1.8320873E+00
   1.0914881E-04   9.5336817E+05   -1.8315731E+00
   1.0965287E-04   9.4535774E+05   -1.8310580E+00
   1.1015926E-04   9.3741684E+05   -1.8305423E+00
   1.1066799E-04   9.2954486E+05   -1.8300257E+00
   1.1117906E-04   9.2174117E+05   -1.8295084E+00
   1.1169250E-04   9.1400518E+05   -1.8289903E+00
   1.1220831E-04   9.0633628E+05   -1.8284715E+00
   1.1272650E-04   8.9873388E+05   -1.8279519E+00
   1.1324708E-04   8.9119738E+05   -1.8274316E+00
   1.1377007E-04   8.8372620E+05   -1.8269105E+00
   1.1429547E-04   8.7631976E+05   -1.8263887E+00
   1.1482330E-04   8.6897748E+05   -1.8258661E+00
   1.1535356E-04   8.6169880E+05   -1.8253429E+00
   1.1588628E-04   8.5448315E+05   -1.8248189E+00
   1.1642145E-04   8.4732996E+05   -1.8242941E+00
   1.1695910E-04   8.4023869E+05   -1.8237687E+00
   1.1749923E-04   8.3320878E+05   -1.8232425E+00
   1.1804185E-04   8.2623970E+05   -1.8227157E+00
   1.1858698E-04   8.1933089E+05   -1.8221881E+00
   1.1913463E-04   8.1248183E+05   -1.8216598E+00
   1.1968481E-04   8.0569199E+05   -1.8211308E+00
   1.2023752E-04   7.9896083E+05   -1.8206011E+00
   1.2079279E-04   7.9228785E+05   -1.8200708E+00
   1.2135063E-04   7.8567253E+05   -1.8195397E+00
   1.2191104E-04   7.7911434E+05   -1.8190080E+00
   1.2247403E-04   7.7261279E+05   -1.8184756E+00
   1.2303963E-04   7.6616738E+05   -1.8179425E+00
   1.2360784E-04   7.5977761E+05   -1.8174088E+00
   1.2417868E-04   7.5344297E+05   -1.8168744E+00
   1.2475215E-04   7.4716300E+05   -1.8163393E+00
   1.2532826E-04   7.4093719E+05   -1.8158036E+00
   1.2590704E-04   7.3476508E+05   -1.8152672E+00
   1.2648850E-04   7.2864618E+05   -1.8147302E+00
   1.2707263E-04   7.2258003E+05   -1.8141925E+00
   1.2765947E-04   7.1656616E+05   -1.8136542E+00
   1.2824901E-04   7.1060410E+05   -1.8131153E+00
   1.2884128E-04   7.0469340E+05   -1.8125757E+00
   1.2943628E-04   6.9883361E+05   -1.8120355E+00
   1.3003403E-04   6.9302426E+05   -1.8114947E+00
   1.3063454E-04   6.8726492E+05   -1.8109533E+00
   1.3123783E-04   6.8155515E+05   -1.8104113E+00
   1.3184390E-04   6.7589450E+05   -1.8098687E+00
   1.3245277E-04   6.7028254E+05   -1.8093255E+00
   1.3306445E-04   6.6471884E+05   -1.8087816E+00
   1.3367895E-04   6.5920298E+05   -1.8082372E+00
   1.3429630E-04   6.5373453E+05   -1.8076922E+00
   1.3491649E-04   6.4831307E+05   -1.8071467E+00
   1.3553955E-04   6.4293818E+05   -1.8066005E+00
   1.3616548E-04   6.3760947E+05   -1.8060538E+00
   1.3679431E-04   6.3232651E+05   -1.8055065E+00
   1.3742604E-04   6.2708891E+05   -1.8049587E+00
   1.3806069E-04   6.2189626E+05   -1.8044103E+00
   1.3869827E-04   6.1674817E+05   -1.8038613E+00
   1.3933879E-04   6.1164424E+05   -1.8033118E+00
   1.3998227E-04   6.0658409E+05   -1.8027618E+00
   1.4062872E-04   6.0156732E+05   -1.8022112E+00
   1.4127816E-04   5.9659356E+05   -1.8016601E+00
   1.4193060E-04   5.9166243E+05   -1.8011085E+00
   1.4258605E-04   5.8677355E+05   -1.8005564E+00
   1.4324453E-04   5.8192654E+05   -1.8000037E+00
   1.4390605E-04   5.7712104E+05   -1.7994505E+00
   1.4457062E-04   5.7235669E+05   -1.7988969E+00
   1.4523826E-04   5.6763311E+05   -1.7983427E+00
   1.4590899E-04   5.6294996E+05   -1.7977880E+00
   1.4658281E-04   5.5830687E+05   -1.7972329E+00
   1.4725974E-04   5.5370350E+05   -1.7966772E+00
   1.4793981E-04   5.4913948E+05   -1.7961211E+00
   1.4862301E-04   5.4461449E+05   -1.7955645E+00
   1.4930936E-04   5.4012816E+05   -1.7950075E+00
   1.4999889E-04   5.3568017E+05   -1.7944499E+00
   1.5069160E-04   5.3127017E+05   -1.7938920E+00
   1.5138751E-04   5.2689783E+05   -1.7933335E+00
   1.5208663E-04   5.2256282E+05   -1.7927746E+00
   1.5278899E-04   5.1826481E+05   -1.7922153E+00
   1.5349458E-04   5.1400348E+05   -1.7916556E+00
   1.5420343E-04   5.0977850E+05   -1.7910954E+00
   1.5491556E-04   5.0558956E+05   -1.7905348E+00
   1.5563098E-04   5.0143633E+05   -1.7899738E+00
   1.5634970E-04   4.9731851E+05   -1.7894123E+00
   1.5707174E-04   4.9323577E+05   -1.7888505E+00
   1.5779711E-04   4.8918782E+05   -1.7882882E+00
   1.5852584E-04   4.8517435E+05   -1.7877256E+00
   1.5925792E-04   4.8119506E+05   -1.7871625E+00
   1.5999339E-04   4.7724964E+05   -1.7865991E+00
   1.6073226E-04   4.7333780E+05   -1.7860353E+00
   1.6147454E-04   4.6945924E+05   -1.7854711E+00
   1.6222024E-04   4.6561368E+05   -1.7849066E+00
   1.6296939E-04   4.6180082E+05   -1.7843417E+00
   1.6372200E-04   4.5802037E+05   -1.7837764E+00
   1.6447809E-04   4.5427206E+05   -1.7832108E+00
   1.6523767E-04   4.5055559E+05   -1.7826448E+00
   1.6600075E-04   4.4687070E+05   -1.7820785E+00
   1.6676736E-04   4.4321710E+05   -1.7815118E+00
   1.6753751E-04   4.3959452E+05   -1.7809449E+00
   1.6831122E-04   4.3600268E+05   -1.7803776E+00
   1.6908849E-04   4.3244133E+05   -1.7798099E+00
   1.6986936E-04   4.2891019E+05   -1.7792420E+00
   1.7065384E-04   4.2540899E+05   -1.7786738E+00
   1.7144193E-04   4.2193748E+05   -1.7781052E+00
   1.7223367E-04   4.1849540E+05   -1.7775364E+00
   1.7302906E-04   4.1508248E+05   -1.7769673E+00
   1.7382813E-04   4.1169848E+05   -1.7763979E+00
   1.7463089E-04   4.0834314E+05   -1.7758282E+00
   1.7543735E-04   4.0501620E+05   -1.7752582E+00
   1.7624754E-04   4.0171743E+05   -1.7746880E+00
   1.7706147E-04   3.9844657E+05   -1.7741176E+00
   1.7787916E-04   3.9520338E+05   -1.7735468E+00
   1.7870062E-04   3.9198763E+05   -1.7729758E+00
   1.7952588E-04   3.8879906E+05   -1.7724046E+00
   1.8035495E-04   3.8563744E+05   -1.7718332E+00
   1.8118785E-04   3.8250254E+05   -1.7712615E+00
   1.8202459E-04   3.7939413E+05   -1.7706896E+00
   1.8286520E-04   3.7631196E+05   -1.7701174E+00
   1.8370969E-04   3.7325582E+05   -1.7695451E+00
   1.8455808E-04   3.7022548E+05   -1.7689725E+00
   1.8541039E-04   3.6722071E+05   -1.7683998E+00
   1.8626663E-04   3.6424128E+05   -1.7678268E+00
   1.8712683E-04   3.6128699E+05   -1.7672537E+00
   1.8799100E-04   3.5835760E+05   -1.7666804E+00
   1.8885917E-04   3.5545290E+05   -1.7661069E+00
   1.8973134E-04   3.5257268E+05   -1.7655332E+00
   1.9060754E-04   3.4971672E+05   -1.7649594E+00
   1.9148778E-04   3.4688481E+05   -1.7643854E+00
   1.9237209E-04   3.4407675E+05   -1.7638113E+00
   1.9326049E-04   3.4129232E+05   -1.7632370E+00
   1.9415299E-04   3.3853131E+05   -1.7626626E+00
   1.9504960E-04   3.3579354E+05   -1.7620880E+00
   1.9595036E-04   3.3307878E+05   -1.7615133E+00
   1.9685528E-04   3.3038685E+05   -1.7609385E+00
   1.9776438E-04   3.2771754E+05   -1.7603636E+00
   1.9867768E-04   3.2507066E+05   -1.7597886E+00
   1.9959519E-04   3.2244602E+05   -1.7592134E+00
   2.0051694E-04   3.1984341E+05   -1.7586382E+00
   2.0144295E-04   3.1726265E+05   -1.7580629E+00
   2.0237324E-04   3.1470355E+05   -1.7574875E+00
   2.0330782E-04   3.1216591E+05   -1.7569120E+00
   2.0424671E-04   3.0964956E+05   -1.7563364E+00
   2.0518995E-04   3.0715431E+05   -1.7557608E+00
   2.0613754E-04   3.0467998E+05   -1.7551851E+00
   2.0708950E-04   3.0222638E+05   -1.7546093E+00
   2.0804586E-04   2.9979333E+05   -1.7540335E+00
   2.0900664E-04   2.9738066E+05   -1.7534577E+00
   2.0997185E-04   2.9498819E+05   -1.7528818E+00
   2.1094152E-04   2.9261574E+05   -1.7523059E+00
   2.1191567E-04   2.9026315E+05   -1.7517299E+00
   2.1289432E-04   2.8793023E+05   -1.7511540E+00
   2.1387749E-04   2.8561682E+05   -1.7505780E+00
   2.1486520E-04   2.8332275E+05   -1.7500020E+00
   2.1585747E-04   2.8104785E+05   -1.7494261E+00
   2.1685432E-04   2.7879196E+05   -1.7488501E+00
   2.1785578E-04   2.7655491E+05   -1.7482741E+00
   2.1886186E-04   2.7433653E+05   -1.7476982E+00
   2.1987259E-04   2.7213668E+05   -1.7471223E+00
   2.2088798E-04   2.6995518E+05   -1.7465464E+00
   2.2190807E-04   2.6779188E+05   -1.7459705E+00
   2.2293286E-04   2.6564662E+05   -1.7453947E+00
   2.2396239E-04   2.6351924E+05   -1.7448190E+00
   2.2499667E-04   2.6140959E+05   -1.7442433E+00
   2.2603573E-04   2.5931752E+05   -1.7436676E+00
   2.2707958E-04   2.5724288E+05   -1.7430921E+00
   2.2812826E-04   2.5518551E+05   -1.7425166E+00
   2.2918178E-04   2.5314527E+05   -1.7419411E+00
   2.3024017E-04   2.5112200E+05   -1.7413658E+00
   2.3130344E-04   2.4911556E+05   -1.7407906E+00
   2.3237162E-04   2.4712581E+05   -1.7402154E+00
   2.3344474E-04   2.4515261E+05   -1.7396404E+00
   2.3452281E-04   2.4319580E+05   -1.7390654E+00
   2.3560586E-04   2.4125525E+05   -1.7384906E+00
   2.3669392E-04   2.3933082E+05   -1.7379159E+00
   2.3778699E-04   2.3742237E+05   -1.7373413E+00
   2.3888512E-04   2.3552976E+05   -1.7367669E+00
   2.3998831E-04   2.3365286E+05   -1.7361926E+00
   2.4109661E-04   2.3179152E+05   -1.7356184E+00
   2.4221001E-04   2.2994562E+05   -1.7350444E+00
   2.4332857E-04   2.2811503E+05   -1.7344706E+00
   2.4445228E-04   2.2629960E+05   -1.7338969E+00
   2.4558119E-04   2.2449922E+05   -1.7333234E+00
   2.4671531E-04   2.2271375E+05   -1.7327501E+00
   2.4785467E-04   2.2094306E+05   -1.7321769E+00
   2.4899928E-04   2.1918703E+05   -1.7316040E+00
   2.5014919E-04   2.1744553E+05   -1.7310312E+00
   2.5130440E-04   2.1571844E+05   -1.7304586E+00
   2.5246495E-04   2.1400563E+05   -1.7298863E+00
   2.5363086E-04   2.1230697E+05   -1.7293141E+00
   2.5480216E-04   2.1062236E+05   -1.7287422E+00
   2.5597886E-04   2.0895166E+05   -1.7281705E+00
   2.5716100E-04   2.0729477E+05   -1.7275990E+00
   2.5834859E-04   2.0565155E+05   -1.7270277E+00
   2.5954168E-04   2.0402189E+05   -1.7264567E+00
   2.6074027E-04   2.0240568E+05   -1.7258860E+00
   2.6194439E-04   2.0080280E+05   -1.7253155E+00
   2.6315408E-04   1.9921314E+05   -1.7247452E+00
   2.6436935E-04   1.9763658E+05   -1.7241753E+00
   2.6559024E-04   1.9607302E+05   -1.7236055E+00
   2.6681676E-04   1.9452233E+05   -1.7230361E+00
   2.6804895E-04   1.9298442E+05   -1.7224670E+00
   2.6928683E-04   1.9145916E+05   -1.7218981E+00
   2.7053042E-04   1.8994646E+05   -1.7213295E+00
   2.7177976E-04   1.8844620E+05   -1.7207613E+00
   2.7303487E-04   1.8695828E+05   -1.7201933E+00
   2.7429577E-04   1.8548260E+05   -1.7196257E+00
   2.7556250E-04   1.8401904E+05   -1.7190583E+00
   2.7683507E-04   1.8256751E+05   -1.7184913E+00
   2.7811353E-04   1.8112791E+05   -1.7179246E+00
   2.7939788E-04   1.7970012E+05   -1.7173583E+00
   2.8068817E-04   1.7828405E+05   -1.7167923E+00
   2.8198442E-04   1.7687961E+05   -1.7162266E+00
   2.8328665E-04   1.7548668E+05   -1.7156613E+00
   2.8459490E-04   1.7410518E+05   -1.7150964E+00
   2.8590919E-04   1.7273500E+05   -1.7145318E+00
   2.8722955E-04   1.7137605E+05   -1.7139676E+00
   2.8855600E-04   1.7002823E+05   -1.7134037E+00
   2.8988859E-04   1.6869145E+05   -1.7128402E+00
   2.9122732E-04   1.6736562E+05   -1.7122772E+00
   2.9257224E-04   1.6605064E+05   -1.7117145E+00
   2.9392337E-04   1.6474641E+05   -1.7111522E+00
   2.9528074E-04   1.6345286E+05   -1.7105903E+00
   2.9664438E-04   1.6216987E+05   -1.7100288E+00
   2.9801431E-04   1.6089738E+05   -1.7094677E+00
   2.9939057E-04   1.5963528E+05   -1.7089071E+00
   3.0077319E-04   1.5838350E+05   -1.7083469E+00
   3.0216219E-04   1.5714193E+05   -1.7077871E+00
   3.0355761E-04   1.5591050E+05   -1.7072277E+00
   3.0495947E-04   1.5468912E+05   -1.7066688E+00
   3.0636780E-04   1.5347770E+05   -1.7061103E+00
   3.0778264E-04   1.5227616E+05   -1.7055523E+00
   3.0920401E-04   1.5108441E+05   -1.7049947E+00
   3.1063195E-04   1.4990237E+05   -1.7044376E+00
   3.1206648E-04   1.4872997E+05   -1.7038809E+00
   3.1350764E-04   1.4756711E+05   -1.7033248E+00
   3.1495545E-04   1.4641372E+05   -1.7027691E+00
   3.1640994E-04   1.4526972E+05   -1.7022139E+00
   3.1787116E-04   1.4413502E+05   -1.7016592E+00
   3.1933912E-04   1.4300955E+05   -1.7011049E+00
   3.2081386E-04   1.4189324E+05   -1.7005512E+00
   3.2229541E-04   1.4078599E+05   -1.6999980E+00
   3.2378381E-04   1.3968774E+05   -1.6994453E+00
   3.2527908E-04   1.3859841E+05   -1.6988931E+00
   3.2678125E-04   1.3751793E+05   -1.6983414E+00
   3.2829036E-04   1.3644622E+05   -1.6977902E+00
   3.2980644E-04   1.3538320E+05   -1.6972396E+00
   3.3132952E-04   1.3432880E+05   -1.6966895E+00
   3.3285963E-04   1.3328296E+05   -1.6961400E+00
   3.3439681E-04   1.3224559E+05   -1.6955910E+00
   3.3594109E-04   1.3121662E+05   -1.6950425E+00
   3.3749250E-04   1.3019600E+05   -1.6944946E+00
   3.3905108E-04   1.2918363E+05   -1.6939473E+00
   3.4061685E-04   1.2817946E+05   -1.6934005E+00
   3.4218986E-04   1.2718342E+05   -1.6928543E+00
   3.4377013E-04   1.2619543E+05   -1.6923086E+00
   3.4535769E-04   1.2521544E+05   -1.6917636E+00
   3.4695259E-04   1.2424336E+05   -1.6912191E+00
   3.4855485E-04   1.2327915E+05   -1.6906752E+00
   3.5016452E-04   1.2232272E+05   -1.6901319E+00
   3.5178161E-04   1.2137401E+05   -1.6895892E+00
   3.5340618E-04   1.2043297E+05   -1.6890472E+00
   3.5503824E-04   1.1949951E+05   -1.6885057E+00
   3.5667785E-04   1.1857359E+05   -1.6879648E+00
   3.5832502E-04   1.1765514E+05   -1.6874246E+00
   3.5997981E-04   1.1674409E+05   -1.6868849E+00
   3.6164223E-04   1.1584038E+05   -1.6863459E+00
   3.6331233E-04   1.1494396E+05   -1.6858076E+00
   3.6499015E-04   1.1405475E+05   -1.6852698E+00
   3.6667571E-04   1.1317270E+05   -1.6847328E+00
   3.6836906E-04   1.1229776E+05   -1.6841963E+00
   3.7007022E-04   1.1142985E+05   -1.6836605E+00
   3.7177925E-04   1.1056892E+05   -1.6831254E+00
   3.7349616E-04   1.0971491E+05   -1.6825909E+00
   3.7522101E-04   1.0886777E+05   -1.6820571E+00
   3.7695382E-04   1.0802744E+05   -1.6815239E+00
   3.7869463E-04   1.0719385E+05   -1.6809914E+00
   3.8044348E-04   1.0636696E+05   -1.6804596E+00
   3.8220041E-04   1.0554670E+05   -1.6799285E+00
   3.8396545E-04   1.0473303E+05   -1.6793981E+00
   3.8573864E-04   1.0392588E+05   -1.6788683E+00
   3.8752002E-04   1.0312521E+05   -1.6783393E+00
   3.8930963E-04   1.0233095E+05   -1.6778109E+00
   3.9110750E-04   1.0154306E+05   -1.6772832E+00
   3.9291368E-04   1.0076148E+05   -1.6767563E+00
   3.9472820E-04   9.9986152E+04   -1.6762300E+00
   3.9655109E-04   9.9217035E+04   -1.6757045E+00
   3.9838241E-04   9.8454072E+04   -1.6751797E+00
   4.0022218E-04   9.7697212E+04   -1.6746556E+00
   4.0207045E-04   9.6946405E+04   -1.6741323E+00
   4.0392725E-04   9.6201599E+04   -1.6736096E+00
   4.0579263E-04   9.5462746E+04   -1.6730877E+00
   4.0766662E-04   9.4729794E+04   -1.6725666E+00
   4.0954927E-04   9.4002696E+04   -1.6720462E+00
   4.1144061E-04   9.3281402E+04   -1.6715265E+00
   4.1334068E-04   9.2565864E+04   -1.6710076E+00
   4.1524953E-04   9.1856034E+04   -1.6704894E+00
   4.1716720E-04   9.1151864E+04   -1.6699720E+00
   4.1909372E-04   9.0453309E+04   -1.6694554E+00
   4.2102914E-04   8.9760320E+04   -1.6689395E+00
   4.2297350E-04   8.9072852E+04   -1.6684244E+00
   4.2492683E-04   8.8390859E+04   -1.6679101E+00
   4.2688919E-04   8.7714296E+04   -1.6673965E+00
   4.2886061E-04   8.7043117E+04   -1.6668837E+00
   4.3084113E-04   8.6377277E+04   -1.6663718E+00
   4.3283080E-04   8.5716733E+04   -1.6658605E+00
   4.3482966E-04   8.5061441E+04   -1.6653501E+00
   4.3683775E-04   8.4411356E+04   -1.6648405E+00
   4.3885511E-04   8.3766437E+04   -1.6643317E+00
   4.4088179E-04   8.3126639E+04   -1.6638237E+00
   4.4291783E-04   8.2491921E+04   -1.6633165E+00
   4.4496327E-04   8.1862240E+04   -1.6628101E+00
   4.4701816E-04   8.1237556E+04   -1.6623045E+00
   4.4908253E-04   8.0617826E+04   -1.6617997E+00
   4.5115644E-04   8.0003009E+04   -1.6612957E+00
   4.5323993E-04   7.9393066E+04   -1.6607926E+00
   4.5533304E-04   7.8787955E+04   -1.6602903E+00
   4.5743582E-04   7.8187637E+04   -1.6597888E+00
   4.5954830E-04   7.7592073E+04   -1.6592882E+00
   4.6167054E-04   7.7001222E+04   -1.6587884E+00
   4.6380259E-04   7.6415046E+04   -1.6582894E+00
   4.6594448E-04   7.5833507E+04   -1.6577913E+00
   4.6809626E-04   7.5256566E+04   -1.6572940E+00
   4.7025797E-04   7.4684185E+04   -1.6567976E+00
   4.7242967E-04   7.4116327E+04   -1.6563020E+00
   4.7461140E-04   7.3552955E+04   -1.6558072E+00
   4.7680321E-04   7.2994031E+04   -1.6553134E+00
   4.7900514E-04   7.2439519E+04   -1.6548204E+00
   4.8121723E-04   7.1889383E+04   -1.6543282E+00
   4.8343954E-04   7.1343586E+04   -1.6538369E+00
   4.8567212E-04   7.0802093E+04   -1.6533465E+00
   4.8791500E-04   7.0264869E+04   -1.6528570E+00
   4.9016825E-04   6.9731878E+04   -1.6523683E+00
   4.9243189E-04   6.9203086E+04   -1.6518805E+00
   4.9470600E-04   6.8678458E+04   -1.6513936E+00
   4.9699060E-04   6.8157960E+04   -1.6509076E+00
   4.9928575E-04   6.7641558E+04   -1.6504224E+00
   5.0159151E-04   6.7129218E+04   -1.6499382E+00
   5.0390791E-04   6.6620908E+04   -1.6494548E+00
   5.0623501E-04   6.6116593E+04   -1.6489724E+00
   5.0857286E-04   6.5616242E+04   -1.6484908E+00
   5.1092150E-04   6.5119822E+04   -1.6480101E+00
   5.1328099E-04   6.4627300E+04   -1.6475304E+00
   5.1565137E-04   6.4138646E+04   -1.6470515E+00
   5.1803270E-04   6.3653826E+04   -1.6465735E+00
   5.2042503E-04   6.3172810E+04   -1.6460965E+00
   5.2282841E-04   6.2695567E+04   -1.6456204E+00
   5.2524289E-04   6.2222065E+04   -1.6451451E+00
   5.2766851E-04   6.1752275E+04   -1.6446708E+00
   5.3010534E-04   6.1286165E+04   -1.6441975E+00
   5.3255342E-04   6.0823706E+04   -1.6437250E+00
   5.3501281E-04   6.0364868E+04   -1.6432534E+00
   5.3748356E-04   5.9909622E+04   -1.6427828E+00
   5.3996571E-04   5.9457937E+04   -1.6423131E+00
   5.4245933E-04   5.9009786E+04   -1.6418444E+00
   5.4496446E-04   5.8565138E+04   -1.6413766E+00
   5.4748117E-04   5.8123967E+04   -1.6409097E+00
   5.5000949E-04   5.7686243E+04   -1.6404437E+00
   5.5254949E-04   5.7251938E+04   -1.6399787E+00
   5.5510123E-04   5.6821024E+04   -1.6395146E+00
   5.5766474E-04   5.6393474E+04   -1.6390515E+00
   5.6024010E-04   5.5969261E+04   -1.6385893E+00
   5.6282734E-04   5.5548356E+04   -1.6381281E+00
   5.6542654E-04   5.5130735E+04   -1.6376678E+00
   5.6803774E-04   5.4716368E+04   -1.6372085E+00
   5.7066099E-04   5.4305231E+04   -1.6367501E+00
   5.7329637E-04   5.3897297E+04   -1.6362927E+00
   5.7594391E-04   5.3492540E+04   -1.6358362E+00
   5.7860368E-04   5.3090934E+04   -1.6353807E+00
   5.8127573E-04   5.2692454E+04   -1.6349261E+00
   5.8396012E-04   5.2297074E+04   -1.6344725E+00
   5.8665691E-04   5.1904769E+04   -1.6340199E+00
   5.8936616E-04   5.1515515E+04   -1.6335682E+00
   5.9208791E-04   5.1129286E+04   -1.6331176E+00
   5.9482223E-04   5.0746057E+04   -1.6326678E+00
   5.9756919E-04   5.0365806E+04   -1.6322191E+00
   6.0032882E-04   4.9988507E+04   -1.6317713E+00
   6.0310120E-04   4.9614136E+04   -1.6313245E+00
   6.0588639E-04   4.9242671E+04   -1.6308786E+00
   6.0868443E-04   4.8874087E+04   -1.6304338E+00
   6.1149540E-04   4.8508361E+04   -1.6299899E+00
   6.1431935E-04   4.8145470E+04   -1.6295470E+00
   6.1715634E-04   4.7785392E+04   -1.6291051E+00
   6.2000644E-04   4.7428103E+04   -1.6286642E+00
   6.2286969E-04   4.7073581E+04   -1.6282242E+00
