#        a       HoverH0(a)       dlogHdloga_of_a(a)
   1.0000000E-04   1.0756179E+06   -1.8565355E+00
   1.0046181E-04   1.0664575E+06   -1.8560637E+00
   1.0092575E-04   1.0573775E+06   -1.8555909E+00
   1.0139184E-04   1.0483770E+06   -1.8551173E+00
   1.0186008E-04   1.0394555E+06   -1.8546427E+00
   1.0233048E-04   1.0306121E+06   -1.8541672E+00
   1.0280305E-04   1.0218461E+06   -1.8536908E+00
   1.0327781E-04   1.0131570E+06   -1.8532134E+00
   1.0375475E-04   1.0045440E+06   -1.8527352E+00
   1.0423390E-04   9.9600633E+05   -1.8522561E+00
   1.0471527E-04   9.8754345E+05   -1.8517760E+00
   1.0519885E-04   9.7915465E+05   -1.8512951E+00
   1.0568467E-04   9.7083925E+05   -1.8508132E+00
   1.0617274E-04   9.6259662E+05   -1.8503305E+00
   1.0666305E-04   9.5442609E+05   -1.8498468E+00
   1.0715563E-04   9.4632703E+05   -1.8493623E+00
   1.0765049E-04   9.3829879E+05   -1.8488769E+00
   1.0814763E-04   9.3034074E+05   -1.8483906E+00
   1.0864707E-04   9.2245225E+05   -1.8479034E+00
   1.0914881E-04   9.1463271E+05   -1.8474154E+00
   1.0965287E-04   9.0688149E+05   -1.8469264E+00
   1.1015926E-04   8.9919799E+05   -1.8464366E+00
   1.1066799E-04   8.9158160E+05   -1.8459459E+00
   1.1117906E-04   8.8403173E+05   -1.8454544E+00
   1.1169250E-04   8.7654777E+05   -1.8449619E+00
   1.1220831E-04   8.6912914E+05   -1.8444687E+00
   1.1272650E-04   8.6177526E+05   -1.8439745E+00
   1.1324708E-04   8.5448555E+05   -1.8434795E+00
   1.1377007E-04   8.4725944E+05   -1.8429837E+00
   1.1429547E-04   8.4009636E+05   -1.8424870E+00
   1.1482330E-04   8.3299575E+05   -1.8419894E+00
   1.1535356E-04   8.2595704E+05   -1.8414910E+00
   1.1588628E-04   8.1897970E+05   -1.8409918E+00
   1.1642145E-04   8.1206316E+05   -1.8404917E+00
   1.1695910E-04   8.0520690E+05   -1.8399908E+00
   1.1749923E-04   7.9841037E+05   -1.8394891E+00
   1.1804185E-04   7.9167303E+05   -1.8389865E+00
   1.1858698E-04   7.8499437E+05   -1.8384831E+00
   1.1913463E-04   7.7837385E+05   -1.8379789E+00
   1.1968481E-04   7.7181097E+05   -1.8374738E+00
   1.2023752E-04   7.6530520E+05   -1.8369680E+00
   1.2079279E-04   7.5885605E+05   -1.8364613E+00
   1.2135063E-04   7.5246300E+05   -1.8359539E+00
   1.2191104E-04   7.4612555E+05   -1.8354456E+00
   1.2247403E-04   7.3984321E+05   -1.8349365E+00
   1.2303963E-04   7.3361550E+05   -1.8344267E+00
   1.2360784E-04   7.2744191E+05   -1.8339160E+00
   1.2417868E-04   7.2132197E+05   -1.8334045E+00
   1.2475215E-04   7.1525521E+05   -1.8328923E+00
   1.2532826E-04   7.0924115E+05   -1.8323793E+00
   1.2590704E-04   7.0327932E+05   -1.8318655E+00
   1.2648850E-04   6.9736926E+05   -1.8313509E+00
   1.2707263E-04   6.9151050E+05   -1.8308355E+00
   1.2765947E-04   6.8570259E+05   -1.8303194E+00
   1.2824901E-04   6.7994509E+05   -1.8298025E+00
   1.2884128E-04   6.7423753E+05   -1.8292849E+00
   1.2943628E-04   6.6857948E+05   -1.8287664E+00
   1.3003403E-04   6.6297049E+05   -1.8282473E+00
   1.3063454E-04   6.5741014E+05   -1.8277274E+00
   1.3123783E-04   6.5189798E+05   -1.8272067E+00
   1.3184390E-04   6.4643359E+05   -1.8266853E+00
   1.3245277E-04   6.4101654E+05   -1.8261632E+00
   1.3306445E-04   6.3564642E+05   -1.8256403E+00
   1.3367895E-04   6.3032281E+05   -1.8251167E+00
   1.3429630E-04   6.2504529E+05   -1.8245924E+00
   1.3491649E-04   6.1981346E+05   -1.8240674E+00
   1.3553955E-04   6.1462691E+05   -1.8235416E+00
   1.3616548E-04   6.0948523E+05   -1.8230151E+00
   1.3679431E-04   6.0438804E+05   -1.8224880E+00
   1.3742604E-04   5.9933493E+05   -1.8219601E+00
   1.3806069E-04   5.9432552E+05   -1.8214315E+00
   1.3869827E-04   5.8935941E+05   -1.8209022E+00
   1.3933879E-04   5.8443622E+05   -1.8203722E+00
   1.3998227E-04   5.7955558E+05   -1.8198416E+00
   1.4062872E-04   5.7471710E+05   -1.8193102E+00
   1.4127816E-04   5.6992041E+05   -1.8187782E+00
   1.4193060E-04   5.6516514E+05   -1.8182455E+00
   1.4258605E-04   5.6045092E+05   -1.8177121E+00
   1.4324453E-04   5.5577740E+05   -1.8171781E+00
   1.4390605E-04   5.5114420E+05   -1.8166434E+00
   1.4457062E-04   5.4655097E+05   -1.8161080E+00
   1.4523826E-04   5.4199737E+05   -1.8155720E+00
   1.4590899E-04   5.3748302E+05   -1.8150353E+00
   1.4658281E-04   5.3300760E+05   -1.8144980E+00
   1.4725974E-04   5.2857076E+05   -1.8139601E+00
   1.4793981E-04   5.2417214E+05   -1.8134215E+00
   1.4862301E-04   5.1981142E+05   -1.8128823E+00
   1.4930936E-04   5.1548826E+05   -1.8123425E+00
   1.4999889E-04   5.1120233E+05   -1.8118020E+00
   1.5069160E-04   5.0695329E+05   -1.8112609E+00
   1.5138751E-04   5.0274082E+05   -1.8107193E+00
   1.5208663E-04   4.9856461E+05   -1.8101770E+00
   1.5278899E-04   4.9442432E+05   -1.8096341E+00
   1.5349458E-04   4.9031964E+05   -1.8090906E+00
   1.5420343E-04   4.8625025E+05   -1.8085465E+00
   1.5491556E-04   4.8221585E+05   -1.8080018E+00
   1.5563098E-04   4.7821613E+05   -1.8074566E+00
   1.5634970E-04   4.7425077E+05   -1.8069108E+00
   1.5707174E-04   4.7031947E+05   -1.8063644E+00
   1.5779711E-04   4.6642194E+05   -1.8058174E+00
   1.5852584E-04   4.6255787E+05   -1.8052699E+00
   1.5925792E-04   4.5872698E+05   -1.8047218E+00
   1.5999339E-04   4.5492895E+05   -1.8041731E+00
   1.6073226E-04   4.5116352E+05   -1.8036239E+00
   1.6147454E-04   4.4743038E+05   -1.8030742E+00
   1.6222024E-04   4.4372926E+05   -1.8025239E+00
   1.6296939E-04   4.4005987E+05   -1.8019731E+00
   1.6372200E-04   4.3642194E+05   -1.8014218E+00
   1.6447809E-04   4.3281518E+05   -1.8008699E+00
   1.6523767E-04   4.2923931E+05   -1.8003175E+00
   1.6600075E-04   4.2569408E+05   -1.7997647E+00
   1.6676736E-04   4.2217920E+05   -1.7992113E+00
   1.6753751E-04   4.1869441E+05   -1.7986574E+00
   1.6831122E-04   4.1523945E+05   -1.7981030E+00
   1.6908849E-04   4.1181405E+05   -1.7975481E+00
   1.6986936E-04   4.0841794E+05   -1.7969927E+00
   1.7065384E-04   4.0505089E+05   -1.7964368E+00
   1.7144193E-04   4.0171262E+05   -1.7958805E+00
   1.7223367E-04   3.9840288E+05   -1.7953237E+00
   1.7302906E-04   3.9512143E+05   -1.7947664E+00
   1.7382813E-04   3.9186801E+05   -1.7942087E+00
   1.7463089E-04   3.8864238E+05   -1.7936505E+00
   1.7543735E-04   3.8544430E+05   -1.7930919E+00
   1.7624754E-04   3.8227351E+05   -1.7925328E+00
   1.7706147E-04   3.7912979E+05   -1.7919733E+00
   1.7787916E-04   3.7601289E+05   -1.7914134E+00
   1.7870062E-04   3.7292257E+05   -1.7908530E+00
   1.7952588E-04   3.6985861E+05   -1.7902922E+00
   1.8035495E-04   3.6682077E+05   -1.7897310E+00
   1.8118785E-04   3.6380882E+05   -1.7891693E+00
   1.8202459E-04   3.6082254E+05   -1.7886073E+00
   1.8286520E-04   3.5786170E+05   -1.7880449E+00
   1.8370969E-04   3.5492607E+05   -1.7874821E+00
   1.8455808E-04   3.5201544E+05   -1.7869188E+00
   1.8541039E-04   3.4912959E+05   -1.7863552E+00
   1.8626663E-04   3.4626829E+05   -1.7857913E+00
   1.8712683E-04   3.4343133E+05   -1.7852269E+00
   1.8799100E-04   3.4061851E+05   -1.7846622E+00
   1.8885917E-04   3.3782960E+05   -1.7840971E+00
   1.8973134E-04   3.3506440E+05   -1.7835317E+00
   1.9060754E-04   3.3232270E+05   -1.7829659E+00
   1.9148778E-04   3.2960429E+05   -1.7823998E+00
   1.9237209E-04   3.2690897E+05   -1.7818333E+00
   1.9326049E-04   3.2423654E+05   -1.7812665E+00
   1.9415299E-04   3.2158679E+05   -1.7806994E+00
   1.9504960E-04   3.1895954E+05   -1.7801319E+00
   1.9595036E-04   3.1635457E+05   -1.7795642E+00
   1.9685528E-04   3.1377170E+05   -1.7789961E+00
   1.9776438E-04   3.1121074E+05   -1.7784277E+00
   1.9867768E-04   3.0867148E+05   -1.7778590E+00
   1.9959519E-04   3.0615375E+05   -1.7772901E+00
   2.0051694E-04   3.0365735E+05   -1.7767208E+00
   2.0144295E-04   3.0118209E+05   -1.7761513E+00
   2.0237324E-04   2.9872780E+05   -1.7755815E+00
   2.0330782E-04   2.9629428E+05   -1.7750114E+00
   2.0424671E-04   2.9388136E+05   -1.7744411E+00
   2.0518995E-04   2.9148885E+05   -1.7738705E+00
   2.0613754E-04   2.8911658E+05   -1.7732996E+00
   2.0708950E-04   2.8676438E+05   -1.7727285E+00
   2.0804586E-04   2.8443206E+05   -1.7721572E+00
   2.0900664E-04   2.8211945E+05   -1.7715856E+00
   2.0997185E-04   2.7982638E+05   -1.7710138E+00
   2.1094152E-04   2.7755268E+05   -1.7704418E+00
   2.1191567E-04   2.7529818E+05   -1.7698696E+00
   2.1289432E-04   2.7306272E+05   -1.7692971E+00
   2.1387749E-04   2.7084612E+05   -1.7687245E+00
   2.1486520E-04   2.6864822E+05   -1.7681516E+00
   2.1585747E-04   2.6646887E+05   -1.7675786E+00
   2.1685432E-04   2.6430789E+05   -1.7670054E+00
   2.1785578E-04   2.6216512E+05   -1.7664320E+00
   2.1886186E-04   2.6004042E+05   -1.7658584E+00
   2.1987259E-04   2.5793362E+05   -1.7652846E+00
   2.2088798E-04   2.5584456E+05   -1.7647107E+00
   2.2190807E-04   2.5377309E+05   -1.7641367E+00
   2.2293286E-04   2.5171907E+05   -1.7635625E+00
   2.2396239E-04   2.4968232E+05   -1.7629881E+00
   2.2499667E-04   2.4766272E+05   -1.7624136E+00
   2.2603573E-04   2.4566010E+05   -1.7618390E+00
   2.2707958E-04   2.4367431E+05   -1.7612642E+00
   2.2812826E-04   2.4170522E+05   -1.7606894E+00
   2.2918178E-04   2.3975268E+05   -1.7601144E+00
   2.3024017E-04   2.3781654E+05   -1.7595393E+00
   2.3130344E-04   2.3589666E+05   -1.7589641E+00
   2.3237162E-04   2.3399290E+05   -1.7583888E+00
   2.3344474E-04   2.3210512E+05   -1.7578134E+00
   2.3452281E-04   2.3023318E+05   -1.7572379E+00
   2.3560586E-04   2.2837694E+05   -1.7566624E+00
   2.3669392E-04   2.2653627E+05   -1.7560868E+00
   2.3778699E-04   2.2471103E+05   -1.7555111E+00
   2.3888512E-04   2.2290109E+05   -1.7549354E+00
   2.3998831E-04   2.2110631E+05   -1.7543596E+00
   2.4109661E-04   2.1932657E+05   -1.7537838E+00
   2.4221001E-04   2.1756173E+05   -1.7532079E+00
   2.4332857E-04   2.1581166E+05   -1.7526320E+00
   2.4445228E-04   2.1407624E+05   -1.7520560E+00
   2.4558119E-04   2.1235533E+05   -1.7514801E+00
   2.4671531E-04   2.1064882E+05   -1.7509041E+00
   2.4785467E-04   2.0895658E+05   -1.7503281E+00
   2.4899928E-04   2.0727848E+05   -1.7497521E+00
   2.5014919E-04   2.0561441E+05   -1.7491761E+00
   2.5130440E-04   2.0396423E+05   -1.7486002E+00
   2.5246495E-04   2.0232784E+05   -1.7480242E+00
   2.5363086E-04   2.0070511E+05   -1.7474483E+00
   2.5480216E-04   1.9909592E+05   -1.7468723E+00
   2.5597886E-04   1.9750015E+05   -1.7462965E+00
   2.5716100E-04   1.9591770E+05   -1.7457206E+00
   2.5834859E-04   1.9434844E+05   -1.7451448E+00
   2.5954168E-04   1.9279226E+05   -1.7445691E+00
   2.6074027E-04   1.9124905E+05   -1.7439934E+00
   2.6194439E-04   1.8971870E+05   -1.7434177E+00
   2.6315408E-04   1.8820109E+05   -1.7428422E+00
   2.6436935E-04   1.8669611E+05   -1.7422667E+00
   2.6559024E-04   1.8520367E+05   -1.7416913E+00
   2.6681676E-04   1.8372364E+05   -1.7411160E+00
   2.6804895E-04   1.8225592E+05   -1.7405408E+00
   2.6928683E-04   1.8080040E+05   -1.7399656E+00
   2.7053042E-04   1.7935698E+05   -1.7393906E+00
   2.7177976E-04   1.7792556E+05   -1.7388157E+00
   2.7303487E-04   1.7650603E+05   -1.7382409E+00
   2.7429577E-04   1.7509829E+05   -1.7376663E+00
   2.7556250E-04   1.7370223E+05   -1.7370917E+00
   2.7683507E-04   1.7231777E+05   -1.7365174E+00
   2.7811353E-04   1.7094479E+05   -1.7359431E+00
   2.7939788E-04   1.6958319E+05   -1.7353690E+00
   2.8068817E-04   1.6823289E+05   -1.7347950E+00
   2.8198442E-04   1.6689378E+05   -1.7342213E+00
   2.8328665E-04   1.6556577E+05   -1.7336476E+00
   2.8459490E-04   1.6424876E+05   -1.7330742E+00
   2.8590919E-04   1.6294266E+05   -1.7325009E+00
   2.8722955E-04   1.6164737E+05   -1.7319278E+00
   2.8855600E-04   1.6036279E+05   -1.7313549E+00
   2.8988859E-04   1.5908885E+05   -1.7307822E+00
   2.9122732E-04   1.5782545E+05   -1.7302097E+00
   2.9257224E-04   1.5657249E+05   -1.7296374E+00
   2.9392337E-04   1.5532988E+05   -1.7290654E+00
   2.9528074E-04   1.5409755E+05   -1.7284935E+00
   2.9664438E-04   1.5287539E+05   -1.7279219E+00
   2.9801431E-04   1.5166333E+05   -1.7273505E+00
   2.9939057E-04   1.5046127E+05   -1.7267793E+00
   3.0077319E-04   1.4926913E+05   -1.7262084E+00
   3.0216219E-04   1.4808683E+05   -1.7256377E+00
   3.0355761E-04   1.4691428E+05   -1.7250673E+00
   3.0495947E-04   1.4575139E+05   -1.7244972E+00
   3.0636780E-04   1.4459809E+05   -1.7239273E+00
   3.0778264E-04   1.4345429E+05   -1.7233577E+00
   3.0920401E-04   1.4231992E+05   -1.7227884E+00
   3.1063195E-04   1.4119488E+05   -1.7222193E+00
   3.1206648E-04   1.4007911E+05   -1.7216506E+00
   3.1350764E-04   1.3897251E+05   -1.7210821E+00
   3.1495545E-04   1.3787502E+05   -1.7205140E+00
   3.1640994E-04   1.3678655E+05   -1.7199461E+00
   3.1787116E-04   1.3570703E+05   -1.7193786E+00
   3.1933912E-04   1.3463639E+05   -1.7188114E+00
   3.2081386E-04   1.3357454E+05   -1.7182445E+00
   3.2229541E-04   1.3252141E+05   -1.7176779E+00
   3.2378381E-04   1.3147692E+05   -1.7171117E+00
   3.2527908E-04   1.3044101E+05   -1.7165458E+00
   3.2678125E-04   1.2941360E+05   -1.7159803E+00
   3.2829036E-04   1.2839461E+05   -1.7154151E+00
   3.2980644E-04   1.2738398E+05   -1.7148503E+00
   3.3132952E-04   1.2638163E+05   -1.7142859E+00
   3.3285963E-04   1.2538750E+05   -1.7137218E+00
   3.3439681E-04   1.2440151E+05   -1.7131581E+00
   3.3594109E-04   1.2342359E+05   -1.7125948E+00
   3.3749250E-04   1.2245368E+05   -1.7120318E+00
   3.3905108E-04   1.2149171E+05   -1.7114693E+00
   3.4061685E-04   1.2053760E+05   -1.7109071E+00
   3.4218986E-04   1.1959130E+05   -1.7103454E+00
   3.4377013E-04   1.1865273E+05   -1.7097841E+00
   3.4535769E-04   1.1772183E+05   -1.7092232E+00
   3.4695259E-04   1.1679854E+05   -1.7086627E+00
   3.4855485E-04   1.1588279E+05   -1.7081026E+00
   3.5016452E-04   1.1497452E+05   -1.7075430E+00
   3.5178161E-04   1.1407366E+05   -1.7069838E+00
   3.5340618E-04   1.1318014E+05   -1.7064250E+00
   3.5503824E-04   1.1229392E+05   -1.7058667E+00
   3.5667785E-04   1.1141492E+05   -1.7053089E+00
   3.5832502E-04   1.1054309E+05   -1.7047515E+00
   3.5997981E-04   1.0967836E+05   -1.7041946E+00
   3.6164223E-04   1.0882067E+05   -1.7036381E+00
   3.6331233E-04   1.0796997E+05   -1.7030821E+00
   3.6499015E-04   1.0712619E+05   -1.7025266E+00
   3.6667571E-04   1.0628928E+05   -1.7019716E+00
   3.6836906E-04   1.0545918E+05   -1.7014171E+00
   3.7007022E-04   1.0463582E+05   -1.7008630E+00
   3.7177925E-04   1.0381916E+05   -1.7003095E+00
   3.7349616E-04   1.0300914E+05   -1.6997565E+00
   3.7522101E-04   1.0220569E+05   -1.6992040E+00
   3.7695382E-04   1.0140878E+05   -1.6986520E+00
   3.7869463E-04   1.0061833E+05   -1.6981005E+00
   3.8044348E-04   9.9834291E+04   -1.6975495E+00
   3.8220041E-04   9.9056617E+04   -1.6969991E+00
   3.8396545E-04   9.8285250E+04   -1.6964492E+00
   3.8573864E-04   9.7520137E+04   -1.6958999E+00
   3.8752002E-04   9.6761224E+04   -1.6953511E+00
   3.8930963E-04   9.6008461E+04   -1.6948029E+00
   3.9110750E-04   9.5261793E+04   -1.6942552E+00
   3.9291368E-04   9.4521171E+04   -1.6937080E+00
   3.9472820E-04   9.3786544E+04   -1.6931615E+00
   3.9655109E-04   9.3057860E+04   -1.6926155E+00
   3.9838241E-04   9.2335069E+04   -1.6920701E+00
   4.0022218E-04   9.1618123E+04   -1.6915253E+00
   4.0207045E-04   9.0906972E+04   -1.6909810E+00
   4.0392725E-04   9.0201567E+04   -1.6904374E+00
   4.0579263E-04   8.9501860E+04   -1.6898943E+00
   4.0766662E-04   8.8807803E+04   -1.6893519E+00
   4.0954927E-04   8.8119348E+04   -1.6888100E+00
   4.1144061E-04   8.7436448E+04   -1.6882688E+00
   4.1334068E-04   8.6759057E+04   -1.6877282E+00
   4.1524953E-04   8.6087128E+04   -1.6871881E+00
   4.1716720E-04   8.5420615E+04   -1.6866488E+00
   4.1909372E-04   8.4759473E+04   -1.6861100E+00
   4.2102914E-04   8.4103656E+04   -1.6855719E+00
   4.2297350E-04   8.3453121E+04   -1.6850344E+00
   4.2492683E-04   8.2807823E+04   -1.6844976E+00
   4.2688919E-04   8.2167717E+04   -1.6839614E+00
   4.2886061E-04   8.1532761E+04   -1.6834258E+00
   4.3084113E-04   8.0902912E+04   -1.6828910E+00
   4.3283080E-04   8.0278125E+04   -1.6823567E+00
   4.3482966E-04   7.9658360E+04   -1.6818232E+00
   4.3683775E-04   7.9043573E+04   -1.6812903E+00
   4.3885511E-04   7.8433724E+04   -1.6807581E+00
   4.4088179E-04   7.7828770E+04   -1.6802265E+00
   4.4291783E-04   7.7228672E+04   -1.6796957E+00
   4.4496327E-04   7.6633387E+04   -1.6791655E+00
   4.4701816E-04   7.6042877E+04   -1.6786360E+00
   4.4908253E-04   7.5457101E+04   -1.6781072E+00
   4.5115644E-04   7.4876020E+04   -1.6775792E+00
   4.5323993E-04   7.4299595E+04   -1.6770518E+00
   4.5533304E-04   7.3727786E+04   -1.6765251E+00
   4.5743582E-04   7.3160555E+04   -1.6759991E+00
   4.5954830E-04   7.2597864E+04   -1.6754739E+00
   4.6167054E-04   7.2039674E+04   -1.6749494E+00
   4.6380259E-04   7.1485950E+04   -1.6744256E+00
   4.6594448E-04   7.0936652E+04   -1.6739025E+00
   4.6809626E-04   7.0391745E+04   -1.6733802E+00
   4.7025797E-04   6.9851192E+04   -1.6728586E+00
   4.7242967E-04   6.9314956E+04   -1.6723377E+00
   4.7461140E-04   6.8783001E+04   -1.6718176E+00
   4.7680321E-04   6.8255293E+04   -1.6712982E+00
   4.7900514E-04   6.7731795E+04   -1.6707796E+00
   4.8121723E-04   6.7212472E+04   -1.6702617E+00
   4.8343954E-04   6.6697291E+04   -1.6697446E+00
   4.8567212E-04   6.6186216E+04   -1.6692283E+00
   4.8791500E-04   6.5679213E+04   -1.6687127E+00
   4.9016825E-04   6.5176249E+04   -1.6681979E+00
   4.9243189E-04   6.4677289E+04   -1.6676839E+00
   4.9470600E-04   6.4182302E+04   -1.6671706E+00
   4.9699060E-04   6.3691253E+04   -1.6666582E+00
   4.9928575E-04   6.3204110E+04   -1.6661465E+00
   5.0159151E-04   6.2720841E+04   -1.6656356E+00
   5.0390791E-04   6.2241413E+04   -1.6651255E+00
   5.0623501E-04   6.1765795E+04   -1.6646162E+00
   5.0857286E-04   6.1293955E+04   -1.6641077E+00
   5.1092150E-04   6.0825862E+04   -1.6636000E+00
   5.1328099E-04   6.0361485E+04   -1.6630931E+00
   5.1565137E-04   5.9900793E+04   -1.6625870E+00
   5.1803270E-04   5.9443756E+04   -1.6620817E+00
   5.2042503E-04   5.8990343E+04   -1.6615773E+00
   5.2282841E-04   5.8540525E+04   -1.6610736E+00
   5.2524289E-04   5.8094271E+04   -1.6605708E+00
   5.2766851E-04   5.7651552E+04   -1.6600689E+00
   5.3010534E-04   5.7212339E+04   -1.6595677E+00
   5.3255342E-04   5.6776604E+04   -1.6590674E+00
   5.3501281E-04   5.6344317E+04   -1.6585679E+00
   5.3748356E-04   5.5915449E+04   -1.6580693E+00
   5.3996571E-04   5.5489974E+04   -1.6575715E+00
   5.4245933E-04   5.5067862E+04   -1.6570745E+00
   5.4496446E-04   5.4649086E+04   -1.6565784E+00
   5.4748117E-04   5.4233619E+04   -1.6560832E+00
   5.5000949E-04   5.3821433E+04   -1.6555888E+00
   5.5254949E-04   5.3412502E+04   -1.6550952E+00
   5.5510123E-04   5.3006797E+04   -1.6546026E+00
   5.5766474E-04   5.2604294E+04   -1.6541108E+00
   5.6024010E-04   5.2204965E+04   -1.6536198E+00
   5.6282734E-04   5.1808785E+04   -1.6531298E+00
   5.6542654E-04   5.1415728E+04   -1.6526406E+00
   5.6803774E-04   5.1025767E+04   -1.6521522E+00
   5.7066099E-04   5.0638877E+04   -1.6516648E+00
   5.7329637E-04   5.0255034E+04   -1.6511782E+00
   5.7594391E-04   4.9874212E+04   -1.6506925E+00
   5.7860368E-04   4.9496387E+04   -1.6502078E+00
   5.8127573E-04   4.9121534E+04   -1.6497239E+00
   5.8396012E-04   4.8749628E+04   -1.6492408E+00
   5.8665691E-04   4.8380645E+04   -1.6487587E+00
   5.8936616E-04   4.8014562E+04   -1.6482775E+00
   5.9208791E-04   4.7651354E+04   -1.6477972E+00
   5.9482223E-04   4.7290998E+04   -1.6473178E+00
   5.9756919E-04   4.6933471E+04   -1.6468393E+00
   6.0032882E-04   4.6578750E+04   -1.6463617E+00
   6.0310120E-04   4.6226811E+04   -1.6458850E+00
   6.0588639E-04   4.5877632E+04   -1.6454092E+00
   6.0868443E-04   4.5531190E+04   -1.6449344E+00
   6.1149540E-04   4.5187464E+04   -1.6444604E+00
   6.1431935E-04   4.4846430E+04   -1.6439874E+00
   6.1715634E-04   4.4508066E+04   -1.6435153E+00
   6.2000644E-04   4.4172352E+04   -1.6430441E+00
   6.2286969E-04   4.3839265E+04   -1.6425739E+00
