#        a       HoverH0(a)       dlogHdloga_of_a(a)
   1.0000000E-04   1.1259613E+06   -1.8538718E+00
   1.0046181E-04   1.1163859E+06   -1.8533948E+00
   1.0092575E-04   1.1068944E+06   -1.8529169E+00
   1.0139184E-04   1.0974860E+06   -1.8524381E+00
   1.0186008E-04   1.0881599E+06   -1.8519584E+00
   1.0233048E-04   1.0789155E+06   -1.8514778E+00
   1.0280305E-04   1.0697520E+06   -1.8509963E+00
   1.0327781E-04   1.0606687E+06   -1.8505139E+00
   1.0375475E-04   1.0516648E+06   -1.8500306E+00
   1.0423390E-04   1.0427397E+06   -1.8495464E+00
   1.0471527E-04   1.0338927E+06   -1.8490613E+00
   1.0519885E-04   1.0251230E+06   -1.8485754E+00
   1.0568467E-04   1.0164300E+06   -1.8480885E+00
   1.0617274E-04   1.0078129E+06   -1.8476008E+00
   1.0666305E-04   9.9927118E+05   -1.8471122E+00
   1.0715563E-04   9.9080406E+05   -1.8466227E+00
   1.0765049E-04   9.8241091E+05   -1.8461324E+00
   1.0814763E-04   9.7409106E+05   -1.8456411E+00
   1.0864707E-04   9.6584385E+05   -1.8451490E+00
   1.0914881E-04   9.5766865E+05   -1.8446561E+00
   1.0965287E-04   9.4956480E+05   -1.8441623E+00
   1.1015926E-04   9.4153167E+05   -1.8436676E+00
   1.1066799E-04   9.3356862E+05   -1.8431721E+00
   1.1117906E-04   9.2567504E+05   -1.8426757E+00
   1.1169250E-04   9.1785031E+05   -1.8421785E+00
   1.1220831E-04   9.1009380E+05   -1.8416804E+00
   1.1272650E-04   9.0240491E+05   -1.8411815E+00
   1.1324708E-04   8.9478304E+05   -1.8406817E+00
   1.1377007E-04   8.8722759E+05   -1.8401811E+00
   1.1429547E-04   8.7973798E+05   -1.8396797E+00
   1.1482330E-04   8.7231360E+05   -1.8391775E+00
   1.1535356E-04   8.6495388E+05   -1.8386744E+00
   1.1588628E-04   8.5765824E+05   -1.8381705E+00
   1.1642145E-04   8.5042612E+05   -1.8376657E+00
   1.1695910E-04   8.4325695E+05   -1.8371602E+00
   1.1749923E-04   8.3615016E+05   -1.8366539E+00
   1.1804185E-04   8.2910520E+05   -1.8361467E+00
   1.1858698E-04   8.2212152E+05   -1.8356387E+00
   1.1913463E-04   8.1519857E+05   -1.8351300E+00
   1.1968481E-04   8.0833582E+05   -1.8346204E+00
   1.2023752E-04   8.0153272E+05   -1.8341100E+00
   1.2079279E-04   7.9478875E+05   -1.8335989E+00
   1.2135063E-04   7.8810339E+05   -1.8330869E+00
   1.2191104E-04   7.8147610E+05   -1.8325742E+00
   1.2247403E-04   7.7490637E+05   -1.8320607E+00
   1.2303963E-04   7.6839369E+05   -1.8315464E+00
   1.2360784E-04   7.6193756E+05   -1.8310313E+00
   1.2417868E-04   7.5553746E+05   -1.8305155E+00
   1.2475215E-04   7.4919291E+05   -1.8299989E+00
   1.2532826E-04   7.4290340E+05   -1.8294816E+00
   1.2590704E-04   7.3666845E+05   -1.8289634E+00
   1.2648850E-04   7.3048757E+05   -1.8284446E+00
   1.2707263E-04   7.2436029E+05   -1.8279249E+00
   1.2765947E-04   7.1828612E+05   -1.8274046E+00
   1.2824901E-04   7.1226460E+05   -1.8268835E+00
   1.2884128E-04   7.0629525E+05   -1.8263616E+00
   1.2943628E-04   7.0037762E+05   -1.8258390E+00
   1.3003403E-04   6.9451124E+05   -1.8253157E+00
   1.3063454E-04   6.8869566E+05   -1.8247916E+00
   1.3123783E-04   6.8293043E+05   -1.8242669E+00
   1.3184390E-04   6.7721509E+05   -1.8237414E+00
   1.3245277E-04   6.7154922E+05   -1.8232152E+00
   1.3306445E-04   6.6593236E+05   -1.8226883E+00
   1.3367895E-04   6.6036409E+05   -1.8221607E+00
   1.3429630E-04   6.5484397E+05   -1.8216323E+00
   1.3491649E-04   6.4937157E+05   -1.8211033E+00
   1.3553955E-04   6.4394648E+05   -1.8205736E+00
   1.3616548E-04   6.3856827E+05   -1.8200432E+00
   1.3679431E-04   6.3323653E+05   -1.8195121E+00
   1.3742604E-04   6.2795084E+05   -1.8189803E+00
   1.3806069E-04   6.2271080E+05   -1.8184479E+00
   1.3869827E-04   6.1751600E+05   -1.8179148E+00
   1.3933879E-04   6.1236605E+05   -1.8173810E+00
   1.3998227E-04   6.0726054E+05   -1.8168465E+00
   1.4062872E-04   6.0219907E+05   -1.8163114E+00
   1.4127816E-04   5.9718127E+05   -1.8157757E+00
   1.4193060E-04   5.9220674E+05   -1.8152393E+00
   1.4258605E-04   5.8727510E+05   -1.8147022E+00
   1.4324453E-04   5.8238597E+05   -1.8141645E+00
   1.4390605E-04   5.7753898E+05   -1.8136262E+00
   1.4457062E-04   5.7273375E+05   -1.8130872E+00
   1.4523826E-04   5.6796991E+05   -1.8125476E+00
   1.4590899E-04   5.6324709E+05   -1.8120074E+00
   1.4658281E-04   5.5856494E+05   -1.8114665E+00
   1.4725974E-04   5.5392309E+05   -1.8109251E+00
   1.4793981E-04   5.4932118E+05   -1.8103830E+00
   1.4862301E-04   5.4475887E+05   -1.8098404E+00
   1.4930936E-04   5.4023581E+05   -1.8092971E+00
   1.4999889E-04   5.3575163E+05   -1.8087533E+00
   1.5069160E-04   5.3130602E+05   -1.8082088E+00
   1.5138751E-04   5.2689861E+05   -1.8076638E+00
   1.5208663E-04   5.2252907E+05   -1.8071182E+00
   1.5278899E-04   5.1819708E+05   -1.8065720E+00
   1.5349458E-04   5.1390230E+05   -1.8060252E+00
   1.5420343E-04   5.0964439E+05   -1.8054779E+00
   1.5491556E-04   5.0542304E+05   -1.8049301E+00
   1.5563098E-04   5.0123792E+05   -1.8043816E+00
   1.5634970E-04   4.9708871E+05   -1.8038326E+00
   1.5707174E-04   4.9297509E+05   -1.8032831E+00
   1.5779711E-04   4.8889676E+05   -1.8027330E+00
   1.5852584E-04   4.8485339E+05   -1.8021824E+00
   1.5925792E-04   4.8084469E+05   -1.8016313E+00
   1.5999339E-04   4.7687034E+05   -1.8010796E+00
   1.6073226E-04   4.7293004E+05   -1.8005275E+00
   1.6147454E-04   4.6902349E+05   -1.7999748E+00
   1.6222024E-04   4.6515040E+05   -1.7994216E+00
   1.6296939E-04   4.6131047E+05   -1.7988679E+00
   1.6372200E-04   4.5750340E+05   -1.7983137E+00
   1.6447809E-04   4.5372892E+05   -1.7977590E+00
   1.6523767E-04   4.4998672E+05   -1.7972038E+00
   1.6600075E-04   4.4627653E+05   -1.7966481E+00
   1.6676736E-04   4.4259806E+05   -1.7960920E+00
   1.6753751E-04   4.3895104E+05   -1.7955353E+00
   1.6831122E-04   4.3533519E+05   -1.7949782E+00
   1.6908849E-04   4.3175023E+05   -1.7944207E+00
   1.6986936E-04   4.2819590E+05   -1.7938627E+00
   1.7065384E-04   4.2467192E+05   -1.7933042E+00
   1.7144193E-04   4.2117802E+05   -1.7927453E+00
   1.7223367E-04   4.1771394E+05   -1.7921860E+00
   1.7302906E-04   4.1427943E+05   -1.7916262E+00
   1.7382813E-04   4.1087421E+05   -1.7910660E+00
   1.7463089E-04   4.0749804E+05   -1.7905053E+00
   1.7543735E-04   4.0415065E+05   -1.7899443E+00
   1.7624754E-04   4.0083179E+05   -1.7893828E+00
   1.7706147E-04   3.9754122E+05   -1.7888209E+00
   1.7787916E-04   3.9427869E+05   -1.7882586E+00
   1.7870062E-04   3.9104394E+05   -1.7876960E+00
   1.7952588E-04   3.8783673E+05   -1.7871329E+00
   1.8035495E-04   3.8465683E+05   -1.7865694E+00
   1.8118785E-04   3.8150399E+05   -1.7860056E+00
   1.8202459E-04   3.7837798E+05   -1.7854414E+00
   1.8286520E-04   3.7527855E+05   -1.7848768E+00
   1.8370969E-04   3.7220549E+05   -1.7843119E+00
   1.8455808E-04   3.6915855E+05   -1.7837466E+00
   1.8541039E-04   3.6613751E+05   -1.7831809E+00
   1.8626663E-04   3.6314213E+05   -1.7826149E+00
   1.8712683E-04   3.6017220E+05   -1.7820486E+00
   1.8799100E-04   3.5722750E+05   -1.7814819E+00
   1.8885917E-04   3.5430779E+05   -1.7809149E+00
   1.8973134E-04   3.5141287E+05   -1.7803476E+00
   1.9060754E-04   3.4854251E+05   -1.7797800E+00
   1.9148778E-04   3.4569650E+05   -1.7792120E+00
   1.9237209E-04   3.4287462E+05   -1.7786438E+00
   1.9326049E-04   3.4007667E+05   -1.7780752E+00
   1.9415299E-04   3.3730244E+05   -1.7775063E+00
   1.9504960E-04   3.3455171E+05   -1.7769372E+00
   1.9595036E-04   3.3182429E+05   -1.7763678E+00
   1.9685528E-04   3.2911997E+05   -1.7757981E+00
   1.9776438E-04   3.2643854E+05   -1.7752281E+00
   1.9867768E-04   3.2377982E+05   -1.7746579E+00
   1.9959519E-04   3.2114359E+05   -1.7740874E+00
   2.0051694E-04   3.1852966E+05   -1.7735166E+00
   2.0144295E-04   3.1593783E+05   -1.7729456E+00
   2.0237324E-04   3.1336793E+05   -1.7723744E+00
   2.0330782E-04   3.1081974E+05   -1.7718029E+00
   2.0424671E-04   3.0829309E+05   -1.7712312E+00
   2.0518995E-04   3.0578778E+05   -1.7706592E+00
   2.0613754E-04   3.0330363E+05   -1.7700871E+00
   2.0708950E-04   3.0084045E+05   -1.7695147E+00
   2.0804586E-04   2.9839807E+05   -1.7689422E+00
   2.0900664E-04   2.9597629E+05   -1.7683694E+00
   2.0997185E-04   2.9357495E+05   -1.7677964E+00
   2.1094152E-04   2.9119385E+05   -1.7672233E+00
   2.1191567E-04   2.8883283E+05   -1.7666499E+00
   2.1289432E-04   2.8649172E+05   -1.7660764E+00
   2.1387749E-04   2.8417032E+05   -1.7655028E+00
   2.1486520E-04   2.8186849E+05   -1.7649289E+00
   2.1585747E-04   2.7958603E+05   -1.7643549E+00
   2.1685432E-04   2.7732280E+05   -1.7637808E+00
   2.1785578E-04   2.7507861E+05   -1.7632065E+00
   2.1886186E-04   2.7285331E+05   -1.7626320E+00
   2.1987259E-04   2.7064672E+05   -1.7620574E+00
   2.2088798E-04   2.6845869E+05   -1.7614827E+00
   2.2190807E-04   2.6628905E+05   -1.7609079E+00
   2.2293286E-04   2.6413765E+05   -1.7603330E+00
   2.2396239E-04   2.6200432E+05   -1.7597579E+00
   2.2499667E-04   2.5988892E+05   -1.7591828E+00
   2.2603573E-04   2.5779127E+05   -1.7586075E+00
   2.2707958E-04   2.5571123E+05   -1.7580322E+00
   2.2812826E-04   2.5364865E+05   -1.7574567E+00
   2.2918178E-04   2.5160338E+05   -1.7568812E+00
   2.3024017E-04   2.4957525E+05   -1.7563056E+00
   2.3130344E-04   2.4756413E+05   -1.7557300E+00
   2.3237162E-04   2.4556987E+05   -1.7551543E+00
   2.3344474E-04   2.4359232E+05   -1.7545785E+00
   2.3452281E-04   2.4163134E+05   -1.7540027E+00
   2.3560586E-04   2.3968678E+05   -1.7534269E+00
   2.3669392E-04   2.3775850E+05   -1.7528510E+00
   2.3778699E-04   2.3584635E+05   -1.7522750E+00
   2.3888512E-04   2.3395021E+05   -1.7516991E+00
   2.3998831E-04   2.3206993E+05   -1.7511231E+00
   2.4109661E-04   2.3020537E+05   -1.7505471E+00
   2.4221001E-04   2.2835639E+05   -1.7499712E+00
   2.4332857E-04   2.2652287E+05   -1.7493952E+00
   2.4445228E-04   2.2470467E+05   -1.7488192E+00
   2.4558119E-04   2.2290165E+05   -1.7482432E+00
   2.4671531E-04   2.2111368E+05   -1.7476673E+00
   2.4785467E-04   2.1934064E+05   -1.7470913E+00
   2.4899928E-04   2.1758240E+05   -1.7465154E+00
   2.5014919E-04   2.1583882E+05   -1.7459396E+00
   2.5130440E-04   2.1410978E+05   -1.7453638E+00
   2.5246495E-04   2.1239516E+05   -1.7447880E+00
   2.5363086E-04   2.1069482E+05   -1.7442123E+00
   2.5480216E-04   2.0900866E+05   -1.7436366E+00
   2.5597886E-04   2.0733653E+05   -1.7430611E+00
   2.5716100E-04   2.0567833E+05   -1.7424856E+00
   2.5834859E-04   2.0403393E+05   -1.7419101E+00
   2.5954168E-04   2.0240322E+05   -1.7413348E+00
   2.6074027E-04   2.0078607E+05   -1.7407595E+00
   2.6194439E-04   1.9918237E+05   -1.7401844E+00
   2.6315408E-04   1.9759200E+05   -1.7396093E+00
   2.6436935E-04   1.9601485E+05   -1.7390344E+00
   2.6559024E-04   1.9445080E+05   -1.7384595E+00
   2.6681676E-04   1.9289975E+05   -1.7378848E+00
   2.6804895E-04   1.9136157E+05   -1.7373103E+00
   2.6928683E-04   1.8983616E+05   -1.7367358E+00
   2.7053042E-04   1.8832341E+05   -1.7361615E+00
   2.7177976E-04   1.8682321E+05   -1.7355874E+00
   2.7303487E-04   1.8533544E+05   -1.7350134E+00
   2.7429577E-04   1.8386002E+05   -1.7344395E+00
   2.7556250E-04   1.8239682E+05   -1.7338658E+00
   2.7683507E-04   1.8094574E+05   -1.7332923E+00
   2.7811353E-04   1.7950668E+05   -1.7327190E+00
   2.7939788E-04   1.7807954E+05   -1.7321458E+00
   2.8068817E-04   1.7666421E+05   -1.7315728E+00
   2.8198442E-04   1.7526059E+05   -1.7310001E+00
   2.8328665E-04   1.7386858E+05   -1.7304275E+00
   2.8459490E-04   1.7248808E+05   -1.7298551E+00
   2.8590919E-04   1.7111900E+05   -1.7292830E+00
   2.8722955E-04   1.6976122E+05   -1.7287110E+00
   2.8855600E-04   1.6841467E+05   -1.7281393E+00
   2.8988859E-04   1.6707924E+05   -1.7275679E+00
   2.9122732E-04   1.6575483E+05   -1.7269966E+00
   2.9257224E-04   1.6444135E+05   -1.7264256E+00
   2.9392337E-04   1.6313871E+05   -1.7258548E+00
   2.9528074E-04   1.6184682E+05   -1.7252843E+00
   2.9664438E-04   1.6056558E+05   -1.7247141E+00
   2.9801431E-04   1.5929490E+05   -1.7241441E+00
   2.9939057E-04   1.5803469E+05   -1.7235744E+00
   3.0077319E-04   1.5678486E+05   -1.7230050E+00
   3.0216219E-04   1.5554532E+05   -1.7224358E+00
   3.0355761E-04   1.5431599E+05   -1.7218670E+00
   3.0495947E-04   1.5309677E+05   -1.7212984E+00
   3.0636780E-04   1.5188759E+05   -1.7207301E+00
   3.0778264E-04   1.5068835E+05   -1.7201622E+00
   3.0920401E-04   1.4949897E+05   -1.7195945E+00
   3.1063195E-04   1.4831936E+05   -1.7190272E+00
   3.1206648E-04   1.4714945E+05   -1.7184602E+00
   3.1350764E-04   1.4598915E+05   -1.7178935E+00
   3.1495545E-04   1.4483837E+05   -1.7173272E+00
   3.1640994E-04   1.4369704E+05   -1.7167612E+00
   3.1787116E-04   1.4256508E+05   -1.7161955E+00
   3.1933912E-04   1.4144240E+05   -1.7156302E+00
   3.2081386E-04   1.4032893E+05   -1.7150652E+00
   3.2229541E-04   1.3922458E+05   -1.7145007E+00
   3.2378381E-04   1.3812929E+05   -1.7139364E+00
   3.2527908E-04   1.3704296E+05   -1.7133726E+00
   3.2678125E-04   1.3596554E+05   -1.7128091E+00
   3.2829036E-04   1.3489693E+05   -1.7122461E+00
   3.2980644E-04   1.3383708E+05   -1.7116834E+00
   3.3132952E-04   1.3278589E+05   -1.7111211E+00
   3.3285963E-04   1.3174330E+05   -1.7105592E+00
   3.3439681E-04   1.3070923E+05   -1.7099977E+00
   3.3594109E-04   1.2968362E+05   -1.7094367E+00
   3.3749250E-04   1.2866638E+05   -1.7088760E+00
   3.3905108E-04   1.2765746E+05   -1.7083158E+00
   3.4061685E-04   1.2665677E+05   -1.7077560E+00
   3.4218986E-04   1.2566425E+05   -1.7071966E+00
   3.4377013E-04   1.2467983E+05   -1.7066377E+00
   3.4535769E-04   1.2370344E+05   -1.7060793E+00
   3.4695259E-04   1.2273501E+05   -1.7055212E+00
   3.4855485E-04   1.2177448E+05   -1.7049637E+00
   3.5016452E-04   1.2082178E+05   -1.7044066E+00
   3.5178161E-04   1.1987683E+05   -1.7038499E+00
   3.5340618E-04   1.1893958E+05   -1.7032938E+00
   3.5503824E-04   1.1800996E+05   -1.7027381E+00
   3.5667785E-04   1.1708791E+05   -1.7021829E+00
   3.5832502E-04   1.1617335E+05   -1.7016282E+00
   3.5997981E-04   1.1526624E+05   -1.7010740E+00
   3.6164223E-04   1.1436650E+05   -1.7005202E+00
   3.6331233E-04   1.1347407E+05   -1.6999670E+00
   3.6499015E-04   1.1258890E+05   -1.6994143E+00
   3.6667571E-04   1.1171091E+05   -1.6988621E+00
   3.6836906E-04   1.1084005E+05   -1.6983105E+00
   3.7007022E-04   1.0997626E+05   -1.6977593E+00
   3.7177925E-04   1.0911948E+05   -1.6972087E+00
   3.7349616E-04   1.0826964E+05   -1.6966586E+00
   3.7522101E-04   1.0742670E+05   -1.6961091E+00
   3.7695382E-04   1.0659059E+05   -1.6955601E+00
   3.7869463E-04   1.0576126E+05   -1.6950116E+00
   3.8044348E-04   1.0493864E+05   -1.6944637E+00
   3.8220041E-04   1.0412269E+05   -1.6939164E+00
   3.8396545E-04   1.0331334E+05   -1.6933696E+00
   3.8573864E-04   1.0251054E+05   -1.6928234E+00
   3.8752002E-04   1.0171423E+05   -1.6922778E+00
   3.8930963E-04   1.0092436E+05   -1.6917328E+00
   3.9110750E-04   1.0014088E+05   -1.6911883E+00
   3.9291368E-04   9.9363725E+04   -1.6906444E+00
   3.9472820E-04   9.8592852E+04   -1.6901012E+00
   3.9655109E-04   9.7828204E+04   -1.6895585E+00
   3.9838241E-04   9.7069728E+04   -1.6890164E+00
   4.0022218E-04   9.6317374E+04   -1.6884749E+00
   4.0207045E-04   9.5571089E+04   -1.6879341E+00
   4.0392725E-04   9.4830823E+04   -1.6873939E+00
   4.0579263E-04   9.4096524E+04   -1.6868542E+00
   4.0766662E-04   9.3368144E+04   -1.6863153E+00
   4.0954927E-04   9.2645632E+04   -1.6857769E+00
   4.1144061E-04   9.1928939E+04   -1.6852392E+00
   4.1334068E-04   9.1218015E+04   -1.6847021E+00
   4.1524953E-04   9.0512814E+04   -1.6841657E+00
   4.1716720E-04   8.9813286E+04   -1.6836299E+00
   4.1909372E-04   8.9119384E+04   -1.6830948E+00
   4.2102914E-04   8.8431061E+04   -1.6825603E+00
   4.2297350E-04   8.7748271E+04   -1.6820265E+00
   4.2492683E-04   8.7070966E+04   -1.6814933E+00
   4.2688919E-04   8.6399102E+04   -1.6809609E+00
   4.2886061E-04   8.5732632E+04   -1.6804291E+00
   4.3084113E-04   8.5071512E+04   -1.6798980E+00
   4.3283080E-04   8.4415696E+04   -1.6793675E+00
   4.3482966E-04   8.3765140E+04   -1.6788378E+00
   4.3683775E-04   8.3119801E+04   -1.6783088E+00
   4.3885511E-04   8.2479634E+04   -1.6777804E+00
   4.4088179E-04   8.1844597E+04   -1.6772528E+00
   4.4291783E-04   8.1214647E+04   -1.6767258E+00
   4.4496327E-04   8.0589740E+04   -1.6761996E+00
   4.4701816E-04   7.9969836E+04   -1.6756741E+00
   4.4908253E-04   7.9354892E+04   -1.6751493E+00
   4.5115644E-04   7.8744867E+04   -1.6746252E+00
   4.5323993E-04   7.8139720E+04   -1.6741019E+00
   4.5533304E-04   7.7539411E+04   -1.6735793E+00
   4.5743582E-04   7.6943898E+04   -1.6730574E+00
   4.5954830E-04   7.6353143E+04   -1.6725363E+00
   4.6167054E-04   7.5767105E+04   -1.6720159E+00
   4.6380259E-04   7.5185746E+04   -1.6714962E+00
   4.6594448E-04   7.4609025E+04   -1.6709773E+00
   4.6809626E-04   7.4036905E+04   -1.6704592E+00
   4.7025797E-04   7.3469348E+04   -1.6699418E+00
   4.7242967E-04   7.2906315E+04   -1.6694252E+00
   4.7461140E-04   7.2347769E+04   -1.6689093E+00
   4.7680321E-04   7.1793673E+04   -1.6683942E+00
   4.7900514E-04   7.1243989E+04   -1.6678799E+00
   4.8121723E-04   7.0698681E+04   -1.6673664E+00
   4.8343954E-04   7.0157713E+04   -1.6668536E+00
   4.8567212E-04   6.9621049E+04   -1.6663416E+00
   4.8791500E-04   6.9088653E+04   -1.6658304E+00
   4.9016825E-04   6.8560489E+04   -1.6653200E+00
   4.9243189E-04   6.8036523E+04   -1.6648104E+00
   4.9470600E-04   6.7516720E+04   -1.6643016E+00
   4.9699060E-04   6.7001045E+04   -1.6637936E+00
   4.9928575E-04   6.6489464E+04   -1.6632864E+00
   5.0159151E-04   6.5981943E+04   -1.6627801E+00
   5.0390791E-04   6.5478449E+04   -1.6622745E+00
   5.0623501E-04   6.4978948E+04   -1.6617697E+00
   5.0857286E-04   6.4483407E+04   -1.6612658E+00
   5.1092150E-04   6.3991794E+04   -1.6607627E+00
   5.1328099E-04   6.3504076E+04   -1.6602604E+00
   5.1565137E-04   6.3020221E+04   -1.6597589E+00
   5.1803270E-04   6.2540197E+04   -1.6592583E+00
   5.2042503E-04   6.2063972E+04   -1.6587585E+00
   5.2282841E-04   6.1591516E+04   -1.6582596E+00
   5.2524289E-04   6.1122796E+04   -1.6577614E+00
   5.2766851E-04   6.0657782E+04   -1.6572642E+00
   5.3010534E-04   6.0196444E+04   -1.6567678E+00
   5.3255342E-04   5.9738752E+04   -1.6562722E+00
   5.3501281E-04   5.9284674E+04   -1.6557775E+00
   5.3748356E-04   5.8834182E+04   -1.6552836E+00
   5.3996571E-04   5.8387246E+04   -1.6547906E+00
   5.4245933E-04   5.7943836E+04   -1.6542985E+00
   5.4496446E-04   5.7503924E+04   -1.6538072E+00
   5.4748117E-04   5.7067481E+04   -1.6533168E+00
   5.5000949E-04   5.6634479E+04   -1.6528273E+00
   5.5254949E-04   5.6204888E+04   -1.6523387E+00
   5.5510123E-04   5.5778682E+04   -1.6518509E+00
   5.5766474E-04   5.5355832E+04   -1.6513640E+00
   5.6024010E-04   5.4936310E+04   -1.6508780E+00
   5.6282734E-04   5.4520090E+04   -1.6503929E+00
   5.6542654E-04   5.4107144E+04   -1.6499087E+00
   5.6803774E-04   5.3697446E+04   -1.6494253E+00
   5.7066099E-04   5.3290968E+04   -1.6489429E+00
   5.7329637E-04   5.2887685E+04   -1.6484613E+00
   5.7594391E-04   5.2487569E+04   -1.6479807E+00
   5.7860368E-04   5.2090597E+04   -1.6475009E+00
   5.8127573E-04   5.1696741E+04   -1.6470221E+00
   5.8396012E-04   5.1305976E+04   -1.6465441E+00
   5.8665691E-04   5.0918276E+04   -1.6460671E+00
   5.8936616E-04   5.0533617E+04   -1.6455910E+00
   5.9208791E-04   5.0151974E+04   -1.6451158E+00
   5.9482223E-04   4.9773323E+04   -1.6446415E+00
   5.9756919E-04   4.9397637E+04   -1.6441681E+00
   6.0032882E-04   4.9024895E+04   -1.6436957E+00
   6.0310120E-04   4.8655070E+04   -1.6432242E+00
   6.0588639E-04   4.8288141E+04   -1.6427536E+00
   6.0868443E-04   4.7924082E+04   -1.6422839E+00
   6.1149540E-04   4.7562871E+04   -1.6418152E+00
   6.1431935E-04   4.7204484E+04   -1.6413474E+00
   6.1715634E-04   4.6848899E+04   -1.6408805E+00
   6.2000644E-04   4.6496092E+04   -1.6404146E+00
   6.2286969E-04   4.6146041E+04   -1.6399496E+00
