#        a       HoverH0(a)       dlogHdloga_of_a(a)
   1.0000000E-04   1.1877728E+06   -1.8893807E+00
   1.0046181E-04   1.1774788E+06   -1.8889832E+00
   1.0092575E-04   1.1672763E+06   -1.8885848E+00
   1.0139184E-04   1.1571642E+06   -1.8881853E+00
   1.0186008E-04   1.1471419E+06   -1.8877848E+00
   1.0233048E-04   1.1372085E+06   -1.8873833E+00
   1.0280305E-04   1.1273631E+06   -1.8869808E+00
   1.0327781E-04   1.1176051E+06   -1.8865772E+00
   1.0375475E-04   1.1079336E+06   -1.8861726E+00
   1.0423390E-04   1.0983479E+06   -1.8857671E+00
   1.0471527E-04   1.0888471E+06   -1.8853605E+00
   1.0519885E-04   1.0794305E+06   -1.8849528E+00
   1.0568467E-04   1.0700974E+06   -1.8845442E+00
   1.0617274E-04   1.0608470E+06   -1.8841346E+00
   1.0666305E-04   1.0516785E+06   -1.8837239E+00
   1.0715563E-04   1.0425913E+06   -1.8833122E+00
   1.0765049E-04   1.0335845E+06   -1.8828995E+00
   1.0814763E-04   1.0246575E+06   -1.8824858E+00
   1.0864707E-04   1.0158095E+06   -1.8820711E+00
   1.0914881E-04   1.0070399E+06   -1.8816554E+00
   1.0965287E-04   9.9834789E+05   -1.8812387E+00
   1.1015926E-04   9.8973280E+05   -1.8808209E+00
   1.1066799E-04   9.8119394E+05   -1.8804022E+00
   1.1117906E-04   9.7273063E+05   -1.8799824E+00
   1.1169250E-04   9.6434218E+05   -1.8795617E+00
   1.1220831E-04   9.5602794E+05   -1.8791399E+00
   1.1272650E-04   9.4778721E+05   -1.8787171E+00
   1.1324708E-04   9.3961936E+05   -1.8782933E+00
   1.1377007E-04   9.3152371E+05   -1.8778686E+00
   1.1429547E-04   9.2349963E+05   -1.8774428E+00
   1.1482330E-04   9.1554646E+05   -1.8770160E+00
   1.1535356E-04   9.0766357E+05   -1.8765882E+00
   1.1588628E-04   8.9985033E+05   -1.8761594E+00
   1.1642145E-04   8.9210611E+05   -1.8757296E+00
   1.1695910E-04   8.8443030E+05   -1.8752988E+00
   1.1749923E-04   8.7682226E+05   -1.8748671E+00
   1.1804185E-04   8.6928141E+05   -1.8744343E+00
   1.1858698E-04   8.6180713E+05   -1.8740005E+00
   1.1913463E-04   8.5439882E+05   -1.8735658E+00
   1.1968481E-04   8.4705589E+05   -1.8731300E+00
   1.2023752E-04   8.3977776E+05   -1.8726933E+00
   1.2079279E-04   8.3256385E+05   -1.8722555E+00
   1.2135063E-04   8.2541357E+05   -1.8718168E+00
   1.2191104E-04   8.1832636E+05   -1.8713771E+00
   1.2247403E-04   8.1130164E+05   -1.8709364E+00
   1.2303963E-04   8.0433886E+05   -1.8704948E+00
   1.2360784E-04   7.9743746E+05   -1.8700521E+00
   1.2417868E-04   7.9059689E+05   -1.8696085E+00
   1.2475215E-04   7.8381660E+05   -1.8691639E+00
   1.2532826E-04   7.7709606E+05   -1.8687183E+00
   1.2590704E-04   7.7043472E+05   -1.8682717E+00
   1.2648850E-04   7.6383205E+05   -1.8678242E+00
   1.2707263E-04   7.5728754E+05   -1.8673757E+00
   1.2765947E-04   7.5080065E+05   -1.8669262E+00
   1.2824901E-04   7.4437087E+05   -1.8664757E+00
   1.2884128E-04   7.3799769E+05   -1.8660243E+00
   1.2943628E-04   7.3168060E+05   -1.8655719E+00
   1.3003403E-04   7.2541910E+05   -1.8651185E+00
   1.3063454E-04   7.1921268E+05   -1.8646642E+00
   1.3123783E-04   7.1306086E+05   -1.8642089E+00
   1.3184390E-04   7.0696314E+05   -1.8637527E+00
   1.3245277E-04   7.0091904E+05   -1.8632955E+00
   1.3306445E-04   6.9492808E+05   -1.8628374E+00
   1.3367895E-04   6.8898978E+05   -1.8623782E+00
   1.3429630E-04   6.8310368E+05   -1.8619182E+00
   1.3491649E-04   6.7726929E+05   -1.8614572E+00
   1.3553955E-04   6.7148616E+05   -1.8609952E+00
   1.3616548E-04   6.6575384E+05   -1.8605323E+00
   1.3679431E-04   6.6007186E+05   -1.8600685E+00
   1.3742604E-04   6.5443977E+05   -1.8596037E+00
   1.3806069E-04   6.4885713E+05   -1.8591379E+00
   1.3869827E-04   6.4332350E+05   -1.8586713E+00
   1.3933879E-04   6.3783843E+05   -1.8582037E+00
   1.3998227E-04   6.3240149E+05   -1.8577351E+00
   1.4062872E-04   6.2701225E+05   -1.8572657E+00
   1.4127816E-04   6.2167028E+05   -1.8567953E+00
   1.4193060E-04   6.1637516E+05   -1.8563240E+00
   1.4258605E-04   6.1112647E+05   -1.8558517E+00
   1.4324453E-04   6.0592379E+05   -1.8553785E+00
   1.4390605E-04   6.0076672E+05   -1.8549044E+00
   1.4457062E-04   5.9565484E+05   -1.8544294E+00
   1.4523826E-04   5.9058776E+05   -1.8539535E+00
   1.4590899E-04   5.8556506E+05   -1.8534767E+00
   1.4658281E-04   5.8058636E+05   -1.8529989E+00
   1.4725974E-04   5.7565125E+05   -1.8525203E+00
   1.4793981E-04   5.7075936E+05   -1.8520407E+00
   1.4862301E-04   5.6591028E+05   -1.8515602E+00
   1.4930936E-04   5.6110365E+05   -1.8510789E+00
   1.4999889E-04   5.5633908E+05   -1.8505966E+00
   1.5069160E-04   5.5161619E+05   -1.8501135E+00
   1.5138751E-04   5.4693462E+05   -1.8496294E+00
   1.5208663E-04   5.4229398E+05   -1.8491445E+00
   1.5278899E-04   5.3769393E+05   -1.8486586E+00
   1.5349458E-04   5.3313409E+05   -1.8481719E+00
   1.5420343E-04   5.2861411E+05   -1.8476843E+00
   1.5491556E-04   5.2413362E+05   -1.8471959E+00
   1.5563098E-04   5.1969229E+05   -1.8467065E+00
   1.5634970E-04   5.1528975E+05   -1.8462163E+00
   1.5707174E-04   5.1092566E+05   -1.8457252E+00
   1.5779711E-04   5.0659968E+05   -1.8452332E+00
   1.5852584E-04   5.0231146E+05   -1.8447404E+00
   1.5925792E-04   4.9806068E+05   -1.8442467E+00
   1.5999339E-04   4.9384699E+05   -1.8437522E+00
   1.6073226E-04   4.8967007E+05   -1.8432568E+00
   1.6147454E-04   4.8552958E+05   -1.8427605E+00
   1.6222024E-04   4.8142521E+05   -1.8422634E+00
   1.6296939E-04   4.7735663E+05   -1.8417655E+00
   1.6372200E-04   4.7332351E+05   -1.8412667E+00
   1.6447809E-04   4.6932556E+05   -1.8407671E+00
   1.6523767E-04   4.6536244E+05   -1.8402666E+00
   1.6600075E-04   4.6143386E+05   -1.8397653E+00
   1.6676736E-04   4.5753950E+05   -1.8392632E+00
   1.6753751E-04   4.5367905E+05   -1.8387602E+00
   1.6831122E-04   4.4985222E+05   -1.8382564E+00
   1.6908849E-04   4.4605871E+05   -1.8377518E+00
   1.6986936E-04   4.4229821E+05   -1.8372464E+00
   1.7065384E-04   4.3857044E+05   -1.8367402E+00
   1.7144193E-04   4.3487511E+05   -1.8362331E+00
   1.7223367E-04   4.3121191E+05   -1.8357253E+00
   1.7302906E-04   4.2758058E+05   -1.8352166E+00
   1.7382813E-04   4.2398082E+05   -1.8347072E+00
   1.7463089E-04   4.2041236E+05   -1.8341969E+00
   1.7543735E-04   4.1687491E+05   -1.8336859E+00
   1.7624754E-04   4.1336820E+05   -1.8331741E+00
   1.7706147E-04   4.0989196E+05   -1.8326615E+00
   1.7787916E-04   4.0644591E+05   -1.8321481E+00
   1.7870062E-04   4.0302978E+05   -1.8316339E+00
   1.7952588E-04   3.9964331E+05   -1.8311189E+00
   1.8035495E-04   3.9628624E+05   -1.8306032E+00
   1.8118785E-04   3.9295831E+05   -1.8300867E+00
   1.8202459E-04   3.8965925E+05   -1.8295695E+00
   1.8286520E-04   3.8638881E+05   -1.8290515E+00
   1.8370969E-04   3.8314673E+05   -1.8285327E+00
   1.8455808E-04   3.7993277E+05   -1.8280132E+00
   1.8541039E-04   3.7674666E+05   -1.8274929E+00
   1.8626663E-04   3.7358818E+05   -1.8269719E+00
   1.8712683E-04   3.7045706E+05   -1.8264502E+00
   1.8799100E-04   3.6735306E+05   -1.8259277E+00
   1.8885917E-04   3.6427596E+05   -1.8254045E+00
   1.8973134E-04   3.6122550E+05   -1.8248805E+00
   1.9060754E-04   3.5820145E+05   -1.8243558E+00
   1.9148778E-04   3.5520357E+05   -1.8238305E+00
   1.9237209E-04   3.5223164E+05   -1.8233044E+00
   1.9326049E-04   3.4928542E+05   -1.8227775E+00
   1.9415299E-04   3.4636468E+05   -1.8222500E+00
   1.9504960E-04   3.4346921E+05   -1.8217218E+00
   1.9595036E-04   3.4059877E+05   -1.8211929E+00
   1.9685528E-04   3.3775314E+05   -1.8206632E+00
   1.9776438E-04   3.3493211E+05   -1.8201329E+00
   1.9867768E-04   3.3213544E+05   -1.8196019E+00
   1.9959519E-04   3.2936294E+05   -1.8190703E+00
   2.0051694E-04   3.2661438E+05   -1.8185379E+00
   2.0144295E-04   3.2388955E+05   -1.8180049E+00
   2.0237324E-04   3.2118825E+05   -1.8174712E+00
   2.0330782E-04   3.1851026E+05   -1.8169368E+00
   2.0424671E-04   3.1585537E+05   -1.8164018E+00
   2.0518995E-04   3.1322338E+05   -1.8158661E+00
   2.0613754E-04   3.1061410E+05   -1.8153298E+00
   2.0708950E-04   3.0802731E+05   -1.8147928E+00
   2.0804586E-04   3.0546283E+05   -1.8142552E+00
   2.0900664E-04   3.0292044E+05   -1.8137169E+00
   2.0997185E-04   3.0039996E+05   -1.8131780E+00
   2.1094152E-04   2.9790119E+05   -1.8126385E+00
   2.1191567E-04   2.9542394E+05   -1.8120984E+00
   2.1289432E-04   2.9296802E+05   -1.8115576E+00
   2.1387749E-04   2.9053324E+05   -1.8110163E+00
   2.1486520E-04   2.8811942E+05   -1.8104743E+00
   2.1585747E-04   2.8572636E+05   -1.8099317E+00
   2.1685432E-04   2.8335389E+05   -1.8093885E+00
   2.1785578E-04   2.8100182E+05   -1.8088447E+00
   2.1886186E-04   2.7866998E+05   -1.8083003E+00
   2.1987259E-04   2.7635818E+05   -1.8077554E+00
   2.2088798E-04   2.7406624E+05   -1.8072099E+00
   2.2190807E-04   2.7179400E+05   -1.8066637E+00
   2.2293286E-04   2.6954127E+05   -1.8061171E+00
   2.2396239E-04   2.6730789E+05   -1.8055698E+00
   2.2499667E-04   2.6509369E+05   -1.8050220E+00
   2.2603573E-04   2.6289849E+05   -1.8044736E+00
   2.2707958E-04   2.6072212E+05   -1.8039247E+00
   2.2812826E-04   2.5856443E+05   -1.8033752E+00
   2.2918178E-04   2.5642524E+05   -1.8028252E+00
   2.3024017E-04   2.5430440E+05   -1.8022747E+00
   2.3130344E-04   2.5220173E+05   -1.8017236E+00
   2.3237162E-04   2.5011709E+05   -1.8011720E+00
   2.3344474E-04   2.4805031E+05   -1.8006199E+00
   2.3452281E-04   2.4600123E+05   -1.8000672E+00
   2.3560586E-04   2.4396971E+05   -1.7995141E+00
   2.3669392E-04   2.4195557E+05   -1.7989604E+00
   2.3778699E-04   2.3995868E+05   -1.7984063E+00
   2.3888512E-04   2.3797888E+05   -1.7978516E+00
   2.3998831E-04   2.3601601E+05   -1.7972965E+00
   2.4109661E-04   2.3406993E+05   -1.7967409E+00
   2.4221001E-04   2.3214049E+05   -1.7961848E+00
   2.4332857E-04   2.3022755E+05   -1.7956282E+00
   2.4445228E-04   2.2833096E+05   -1.7950711E+00
   2.4558119E-04   2.2645057E+05   -1.7945136E+00
   2.4671531E-04   2.2458624E+05   -1.7939557E+00
   2.4785467E-04   2.2273784E+05   -1.7933972E+00
   2.4899928E-04   2.2090522E+05   -1.7928384E+00
   2.5014919E-04   2.1908824E+05   -1.7922791E+00
   2.5130440E-04   2.1728676E+05   -1.7917193E+00
   2.5246495E-04   2.1550066E+05   -1.7911591E+00
   2.5363086E-04   2.1372979E+05   -1.7905985E+00
   2.5480216E-04   2.1197401E+05   -1.7900375E+00
   2.5597886E-04   2.1023321E+05   -1.7894761E+00
   2.5716100E-04   2.0850724E+05   -1.7889142E+00
   2.5834859E-04   2.0679598E+05   -1.7883520E+00
   2.5954168E-04   2.0509929E+05   -1.7877893E+00
   2.6074027E-04   2.0341705E+05   -1.7872263E+00
   2.6194439E-04   2.0174913E+05   -1.7866629E+00
   2.6315408E-04   2.0009541E+05   -1.7860991E+00
   2.6436935E-04   1.9845576E+05   -1.7855349E+00
   2.6559024E-04   1.9683005E+05   -1.7849703E+00
   2.6681676E-04   1.9521818E+05   -1.7844054E+00
   2.6804895E-04   1.9362000E+05   -1.7838401E+00
   2.6928683E-04   1.9203541E+05   -1.7832745E+00
   2.7053042E-04   1.9046429E+05   -1.7827085E+00
   2.7177976E-04   1.8890651E+05   -1.7821422E+00
   2.7303487E-04   1.8736196E+05   -1.7815756E+00
   2.7429577E-04   1.8583052E+05   -1.7810086E+00
   2.7556250E-04   1.8431209E+05   -1.7804413E+00
   2.7683507E-04   1.8280654E+05   -1.7798736E+00
   2.7811353E-04   1.8131376E+05   -1.7793057E+00
   2.7939788E-04   1.7983364E+05   -1.7787374E+00
   2.8068817E-04   1.7836608E+05   -1.7781689E+00
   2.8198442E-04   1.7691095E+05   -1.7776000E+00
   2.8328665E-04   1.7546815E+05   -1.7770309E+00
   2.8459490E-04   1.7403758E+05   -1.7764615E+00
   2.8590919E-04   1.7261912E+05   -1.7758918E+00
   2.8722955E-04   1.7121267E+05   -1.7753218E+00
   2.8855600E-04   1.6981813E+05   -1.7747516E+00
   2.8988859E-04   1.6843539E+05   -1.7741811E+00
   2.9122732E-04   1.6706435E+05   -1.7736103E+00
   2.9257224E-04   1.6570490E+05   -1.7730393E+00
   2.9392337E-04   1.6435695E+05   -1.7724681E+00
   2.9528074E-04   1.6302040E+05   -1.7718966E+00
   2.9664438E-04   1.6169513E+05   -1.7713249E+00
   2.9801431E-04   1.6038107E+05   -1.7707529E+00
   2.9939057E-04   1.5907810E+05   -1.7701807E+00
   3.0077319E-04   1.5778613E+05   -1.7696084E+00
   3.0216219E-04   1.5650507E+05   -1.7690358E+00
   3.0355761E-04   1.5523482E+05   -1.7684630E+00
   3.0495947E-04   1.5397529E+05   -1.7678900E+00
   3.0636780E-04   1.5272638E+05   -1.7673169E+00
   3.0778264E-04   1.5148800E+05   -1.7667435E+00
   3.0920401E-04   1.5026006E+05   -1.7661700E+00
   3.1063195E-04   1.4904246E+05   -1.7655963E+00
   3.1206648E-04   1.4783512E+05   -1.7650224E+00
   3.1350764E-04   1.4663795E+05   -1.7644484E+00
   3.1495545E-04   1.4545086E+05   -1.7638742E+00
   3.1640994E-04   1.4427377E+05   -1.7632999E+00
   3.1787116E-04   1.4310657E+05   -1.7627254E+00
   3.1933912E-04   1.4194920E+05   -1.7621508E+00
   3.2081386E-04   1.4080155E+05   -1.7615761E+00
   3.2229541E-04   1.3966356E+05   -1.7610012E+00
   3.2378381E-04   1.3853513E+05   -1.7604262E+00
   3.2527908E-04   1.3741618E+05   -1.7598512E+00
   3.2678125E-04   1.3630663E+05   -1.7592760E+00
   3.2829036E-04   1.3520640E+05   -1.7587007E+00
   3.2980644E-04   1.3411541E+05   -1.7581253E+00
   3.3132952E-04   1.3303357E+05   -1.7575498E+00
   3.3285963E-04   1.3196080E+05   -1.7569743E+00
   3.3439681E-04   1.3089704E+05   -1.7563987E+00
   3.3594109E-04   1.2984219E+05   -1.7558230E+00
   3.3749250E-04   1.2879619E+05   -1.7552472E+00
   3.3905108E-04   1.2775895E+05   -1.7546714E+00
   3.4061685E-04   1.2673041E+05   -1.7540955E+00
   3.4218986E-04   1.2571047E+05   -1.7535196E+00
   3.4377013E-04   1.2469908E+05   -1.7529437E+00
   3.4535769E-04   1.2369615E+05   -1.7523677E+00
   3.4695259E-04   1.2270161E+05   -1.7517917E+00
   3.4855485E-04   1.2171539E+05   -1.7512157E+00
   3.5016452E-04   1.2073742E+05   -1.7506396E+00
   3.5178161E-04   1.1976763E+05   -1.7500636E+00
   3.5340618E-04   1.1880593E+05   -1.7494876E+00
   3.5503824E-04   1.1785228E+05   -1.7489115E+00
   3.5667785E-04   1.1690659E+05   -1.7483355E+00
   3.5832502E-04   1.1596880E+05   -1.7477595E+00
   3.5997981E-04   1.1503883E+05   -1.7471835E+00
   3.6164223E-04   1.1411662E+05   -1.7466075E+00
   3.6331233E-04   1.1320211E+05   -1.7460316E+00
   3.6499015E-04   1.1229523E+05   -1.7454557E+00
   3.6667571E-04   1.1139590E+05   -1.7448799E+00
   3.6836906E-04   1.1050407E+05   -1.7443041E+00
   3.7007022E-04   1.0961967E+05   -1.7437284E+00
   3.7177925E-04   1.0874264E+05   -1.7431527E+00
   3.7349616E-04   1.0787291E+05   -1.7425771E+00
   3.7522101E-04   1.0701042E+05   -1.7420016E+00
   3.7695382E-04   1.0615511E+05   -1.7414262E+00
   3.7869463E-04   1.0530692E+05   -1.7408509E+00
   3.8044348E-04   1.0446578E+05   -1.7402756E+00
   3.8220041E-04   1.0363163E+05   -1.7397005E+00
   3.8396545E-04   1.0280441E+05   -1.7391255E+00
   3.8573864E-04   1.0198407E+05   -1.7385506E+00
   3.8752002E-04   1.0117054E+05   -1.7379758E+00
   3.8930963E-04   1.0036377E+05   -1.7374011E+00
   3.9110750E-04   9.9563691E+04   -1.7368266E+00
   3.9291368E-04   9.8770254E+04   -1.7362522E+00
   3.9472820E-04   9.7983400E+04   -1.7356779E+00
   3.9655109E-04   9.7203071E+04   -1.7351038E+00
   3.9838241E-04   9.6429211E+04   -1.7345299E+00
   4.0022218E-04   9.5661766E+04   -1.7339561E+00
   4.0207045E-04   9.4900679E+04   -1.7333825E+00
   4.0392725E-04   9.4145897E+04   -1.7328091E+00
   4.0579263E-04   9.3397364E+04   -1.7322358E+00
   4.0766662E-04   9.2655027E+04   -1.7316627E+00
   4.0954927E-04   9.1918833E+04   -1.7310899E+00
   4.1144061E-04   9.1188729E+04   -1.7305172E+00
   4.1334068E-04   9.0464663E+04   -1.7299447E+00
   4.1524953E-04   8.9746583E+04   -1.7293724E+00
   4.1716720E-04   8.9034438E+04   -1.7288004E+00
   4.1909372E-04   8.8328176E+04   -1.7282286E+00
   4.2102914E-04   8.7627747E+04   -1.7276570E+00
   4.2297350E-04   8.6933102E+04   -1.7270856E+00
   4.2492683E-04   8.6244190E+04   -1.7265145E+00
   4.2688919E-04   8.5560963E+04   -1.7259436E+00
   4.2886061E-04   8.4883372E+04   -1.7253730E+00
   4.3084113E-04   8.4211368E+04   -1.7248026E+00
   4.3283080E-04   8.3544903E+04   -1.7242325E+00
   4.3482966E-04   8.2883931E+04   -1.7236627E+00
   4.3683775E-04   8.2228404E+04   -1.7230932E+00
   4.3885511E-04   8.1578275E+04   -1.7225239E+00
   4.4088179E-04   8.0933499E+04   -1.7219549E+00
   4.4291783E-04   8.0294030E+04   -1.7213862E+00
   4.4496327E-04   7.9659821E+04   -1.7208178E+00
   4.4701816E-04   7.9030829E+04   -1.7202497E+00
   4.4908253E-04   7.8407009E+04   -1.7196819E+00
   4.5115644E-04   7.7788316E+04   -1.7191145E+00
   4.5323993E-04   7.7174707E+04   -1.7185473E+00
   4.5533304E-04   7.6566138E+04   -1.7179805E+00
   4.5743582E-04   7.5962566E+04   -1.7174140E+00
   4.5954830E-04   7.5363949E+04   -1.7168479E+00
   4.6167054E-04   7.4770245E+04   -1.7162821E+00
   4.6380259E-04   7.4181411E+04   -1.7157167E+00
   4.6594448E-04   7.3597405E+04   -1.7151516E+00
   4.6809626E-04   7.3018188E+04   -1.7145868E+00
   4.7025797E-04   7.2443717E+04   -1.7140225E+00
   4.7242967E-04   7.1873952E+04   -1.7134585E+00
   4.7461140E-04   7.1308855E+04   -1.7128949E+00
   4.7680321E-04   7.0748383E+04   -1.7123317E+00
   4.7900514E-04   7.0192499E+04   -1.7117688E+00
   4.8121723E-04   6.9641164E+04   -1.7112064E+00
   4.8343954E-04   6.9094338E+04   -1.7106443E+00
   4.8567212E-04   6.8551983E+04   -1.7100827E+00
   4.8791500E-04   6.8014061E+04   -1.7095215E+00
   4.9016825E-04   6.7480534E+04   -1.7089607E+00
   4.9243189E-04   6.6951366E+04   -1.7084003E+00
   4.9470600E-04   6.6426519E+04   -1.7078403E+00
   4.9699060E-04   6.5905956E+04   -1.7072808E+00
   4.9928575E-04   6.5389641E+04   -1.7067217E+00
   5.0159151E-04   6.4877538E+04   -1.7061631E+00
   5.0390791E-04   6.4369611E+04   -1.7056049E+00
   5.0623501E-04   6.3865825E+04   -1.7050472E+00
   5.0857286E-04   6.3366145E+04   -1.7044899E+00
   5.1092150E-04   6.2870535E+04   -1.7039331E+00
   5.1328099E-04   6.2378962E+04   -1.7033768E+00
   5.1565137E-04   6.1891391E+04   -1.7028209E+00
   5.1803270E-04   6.1407788E+04   -1.7022656E+00
   5.2042503E-04   6.0928119E+04   -1.7017107E+00
   5.2282841E-04   6.0452352E+04   -1.7011563E+00
   5.2524289E-04   5.9980453E+04   -1.7006024E+00
   5.2766851E-04   5.9512390E+04   -1.7000490E+00
   5.3010534E-04   5.9048130E+04   -1.6994961E+00
   5.3255342E-04   5.8587640E+04   -1.6989437E+00
   5.3501281E-04   5.8130890E+04   -1.6983919E+00
   5.3748356E-04   5.7677847E+04   -1.6978405E+00
   5.3996571E-04   5.7228480E+04   -1.6972897E+00
   5.4245933E-04   5.6782758E+04   -1.6967395E+00
   5.4496446E-04   5.6340651E+04   -1.6961897E+00
   5.4748117E-04   5.5902127E+04   -1.6956406E+00
   5.5000949E-04   5.5467157E+04   -1.6950919E+00
   5.5254949E-04   5.5035710E+04   -1.6945438E+00
   5.5510123E-04   5.4607757E+04   -1.6939963E+00
   5.5766474E-04   5.4183268E+04   -1.6934493E+00
   5.6024010E-04   5.3762215E+04   -1.6929030E+00
   5.6282734E-04   5.3344567E+04   -1.6923571E+00
   5.6542654E-04   5.2930298E+04   -1.6918119E+00
   5.6803774E-04   5.2519377E+04   -1.6912672E+00
   5.7066099E-04   5.2111777E+04   -1.6907232E+00
   5.7329637E-04   5.1707470E+04   -1.6901797E+00
   5.7594391E-04   5.1306428E+04   -1.6896368E+00
   5.7860368E-04   5.0908624E+04   -1.6890945E+00
   5.8127573E-04   5.0514030E+04   -1.6885528E+00
   5.8396012E-04   5.0122621E+04   -1.6880118E+00
   5.8665691E-04   4.9734367E+04   -1.6874713E+00
   5.8936616E-04   4.9349244E+04   -1.6869315E+00
   5.9208791E-04   4.8967225E+04   -1.6863923E+00
   5.9482223E-04   4.8588284E+04   -1.6858538E+00
   5.9756919E-04   4.8212395E+04   -1.6853158E+00
   6.0032882E-04   4.7839532E+04   -1.6847785E+00
   6.0310120E-04   4.7469671E+04   -1.6842419E+00
   6.0588639E-04   4.7102785E+04   -1.6837059E+00
   6.0868443E-04   4.6738850E+04   -1.6831705E+00
   6.1149540E-04   4.6377842E+04   -1.6826358E+00
   6.1431935E-04   4.6019735E+04   -1.6821018E+00
   6.1715634E-04   4.5664506E+04   -1.6815684E+00
   6.2000644E-04   4.5312130E+04   -1.6810358E+00
   6.2286969E-04   4.4962584E+04   -1.6805037E+00
