#        a       HoverH0(a)       dlogHdloga_of_a(a)
   1.0000000E-04   1.1432373E+06   -1.8668309E+00
   1.0046181E-04   1.1334472E+06   -1.8663802E+00
   1.0092575E-04   1.1237433E+06   -1.8659286E+00
   1.0139184E-04   1.1141248E+06   -1.8654760E+00
   1.0186008E-04   1.1045910E+06   -1.8650225E+00
   1.0233048E-04   1.0951410E+06   -1.8645679E+00
   1.0280305E-04   1.0857741E+06   -1.8641125E+00
   1.0327781E-04   1.0764896E+06   -1.8636560E+00
   1.0375475E-04   1.0672868E+06   -1.8631986E+00
   1.0423390E-04   1.0581648E+06   -1.8627403E+00
   1.0471527E-04   1.0491231E+06   -1.8622810E+00
   1.0519885E-04   1.0401608E+06   -1.8618207E+00
   1.0568467E-04   1.0312772E+06   -1.8613595E+00
   1.0617274E-04   1.0224717E+06   -1.8608974E+00
   1.0666305E-04   1.0137436E+06   -1.8604343E+00
   1.0715563E-04   1.0050921E+06   -1.8599703E+00
   1.0765049E-04   9.9651655E+05   -1.8595053E+00
   1.0814763E-04   9.8801631E+05   -1.8590394E+00
   1.0864707E-04   9.7959067E+05   -1.8585725E+00
   1.0914881E-04   9.7123898E+05   -1.8581047E+00
   1.0965287E-04   9.6296057E+05   -1.8576360E+00
   1.1015926E-04   9.5475479E+05   -1.8571663E+00
   1.1066799E-04   9.4662098E+05   -1.8566958E+00
   1.1117906E-04   9.3855850E+05   -1.8562242E+00
   1.1169250E-04   9.3056671E+05   -1.8557518E+00
   1.1220831E-04   9.2264498E+05   -1.8552785E+00
   1.1272650E-04   9.1479269E+05   -1.8548042E+00
   1.1324708E-04   9.0700921E+05   -1.8543290E+00
   1.1377007E-04   8.9929393E+05   -1.8538529E+00
   1.1429547E-04   8.9164623E+05   -1.8533759E+00
   1.1482330E-04   8.8406552E+05   -1.8528979E+00
   1.1535356E-04   8.7655118E+05   -1.8524191E+00
   1.1588628E-04   8.6910264E+05   -1.8519394E+00
   1.1642145E-04   8.6171930E+05   -1.8514587E+00
   1.1695910E-04   8.5440057E+05   -1.8509772E+00
   1.1749923E-04   8.4714589E+05   -1.8504947E+00
   1.1804185E-04   8.3995467E+05   -1.8500114E+00
   1.1858698E-04   8.3282635E+05   -1.8495272E+00
   1.1913463E-04   8.2576037E+05   -1.8490420E+00
   1.1968481E-04   8.1875618E+05   -1.8485560E+00
   1.2023752E-04   8.1181321E+05   -1.8480692E+00
   1.2079279E-04   8.0493093E+05   -1.8475814E+00
   1.2135063E-04   7.9810879E+05   -1.8470927E+00
   1.2191104E-04   7.9134625E+05   -1.8466032E+00
   1.2247403E-04   7.8464279E+05   -1.8461128E+00
   1.2303963E-04   7.7799787E+05   -1.8456216E+00
   1.2360784E-04   7.7141097E+05   -1.8451294E+00
   1.2417868E-04   7.6488157E+05   -1.8446364E+00
   1.2475215E-04   7.5840917E+05   -1.8441426E+00
   1.2532826E-04   7.5199324E+05   -1.8436479E+00
   1.2590704E-04   7.4563330E+05   -1.8431523E+00
   1.2648850E-04   7.3932883E+05   -1.8426559E+00
   1.2707263E-04   7.3307934E+05   -1.8421586E+00
   1.2765947E-04   7.2688435E+05   -1.8416605E+00
   1.2824901E-04   7.2074337E+05   -1.8411616E+00
   1.2884128E-04   7.1465591E+05   -1.8406618E+00
   1.2943628E-04   7.0862150E+05   -1.8401611E+00
   1.3003403E-04   7.0263967E+05   -1.8396597E+00
   1.3063454E-04   6.9670994E+05   -1.8391574E+00
   1.3123783E-04   6.9083186E+05   -1.8386543E+00
   1.3184390E-04   6.8500495E+05   -1.8381503E+00
   1.3245277E-04   6.7922878E+05   -1.8376456E+00
   1.3306445E-04   6.7350287E+05   -1.8371400E+00
   1.3367895E-04   6.6782680E+05   -1.8366336E+00
   1.3429630E-04   6.6220010E+05   -1.8361264E+00
   1.3491649E-04   6.5662235E+05   -1.8356184E+00
   1.3553955E-04   6.5109311E+05   -1.8351096E+00
   1.3616548E-04   6.4561194E+05   -1.8346000E+00
   1.3679431E-04   6.4017842E+05   -1.8340896E+00
   1.3742604E-04   6.3479212E+05   -1.8335784E+00
   1.3806069E-04   6.2945262E+05   -1.8330664E+00
   1.3869827E-04   6.2415951E+05   -1.8325537E+00
   1.3933879E-04   6.1891237E+05   -1.8320401E+00
   1.3998227E-04   6.1371080E+05   -1.8315258E+00
   1.4062872E-04   6.0855439E+05   -1.8310107E+00
   1.4127816E-04   6.0344273E+05   -1.8304948E+00
   1.4193060E-04   5.9837544E+05   -1.8299782E+00
   1.4258605E-04   5.9335210E+05   -1.8294608E+00
   1.4324453E-04   5.8837235E+05   -1.8289426E+00
   1.4390605E-04   5.8343577E+05   -1.8284237E+00
   1.4457062E-04   5.7854201E+05   -1.8279041E+00
   1.4523826E-04   5.7369067E+05   -1.8273837E+00
   1.4590899E-04   5.6888137E+05   -1.8268625E+00
   1.4658281E-04   5.6411374E+05   -1.8263406E+00
   1.4725974E-04   5.5938742E+05   -1.8258180E+00
   1.4793981E-04   5.5470203E+05   -1.8252947E+00
   1.4862301E-04   5.5005721E+05   -1.8247706E+00
   1.4930936E-04   5.4545261E+05   -1.8242458E+00
   1.4999889E-04   5.4088786E+05   -1.8237202E+00
   1.5069160E-04   5.3636261E+05   -1.8231940E+00
   1.5138751E-04   5.3187650E+05   -1.8226671E+00
   1.5208663E-04   5.2742921E+05   -1.8221394E+00
   1.5278899E-04   5.2302037E+05   -1.8216110E+00
   1.5349458E-04   5.1864965E+05   -1.8210820E+00
   1.5420343E-04   5.1431671E+05   -1.8205522E+00
   1.5491556E-04   5.1002121E+05   -1.8200218E+00
   1.5563098E-04   5.0576282E+05   -1.8194907E+00
   1.5634970E-04   5.0154122E+05   -1.8189589E+00
   1.5707174E-04   4.9735608E+05   -1.8184264E+00
   1.5779711E-04   4.9320707E+05   -1.8178933E+00
   1.5852584E-04   4.8909387E+05   -1.8173594E+00
   1.5925792E-04   4.8501617E+05   -1.8168250E+00
   1.5999339E-04   4.8097365E+05   -1.8162898E+00
   1.6073226E-04   4.7696600E+05   -1.8157540E+00
   1.6147454E-04   4.7299291E+05   -1.8152176E+00
   1.6222024E-04   4.6905408E+05   -1.8146805E+00
   1.6296939E-04   4.6514920E+05   -1.8141427E+00
   1.6372200E-04   4.6127798E+05   -1.8136044E+00
   1.6447809E-04   4.5744010E+05   -1.8130654E+00
   1.6523767E-04   4.5363529E+05   -1.8125257E+00
   1.6600075E-04   4.4986324E+05   -1.8119855E+00
   1.6676736E-04   4.4612367E+05   -1.8114446E+00
   1.6753751E-04   4.4241629E+05   -1.8109031E+00
   1.6831122E-04   4.3874081E+05   -1.8103611E+00
   1.6908849E-04   4.3509695E+05   -1.8098184E+00
   1.6986936E-04   4.3148444E+05   -1.8092751E+00
   1.7065384E-04   4.2790299E+05   -1.8087312E+00
   1.7144193E-04   4.2435233E+05   -1.8081867E+00
   1.7223367E-04   4.2083219E+05   -1.8076417E+00
   1.7302906E-04   4.1734230E+05   -1.8070960E+00
   1.7382813E-04   4.1388240E+05   -1.8065498E+00
   1.7463089E-04   4.1045221E+05   -1.8060030E+00
   1.7543735E-04   4.0705147E+05   -1.8054557E+00
   1.7624754E-04   4.0367993E+05   -1.8049078E+00
   1.7706147E-04   4.0033733E+05   -1.8043593E+00
   1.7787916E-04   3.9702341E+05   -1.8038103E+00
   1.7870062E-04   3.9373792E+05   -1.8032607E+00
   1.7952588E-04   3.9048060E+05   -1.8027106E+00
   1.8035495E-04   3.8725121E+05   -1.8021600E+00
   1.8118785E-04   3.8404951E+05   -1.8016088E+00
   1.8202459E-04   3.8087525E+05   -1.8010571E+00
   1.8286520E-04   3.7772818E+05   -1.8005049E+00
   1.8370969E-04   3.7460807E+05   -1.7999522E+00
   1.8455808E-04   3.7151467E+05   -1.7993990E+00
   1.8541039E-04   3.6844777E+05   -1.7988453E+00
   1.8626663E-04   3.6540711E+05   -1.7982910E+00
   1.8712683E-04   3.6239247E+05   -1.7977363E+00
   1.8799100E-04   3.5940362E+05   -1.7971811E+00
   1.8885917E-04   3.5644034E+05   -1.7966254E+00
   1.8973134E-04   3.5350239E+05   -1.7960692E+00
   1.9060754E-04   3.5058956E+05   -1.7955125E+00
   1.9148778E-04   3.4770162E+05   -1.7949554E+00
   1.9237209E-04   3.4483835E+05   -1.7943978E+00
   1.9326049E-04   3.4199955E+05   -1.7938398E+00
   1.9415299E-04   3.3918498E+05   -1.7932813E+00
   1.9504960E-04   3.3639445E+05   -1.7927224E+00
   1.9595036E-04   3.3362773E+05   -1.7921630E+00
   1.9685528E-04   3.3088462E+05   -1.7916032E+00
   1.9776438E-04   3.2816491E+05   -1.7910430E+00
   1.9867768E-04   3.2546840E+05   -1.7904823E+00
   1.9959519E-04   3.2279488E+05   -1.7899212E+00
   2.0051694E-04   3.2014414E+05   -1.7893597E+00
   2.0144295E-04   3.1751600E+05   -1.7887978E+00
   2.0237324E-04   3.1491024E+05   -1.7882355E+00
   2.0330782E-04   3.1232669E+05   -1.7876728E+00
   2.0424671E-04   3.0976512E+05   -1.7871097E+00
   2.0518995E-04   3.0722537E+05   -1.7865462E+00
   2.0613754E-04   3.0470723E+05   -1.7859824E+00
   2.0708950E-04   3.0221052E+05   -1.7854181E+00
   2.0804586E-04   2.9973504E+05   -1.7848535E+00
   2.0900664E-04   2.9728061E+05   -1.7842886E+00
   2.0997185E-04   2.9484705E+05   -1.7837233E+00
   2.1094152E-04   2.9243418E+05   -1.7831576E+00
   2.1191567E-04   2.9004180E+05   -1.7825916E+00
   2.1289432E-04   2.8766975E+05   -1.7820252E+00
   2.1387749E-04   2.8531784E+05   -1.7814585E+00
   2.1486520E-04   2.8298590E+05   -1.7808915E+00
   2.1585747E-04   2.8067375E+05   -1.7803241E+00
   2.1685432E-04   2.7838122E+05   -1.7797565E+00
   2.1785578E-04   2.7610814E+05   -1.7791885E+00
   2.1886186E-04   2.7385434E+05   -1.7786202E+00
   2.1987259E-04   2.7161964E+05   -1.7780516E+00
   2.2088798E-04   2.6940389E+05   -1.7774827E+00
   2.2190807E-04   2.6720691E+05   -1.7769136E+00
   2.2293286E-04   2.6502854E+05   -1.7763441E+00
   2.2396239E-04   2.6286863E+05   -1.7757744E+00
   2.2499667E-04   2.6072700E+05   -1.7752044E+00
   2.2603573E-04   2.5860349E+05   -1.7746341E+00
   2.2707958E-04   2.5649796E+05   -1.7740636E+00
   2.2812826E-04   2.5441024E+05   -1.7734929E+00
   2.2918178E-04   2.5234017E+05   -1.7729218E+00
   2.3024017E-04   2.5028761E+05   -1.7723506E+00
   2.3130344E-04   2.4825239E+05   -1.7717791E+00
   2.3237162E-04   2.4623438E+05   -1.7712073E+00
   2.3344474E-04   2.4423341E+05   -1.7706354E+00
   2.3452281E-04   2.4224934E+05   -1.7700632E+00
   2.3560586E-04   2.4028202E+05   -1.7694908E+00
   2.3669392E-04   2.3833131E+05   -1.7689182E+00
   2.3778699E-04   2.3639706E+05   -1.7683454E+00
   2.3888512E-04   2.3447912E+05   -1.7677725E+00
   2.3998831E-04   2.3257736E+05   -1.7671993E+00
   2.4109661E-04   2.3069163E+05   -1.7666259E+00
   2.4221001E-04   2.2882180E+05   -1.7660524E+00
   2.4332857E-04   2.2696772E+05   -1.7654787E+00
   2.4445228E-04   2.2512926E+05   -1.7649048E+00
   2.4558119E-04   2.2330629E+05   -1.7643308E+00
   2.4671531E-04   2.2149866E+05   -1.7637567E+00
   2.4785467E-04   2.1970624E+05   -1.7631823E+00
   2.4899928E-04   2.1792891E+05   -1.7626079E+00
   2.5014919E-04   2.1616652E+05   -1.7620333E+00
   2.5130440E-04   2.1441896E+05   -1.7614586E+00
   2.5246495E-04   2.1268609E+05   -1.7608837E+00
   2.5363086E-04   2.1096778E+05   -1.7603088E+00
   2.5480216E-04   2.0926390E+05   -1.7597337E+00
   2.5597886E-04   2.0757434E+05   -1.7591585E+00
   2.5716100E-04   2.0589897E+05   -1.7585832E+00
   2.5834859E-04   2.0423766E+05   -1.7580079E+00
   2.5954168E-04   2.0259029E+05   -1.7574324E+00
   2.6074027E-04   2.0095674E+05   -1.7568569E+00
   2.6194439E-04   1.9933689E+05   -1.7562813E+00
   2.6315408E-04   1.9773062E+05   -1.7557056E+00
   2.6436935E-04   1.9613782E+05   -1.7551299E+00
   2.6559024E-04   1.9455836E+05   -1.7545541E+00
   2.6681676E-04   1.9299214E+05   -1.7539783E+00
   2.6804895E-04   1.9143903E+05   -1.7534024E+00
   2.6928683E-04   1.8989892E+05   -1.7528265E+00
   2.7053042E-04   1.8837170E+05   -1.7522506E+00
   2.7177976E-04   1.8685726E+05   -1.7516746E+00
   2.7303487E-04   1.8535549E+05   -1.7510986E+00
   2.7429577E-04   1.8386628E+05   -1.7505226E+00
   2.7556250E-04   1.8238951E+05   -1.7499466E+00
   2.7683507E-04   1.8092509E+05   -1.7493706E+00
   2.7811353E-04   1.7947290E+05   -1.7487946E+00
   2.7939788E-04   1.7803284E+05   -1.7482187E+00
   2.8068817E-04   1.7660480E+05   -1.7476427E+00
   2.8198442E-04   1.7518868E+05   -1.7470667E+00
   2.8328665E-04   1.7378438E+05   -1.7464908E+00
   2.8459490E-04   1.7239180E+05   -1.7459150E+00
   2.8590919E-04   1.7101082E+05   -1.7453391E+00
   2.8722955E-04   1.6964136E+05   -1.7447634E+00
   2.8855600E-04   1.6828331E+05   -1.7441876E+00
   2.8988859E-04   1.6693658E+05   -1.7436120E+00
   2.9122732E-04   1.6560106E+05   -1.7430364E+00
   2.9257224E-04   1.6427666E+05   -1.7424608E+00
   2.9392337E-04   1.6296329E+05   -1.7418854E+00
   2.9528074E-04   1.6166084E+05   -1.7413100E+00
   2.9664438E-04   1.6036923E+05   -1.7407348E+00
   2.9801431E-04   1.5908837E+05   -1.7401596E+00
   2.9939057E-04   1.5781815E+05   -1.7395845E+00
   3.0077319E-04   1.5655848E+05   -1.7390096E+00
   3.0216219E-04   1.5530929E+05   -1.7384347E+00
   3.0355761E-04   1.5407046E+05   -1.7378600E+00
   3.0495947E-04   1.5284193E+05   -1.7372854E+00
   3.0636780E-04   1.5162359E+05   -1.7367110E+00
   3.0778264E-04   1.5041536E+05   -1.7361367E+00
   3.0920401E-04   1.4921715E+05   -1.7355625E+00
   3.1063195E-04   1.4802888E+05   -1.7349885E+00
   3.1206648E-04   1.4685046E+05   -1.7344146E+00
   3.1350764E-04   1.4568181E+05   -1.7338409E+00
   3.1495545E-04   1.4452284E+05   -1.7332674E+00
   3.1640994E-04   1.4337347E+05   -1.7326941E+00
   3.1787116E-04   1.4223361E+05   -1.7321209E+00
   3.1933912E-04   1.4110319E+05   -1.7315479E+00
   3.2081386E-04   1.3998213E+05   -1.7309751E+00
   3.2229541E-04   1.3887033E+05   -1.7304025E+00
   3.2378381E-04   1.3776773E+05   -1.7298302E+00
   3.2527908E-04   1.3667425E+05   -1.7292580E+00
   3.2678125E-04   1.3558980E+05   -1.7286861E+00
   3.2829036E-04   1.3451431E+05   -1.7281143E+00
   3.2980644E-04   1.3344770E+05   -1.7275428E+00
   3.3132952E-04   1.3238990E+05   -1.7269716E+00
   3.3285963E-04   1.3134083E+05   -1.7264006E+00
   3.3439681E-04   1.3030042E+05   -1.7258298E+00
   3.3594109E-04   1.2926858E+05   -1.7252593E+00
   3.3749250E-04   1.2824526E+05   -1.7246890E+00
   3.3905108E-04   1.2723037E+05   -1.7241190E+00
   3.4061685E-04   1.2622384E+05   -1.7235493E+00
   3.4218986E-04   1.2522561E+05   -1.7229799E+00
   3.4377013E-04   1.2423559E+05   -1.7224107E+00
   3.4535769E-04   1.2325372E+05   -1.7218419E+00
   3.4695259E-04   1.2227994E+05   -1.7212733E+00
   3.4855485E-04   1.2131417E+05   -1.7207050E+00
   3.5016452E-04   1.2035633E+05   -1.7201370E+00
   3.5178161E-04   1.1940638E+05   -1.7195694E+00
   3.5340618E-04   1.1846423E+05   -1.7190021E+00
   3.5503824E-04   1.1752982E+05   -1.7184350E+00
   3.5667785E-04   1.1660309E+05   -1.7178683E+00
   3.5832502E-04   1.1568396E+05   -1.7173020E+00
   3.5997981E-04   1.1477239E+05   -1.7167360E+00
   3.6164223E-04   1.1386829E+05   -1.7161703E+00
   3.6331233E-04   1.1297160E+05   -1.7156050E+00
   3.6499015E-04   1.1208227E+05   -1.7150401E+00
   3.6667571E-04   1.1120023E+05   -1.7144755E+00
   3.6836906E-04   1.1032542E+05   -1.7139112E+00
   3.7007022E-04   1.0945778E+05   -1.7133474E+00
   3.7177925E-04   1.0859724E+05   -1.7127839E+00
   3.7349616E-04   1.0774374E+05   -1.7122208E+00
   3.7522101E-04   1.0689723E+05   -1.7116581E+00
   3.7695382E-04   1.0605765E+05   -1.7110959E+00
   3.7869463E-04   1.0522493E+05   -1.7105340E+00
   3.8044348E-04   1.0439903E+05   -1.7099725E+00
   3.8220041E-04   1.0357987E+05   -1.7094114E+00
   3.8396545E-04   1.0276740E+05   -1.7088508E+00
   3.8573864E-04   1.0196157E+05   -1.7082905E+00
   3.8752002E-04   1.0116232E+05   -1.7077307E+00
   3.8930963E-04   1.0036960E+05   -1.7071714E+00
   3.9110750E-04   9.9583342E+04   -1.7066124E+00
   3.9291368E-04   9.8803499E+04   -1.7060540E+00
   3.9472820E-04   9.8030015E+04   -1.7054959E+00
   3.9655109E-04   9.7262836E+04   -1.7049384E+00
   3.9838241E-04   9.6501908E+04   -1.7043813E+00
   4.0022218E-04   9.5747180E+04   -1.7038246E+00
   4.0207045E-04   9.4998598E+04   -1.7032685E+00
   4.0392725E-04   9.4256109E+04   -1.7027128E+00
   4.0579263E-04   9.3519664E+04   -1.7021576E+00
   4.0766662E-04   9.2789209E+04   -1.7016029E+00
   4.0954927E-04   9.2064695E+04   -1.7010486E+00
   4.1144061E-04   9.1346072E+04   -1.7004949E+00
   4.1334068E-04   9.0633289E+04   -1.6999417E+00
   4.1524953E-04   8.9926296E+04   -1.6993890E+00
   4.1716720E-04   8.9225046E+04   -1.6988368E+00
   4.1909372E-04   8.8529489E+04   -1.6982851E+00
   4.2102914E-04   8.7839578E+04   -1.6977340E+00
   4.2297350E-04   8.7155265E+04   -1.6971833E+00
   4.2492683E-04   8.6476501E+04   -1.6966332E+00
   4.2688919E-04   8.5803242E+04   -1.6960837E+00
   4.2886061E-04   8.5135440E+04   -1.6955347E+00
   4.3084113E-04   8.4473048E+04   -1.6949863E+00
   4.3283080E-04   8.3816022E+04   -1.6944384E+00
   4.3482966E-04   8.3164317E+04   -1.6938910E+00
   4.3683775E-04   8.2517886E+04   -1.6933442E+00
   4.3885511E-04   8.1876686E+04   -1.6927980E+00
   4.4088179E-04   8.1240673E+04   -1.6922524E+00
   4.4291783E-04   8.0609803E+04   -1.6917074E+00
   4.4496327E-04   7.9984033E+04   -1.6911629E+00
   4.4701816E-04   7.9363319E+04   -1.6906190E+00
   4.4908253E-04   7.8747620E+04   -1.6900758E+00
   4.5115644E-04   7.8136893E+04   -1.6895331E+00
   4.5323993E-04   7.7531096E+04   -1.6889910E+00
   4.5533304E-04   7.6930188E+04   -1.6884495E+00
   4.5743582E-04   7.6334128E+04   -1.6879087E+00
   4.5954830E-04   7.5742875E+04   -1.6873684E+00
   4.6167054E-04   7.5156388E+04   -1.6868288E+00
   4.6380259E-04   7.4574627E+04   -1.6862898E+00
   4.6594448E-04   7.3997554E+04   -1.6857515E+00
   4.6809626E-04   7.3425128E+04   -1.6852138E+00
   4.7025797E-04   7.2857311E+04   -1.6846767E+00
   4.7242967E-04   7.2294063E+04   -1.6841402E+00
   4.7461140E-04   7.1735347E+04   -1.6836044E+00
   4.7680321E-04   7.1181125E+04   -1.6830693E+00
   4.7900514E-04   7.0631358E+04   -1.6825348E+00
   4.8121723E-04   7.0086011E+04   -1.6820010E+00
   4.8343954E-04   6.9545044E+04   -1.6814679E+00
   4.8567212E-04   6.9008423E+04   -1.6809354E+00
   4.8791500E-04   6.8476111E+04   -1.6804036E+00
   4.9016825E-04   6.7948070E+04   -1.6798725E+00
   4.9243189E-04   6.7424267E+04   -1.6793421E+00
   4.9470600E-04   6.6904665E+04   -1.6788124E+00
   4.9699060E-04   6.6389229E+04   -1.6782833E+00
   4.9928575E-04   6.5877924E+04   -1.6777550E+00
   5.0159151E-04   6.5370717E+04   -1.6772273E+00
   5.0390791E-04   6.4867572E+04   -1.6767004E+00
   5.0623501E-04   6.4368455E+04   -1.6761742E+00
   5.0857286E-04   6.3873334E+04   -1.6756486E+00
   5.1092150E-04   6.3382175E+04   -1.6751238E+00
   5.1328099E-04   6.2894945E+04   -1.6745998E+00
   5.1565137E-04   6.2411611E+04   -1.6740764E+00
   5.1803270E-04   6.1932140E+04   -1.6735538E+00
   5.2042503E-04   6.1456500E+04   -1.6730319E+00
   5.2282841E-04   6.0984661E+04   -1.6725108E+00
   5.2524289E-04   6.0516588E+04   -1.6719904E+00
   5.2766851E-04   6.0052253E+04   -1.6714707E+00
   5.3010534E-04   5.9591622E+04   -1.6709518E+00
   5.3255342E-04   5.9134666E+04   -1.6704337E+00
   5.3501281E-04   5.8681355E+04   -1.6699163E+00
   5.3748356E-04   5.8231656E+04   -1.6693997E+00
   5.3996571E-04   5.7785542E+04   -1.6688838E+00
   5.4245933E-04   5.7342981E+04   -1.6683687E+00
   5.4496446E-04   5.6903945E+04   -1.6678544E+00
   5.4748117E-04   5.6468404E+04   -1.6673409E+00
   5.5000949E-04   5.6036329E+04   -1.6668281E+00
   5.5254949E-04   5.5607691E+04   -1.6663161E+00
   5.5510123E-04   5.5182463E+04   -1.6658049E+00
   5.5766474E-04   5.4760614E+04   -1.6652945E+00
   5.6024010E-04   5.4342119E+04   -1.6647849E+00
   5.6282734E-04   5.3926948E+04   -1.6642761E+00
   5.6542654E-04   5.3515074E+04   -1.6637681E+00
   5.6803774E-04   5.3106470E+04   -1.6632609E+00
   5.7066099E-04   5.2701110E+04   -1.6627546E+00
   5.7329637E-04   5.2298965E+04   -1.6622490E+00
   5.7594391E-04   5.1900009E+04   -1.6617442E+00
   5.7860368E-04   5.1504217E+04   -1.6612403E+00
   5.8127573E-04   5.1111562E+04   -1.6607372E+00
   5.8396012E-04   5.0722017E+04   -1.6602349E+00
   5.8665691E-04   5.0335558E+04   -1.6597334E+00
   5.8936616E-04   4.9952159E+04   -1.6592328E+00
   5.9208791E-04   4.9571794E+04   -1.6587330E+00
   5.9482223E-04   4.9194439E+04   -1.6582340E+00
   5.9756919E-04   4.8820068E+04   -1.6577359E+00
   6.0032882E-04   4.8448658E+04   -1.6572387E+00
   6.0310120E-04   4.8080183E+04   -1.6567422E+00
   6.0588639E-04   4.7714619E+04   -1.6562467E+00
   6.0868443E-04   4.7351943E+04   -1.6557520E+00
   6.1149540E-04   4.6992131E+04   -1.6552581E+00
   6.1431935E-04   4.6635159E+04   -1.6547651E+00
   6.1715634E-04   4.6281004E+04   -1.6542730E+00
   6.2000644E-04   4.5929642E+04   -1.6537817E+00
   6.2286969E-04   4.5581051E+04   -1.6532913E+00
