#        a       HoverH0(a)       dlogHdloga_of_a(a)
   1.0000000E-04   1.0614850E+06   -1.8908910E+00
   1.0046181E-04   1.0522782E+06   -1.8904975E+00
   1.0092575E-04   1.0431532E+06   -1.8901029E+00
   1.0139184E-04   1.0341091E+06   -1.8897073E+00
   1.0186008E-04   1.0251454E+06   -1.8893107E+00
   1.0233048E-04   1.0162612E+06   -1.8889131E+00
   1.0280305E-04   1.0074559E+06   -1.8885145E+00
   1.0327781E-04   9.9872868E+05   -1.8881148E+00
   1.0375475E-04   9.9007890E+05   -1.8877141E+00
   1.0423390E-04   9.8150584E+05   -1.8873124E+00
   1.0471527E-04   9.7300882E+05   -1.8869097E+00
   1.0519885E-04   9.6458716E+05   -1.8865060E+00
   1.0568467E-04   9.5624016E+05   -1.8861012E+00
   1.0617274E-04   9.4796717E+05   -1.8856955E+00
   1.0666305E-04   9.3976751E+05   -1.8852887E+00
   1.0715563E-04   9.3164052E+05   -1.8848809E+00
   1.0765049E-04   9.2358555E+05   -1.8844721E+00
   1.0814763E-04   9.1560196E+05   -1.8840623E+00
   1.0864707E-04   9.0768909E+05   -1.8836514E+00
   1.0914881E-04   8.9984631E+05   -1.8832396E+00
   1.0965287E-04   8.9207299E+05   -1.8828267E+00
   1.1015926E-04   8.8436850E+05   -1.8824128E+00
   1.1066799E-04   8.7673223E+05   -1.8819979E+00
   1.1117906E-04   8.6916356E+05   -1.8815820E+00
   1.1169250E-04   8.6166187E+05   -1.8811651E+00
   1.1220831E-04   8.5422658E+05   -1.8807472E+00
   1.1272650E-04   8.4685708E+05   -1.8803283E+00
   1.1324708E-04   8.3955279E+05   -1.8799083E+00
   1.1377007E-04   8.3231310E+05   -1.8794874E+00
   1.1429547E-04   8.2513745E+05   -1.8790655E+00
   1.1482330E-04   8.1802525E+05   -1.8786425E+00
   1.1535356E-04   8.1097594E+05   -1.8782185E+00
   1.1588628E-04   8.0398895E+05   -1.8777936E+00
   1.1642145E-04   7.9706372E+05   -1.8773676E+00
   1.1695910E-04   7.9019969E+05   -1.8769407E+00
   1.1749923E-04   7.8339631E+05   -1.8765127E+00
   1.1804185E-04   7.7665304E+05   -1.8760837E+00
   1.1858698E-04   7.6996934E+05   -1.8756538E+00
   1.1913463E-04   7.6334467E+05   -1.8752228E+00
   1.1968481E-04   7.5677851E+05   -1.8747909E+00
   1.2023752E-04   7.5027032E+05   -1.8743579E+00
   1.2079279E-04   7.4381958E+05   -1.8739240E+00
   1.2135063E-04   7.3742579E+05   -1.8734890E+00
   1.2191104E-04   7.3108842E+05   -1.8730531E+00
   1.2247403E-04   7.2480697E+05   -1.8726162E+00
   1.2303963E-04   7.1858094E+05   -1.8721783E+00
   1.2360784E-04   7.1240983E+05   -1.8717394E+00
   1.2417868E-04   7.0629315E+05   -1.8712995E+00
   1.2475215E-04   7.0023040E+05   -1.8708587E+00
   1.2532826E-04   6.9422111E+05   -1.8704168E+00
   1.2590704E-04   6.8826479E+05   -1.8699740E+00
   1.2648850E-04   6.8236097E+05   -1.8695302E+00
   1.2707263E-04   6.7650917E+05   -1.8690854E+00
   1.2765947E-04   6.7070894E+05   -1.8686396E+00
   1.2824901E-04   6.6495980E+05   -1.8681929E+00
   1.2884128E-04   6.5926131E+05   -1.8677452E+00
   1.2943628E-04   6.5361299E+05   -1.8672965E+00
   1.3003403E-04   6.4801442E+05   -1.8668468E+00
   1.3063454E-04   6.4246512E+05   -1.8663962E+00
   1.3123783E-04   6.3696468E+05   -1.8659446E+00
   1.3184390E-04   6.3151264E+05   -1.8654920E+00
   1.3245277E-04   6.2610857E+05   -1.8650385E+00
   1.3306445E-04   6.2075205E+05   -1.8645840E+00
   1.3367895E-04   6.1544264E+05   -1.8641286E+00
   1.3429630E-04   6.1017992E+05   -1.8636722E+00
   1.3491649E-04   6.0496349E+05   -1.8632148E+00
   1.3553955E-04   5.9979291E+05   -1.8627565E+00
   1.3616548E-04   5.9466778E+05   -1.8622972E+00
   1.3679431E-04   5.8958770E+05   -1.8618370E+00
   1.3742604E-04   5.8455225E+05   -1.8613758E+00
   1.3806069E-04   5.7956105E+05   -1.8609137E+00
   1.3869827E-04   5.7461368E+05   -1.8604506E+00
   1.3933879E-04   5.6970977E+05   -1.8599866E+00
   1.3998227E-04   5.6484891E+05   -1.8595216E+00
   1.4062872E-04   5.6003073E+05   -1.8590557E+00
   1.4127816E-04   5.5525484E+05   -1.8585889E+00
   1.4193060E-04   5.5052086E+05   -1.8581211E+00
   1.4258605E-04   5.4582843E+05   -1.8576524E+00
   1.4324453E-04   5.4117715E+05   -1.8571828E+00
   1.4390605E-04   5.3656668E+05   -1.8567122E+00
   1.4457062E-04   5.3199664E+05   -1.8562407E+00
   1.4523826E-04   5.2746667E+05   -1.8557683E+00
   1.4590899E-04   5.2297642E+05   -1.8552950E+00
   1.4658281E-04   5.1852552E+05   -1.8548207E+00
   1.4725974E-04   5.1411363E+05   -1.8543456E+00
   1.4793981E-04   5.0974039E+05   -1.8538695E+00
   1.4862301E-04   5.0540546E+05   -1.8533925E+00
   1.4930936E-04   5.0110850E+05   -1.8529146E+00
   1.4999889E-04   4.9684916E+05   -1.8524358E+00
   1.5069160E-04   4.9262712E+05   -1.8519560E+00
   1.5138751E-04   4.8844203E+05   -1.8514754E+00
   1.5208663E-04   4.8429358E+05   -1.8509939E+00
   1.5278899E-04   4.8018142E+05   -1.8505115E+00
   1.5349458E-04   4.7610524E+05   -1.8500282E+00
   1.5420343E-04   4.7206471E+05   -1.8495439E+00
   1.5491556E-04   4.6805952E+05   -1.8490588E+00
   1.5563098E-04   4.6408935E+05   -1.8485729E+00
   1.5634970E-04   4.6015389E+05   -1.8480860E+00
   1.5707174E-04   4.5625282E+05   -1.8475982E+00
   1.5779711E-04   4.5238585E+05   -1.8471096E+00
   1.5852584E-04   4.4855265E+05   -1.8466201E+00
   1.5925792E-04   4.4475295E+05   -1.8461297E+00
   1.5999339E-04   4.4098642E+05   -1.8456385E+00
   1.6073226E-04   4.3725279E+05   -1.8451464E+00
   1.6147454E-04   4.3355175E+05   -1.8446534E+00
   1.6222024E-04   4.2988301E+05   -1.8441596E+00
   1.6296939E-04   4.2624629E+05   -1.8436649E+00
   1.6372200E-04   4.2264130E+05   -1.8431693E+00
   1.6447809E-04   4.1906776E+05   -1.8426729E+00
   1.6523767E-04   4.1552538E+05   -1.8421757E+00
   1.6600075E-04   4.1201389E+05   -1.8416776E+00
   1.6676736E-04   4.0853302E+05   -1.8411786E+00
   1.6753751E-04   4.0508248E+05   -1.8406789E+00
   1.6831122E-04   4.0166202E+05   -1.8401782E+00
   1.6908849E-04   3.9827135E+05   -1.8396768E+00
   1.6986936E-04   3.9491022E+05   -1.8391745E+00
   1.7065384E-04   3.9157837E+05   -1.8386714E+00
   1.7144193E-04   3.8827552E+05   -1.8381675E+00
   1.7223367E-04   3.8500143E+05   -1.8376627E+00
   1.7302906E-04   3.8175583E+05   -1.8371572E+00
   1.7382813E-04   3.7853848E+05   -1.8366508E+00
   1.7463089E-04   3.7534912E+05   -1.8361436E+00
   1.7543735E-04   3.7218751E+05   -1.8356356E+00
   1.7624754E-04   3.6905338E+05   -1.8351268E+00
   1.7706147E-04   3.6594651E+05   -1.8346172E+00
   1.7787916E-04   3.6286665E+05   -1.8341068E+00
   1.7870062E-04   3.5981355E+05   -1.8335957E+00
   1.7952588E-04   3.5678698E+05   -1.8330837E+00
   1.8035495E-04   3.5378671E+05   -1.8325709E+00
   1.8118785E-04   3.5081249E+05   -1.8320574E+00
   1.8202459E-04   3.4786410E+05   -1.8315431E+00
   1.8286520E-04   3.4494131E+05   -1.8310280E+00
   1.8370969E-04   3.4204389E+05   -1.8305121E+00
   1.8455808E-04   3.3917162E+05   -1.8299955E+00
   1.8541039E-04   3.3632426E+05   -1.8294781E+00
   1.8626663E-04   3.3350161E+05   -1.8289600E+00
   1.8712683E-04   3.3070343E+05   -1.8284411E+00
   1.8799100E-04   3.2792952E+05   -1.8279214E+00
   1.8885917E-04   3.2517965E+05   -1.8274010E+00
   1.8973134E-04   3.2245361E+05   -1.8268799E+00
   1.9060754E-04   3.1975120E+05   -1.8263580E+00
   1.9148778E-04   3.1707220E+05   -1.8258354E+00
   1.9237209E-04   3.1441640E+05   -1.8253121E+00
   1.9326049E-04   3.1178360E+05   -1.8247880E+00
   1.9415299E-04   3.0917359E+05   -1.8242632E+00
   1.9504960E-04   3.0658617E+05   -1.8237377E+00
   1.9595036E-04   3.0402114E+05   -1.8232114E+00
   1.9685528E-04   3.0147831E+05   -1.8226845E+00
   1.9776438E-04   2.9895747E+05   -1.8221568E+00
   1.9867768E-04   2.9645842E+05   -1.8216285E+00
   1.9959519E-04   2.9398099E+05   -1.8210994E+00
   2.0051694E-04   2.9152497E+05   -1.8205697E+00
   2.0144295E-04   2.8909017E+05   -1.8200393E+00
   2.0237324E-04   2.8667641E+05   -1.8195081E+00
   2.0330782E-04   2.8428350E+05   -1.8189763E+00
   2.0424671E-04   2.8191125E+05   -1.8184439E+00
   2.0518995E-04   2.7955949E+05   -1.8179107E+00
   2.0613754E-04   2.7722802E+05   -1.8173769E+00
   2.0708950E-04   2.7491668E+05   -1.8168424E+00
   2.0804586E-04   2.7262528E+05   -1.8163073E+00
   2.0900664E-04   2.7035365E+05   -1.8157715E+00
   2.0997185E-04   2.6810160E+05   -1.8152350E+00
   2.1094152E-04   2.6586897E+05   -1.8146979E+00
   2.1191567E-04   2.6365559E+05   -1.8141602E+00
   2.1289432E-04   2.6146128E+05   -1.8136218E+00
   2.1387749E-04   2.5928588E+05   -1.8130828E+00
   2.1486520E-04   2.5712922E+05   -1.8125432E+00
   2.1585747E-04   2.5499113E+05   -1.8120030E+00
   2.1685432E-04   2.5287145E+05   -1.8114621E+00
   2.1785578E-04   2.5077001E+05   -1.8109206E+00
   2.1886186E-04   2.4868666E+05   -1.8103785E+00
   2.1987259E-04   2.4662123E+05   -1.8098358E+00
   2.2088798E-04   2.4457357E+05   -1.8092925E+00
   2.2190807E-04   2.4254352E+05   -1.8087486E+00
   2.2293286E-04   2.4053092E+05   -1.8082042E+00
   2.2396239E-04   2.3853562E+05   -1.8076591E+00
   2.2499667E-04   2.3655746E+05   -1.8071135E+00
   2.2603573E-04   2.3459630E+05   -1.8065672E+00
   2.2707958E-04   2.3265199E+05   -1.8060205E+00
   2.2812826E-04   2.3072437E+05   -1.8054731E+00
   2.2918178E-04   2.2881330E+05   -1.8049252E+00
   2.3024017E-04   2.2691863E+05   -1.8043767E+00
   2.3130344E-04   2.2504022E+05   -1.8038277E+00
   2.3237162E-04   2.2317793E+05   -1.8032781E+00
   2.3344474E-04   2.2133160E+05   -1.8027280E+00
   2.3452281E-04   2.1950111E+05   -1.8021774E+00
   2.3560586E-04   2.1768631E+05   -1.8016262E+00
   2.3669392E-04   2.1588706E+05   -1.8010745E+00
   2.3778699E-04   2.1410323E+05   -1.8005223E+00
   2.3888512E-04   2.1233467E+05   -1.7999696E+00
   2.3998831E-04   2.1058127E+05   -1.7994163E+00
   2.4109661E-04   2.0884287E+05   -1.7988626E+00
   2.4221001E-04   2.0711935E+05   -1.7983083E+00
   2.4332857E-04   2.0541059E+05   -1.7977536E+00
   2.4445228E-04   2.0371644E+05   -1.7971984E+00
   2.4558119E-04   2.0203678E+05   -1.7966427E+00
   2.4671531E-04   2.0037148E+05   -1.7960865E+00
   2.4785467E-04   1.9872042E+05   -1.7955298E+00
   2.4899928E-04   1.9708347E+05   -1.7949727E+00
   2.5014919E-04   1.9546050E+05   -1.7944151E+00
   2.5130440E-04   1.9385140E+05   -1.7938570E+00
   2.5246495E-04   1.9225604E+05   -1.7932985E+00
   2.5363086E-04   1.9067430E+05   -1.7927396E+00
   2.5480216E-04   1.8910606E+05   -1.7921802E+00
   2.5597886E-04   1.8755120E+05   -1.7916204E+00
   2.5716100E-04   1.8600961E+05   -1.7910601E+00
   2.5834859E-04   1.8448117E+05   -1.7904994E+00
   2.5954168E-04   1.8296575E+05   -1.7899383E+00
   2.6074027E-04   1.8146326E+05   -1.7893768E+00
   2.6194439E-04   1.7997356E+05   -1.7888149E+00
   2.6315408E-04   1.7849656E+05   -1.7882526E+00
   2.6436935E-04   1.7703214E+05   -1.7876899E+00
   2.6559024E-04   1.7558019E+05   -1.7871268E+00
   2.6681676E-04   1.7414060E+05   -1.7865633E+00
   2.6804895E-04   1.7271327E+05   -1.7859994E+00
   2.6928683E-04   1.7129807E+05   -1.7854351E+00
   2.7053042E-04   1.6989492E+05   -1.7848705E+00
   2.7177976E-04   1.6850369E+05   -1.7843055E+00
   2.7303487E-04   1.6712430E+05   -1.7837402E+00
   2.7429577E-04   1.6575662E+05   -1.7831745E+00
   2.7556250E-04   1.6440057E+05   -1.7826084E+00
   2.7683507E-04   1.6305604E+05   -1.7820421E+00
   2.7811353E-04   1.6172293E+05   -1.7814753E+00
   2.7939788E-04   1.6040113E+05   -1.7809083E+00
   2.8068817E-04   1.5909055E+05   -1.7803409E+00
   2.8198442E-04   1.5779110E+05   -1.7797732E+00
   2.8328665E-04   1.5650267E+05   -1.7792052E+00
   2.8459490E-04   1.5522516E+05   -1.7786369E+00
   2.8590919E-04   1.5395849E+05   -1.7780683E+00
   2.8722955E-04   1.5270255E+05   -1.7774994E+00
   2.8855600E-04   1.5145725E+05   -1.7769302E+00
   2.8988859E-04   1.5022251E+05   -1.7763608E+00
   2.9122732E-04   1.4899822E+05   -1.7757910E+00
   2.9257224E-04   1.4778430E+05   -1.7752210E+00
   2.9392337E-04   1.4658065E+05   -1.7746507E+00
   2.9528074E-04   1.4538719E+05   -1.7740801E+00
   2.9664438E-04   1.4420382E+05   -1.7735093E+00
   2.9801431E-04   1.4303047E+05   -1.7729383E+00
   2.9939057E-04   1.4186703E+05   -1.7723670E+00
   3.0077319E-04   1.4071343E+05   -1.7717955E+00
   3.0216219E-04   1.3956957E+05   -1.7712237E+00
   3.0355761E-04   1.3843538E+05   -1.7706517E+00
   3.0495947E-04   1.3731077E+05   -1.7700795E+00
   3.0636780E-04   1.3619565E+05   -1.7695071E+00
   3.0778264E-04   1.3508995E+05   -1.7689345E+00
   3.0920401E-04   1.3399357E+05   -1.7683617E+00
   3.1063195E-04   1.3290645E+05   -1.7677887E+00
   3.1206648E-04   1.3182849E+05   -1.7672154E+00
   3.1350764E-04   1.3075962E+05   -1.7666421E+00
   3.1495545E-04   1.2969976E+05   -1.7660685E+00
   3.1640994E-04   1.2864883E+05   -1.7654948E+00
   3.1787116E-04   1.2760675E+05   -1.7649209E+00
   3.1933912E-04   1.2657345E+05   -1.7643468E+00
   3.2081386E-04   1.2554885E+05   -1.7637726E+00
   3.2229541E-04   1.2453287E+05   -1.7631982E+00
   3.2378381E-04   1.2352544E+05   -1.7626237E+00
   3.2527908E-04   1.2252649E+05   -1.7620491E+00
   3.2678125E-04   1.2153593E+05   -1.7614744E+00
   3.2829036E-04   1.2055371E+05   -1.7608995E+00
   3.2980644E-04   1.1957973E+05   -1.7603245E+00
   3.3132952E-04   1.1861394E+05   -1.7597494E+00
   3.3285963E-04   1.1765626E+05   -1.7591742E+00
   3.3439681E-04   1.1670663E+05   -1.7585989E+00
   3.3594109E-04   1.1576496E+05   -1.7580235E+00
   3.3749250E-04   1.1483120E+05   -1.7574480E+00
   3.3905108E-04   1.1390527E+05   -1.7568724E+00
   3.4061685E-04   1.1298711E+05   -1.7562968E+00
   3.4218986E-04   1.1207665E+05   -1.7557210E+00
   3.4377013E-04   1.1117382E+05   -1.7551453E+00
   3.4535769E-04   1.1027855E+05   -1.7545695E+00
   3.4695259E-04   1.0939078E+05   -1.7539936E+00
   3.4855485E-04   1.0851045E+05   -1.7534177E+00
   3.5016452E-04   1.0763749E+05   -1.7528417E+00
   3.5178161E-04   1.0677183E+05   -1.7522657E+00
   3.5340618E-04   1.0591342E+05   -1.7516897E+00
   3.5503824E-04   1.0506218E+05   -1.7511137E+00
   3.5667785E-04   1.0421807E+05   -1.7505376E+00
   3.5832502E-04   1.0338101E+05   -1.7499616E+00
   3.5997981E-04   1.0255095E+05   -1.7493855E+00
   3.6164223E-04   1.0172782E+05   -1.7488095E+00
   3.6331233E-04   1.0091156E+05   -1.7482335E+00
   3.6499015E-04   1.0010212E+05   -1.7476575E+00
   3.6667571E-04   9.9299441E+04   -1.7470815E+00
   3.6836906E-04   9.8503457E+04   -1.7465055E+00
   3.7007022E-04   9.7714112E+04   -1.7459296E+00
   3.7177925E-04   9.6931349E+04   -1.7453537E+00
   3.7349616E-04   9.6155112E+04   -1.7447779E+00
   3.7522101E-04   9.5385345E+04   -1.7442021E+00
   3.7695382E-04   9.4621991E+04   -1.7436264E+00
   3.7869463E-04   9.3864995E+04   -1.7430507E+00
   3.8044348E-04   9.3114302E+04   -1.7424752E+00
   3.8220041E-04   9.2369858E+04   -1.7418997E+00
   3.8396545E-04   9.1631608E+04   -1.7413242E+00
   3.8573864E-04   9.0899500E+04   -1.7407489E+00
   3.8752002E-04   9.0173480E+04   -1.7401737E+00
   3.8930963E-04   8.9453496E+04   -1.7395986E+00
   3.9110750E-04   8.8739495E+04   -1.7390236E+00
   3.9291368E-04   8.8031427E+04   -1.7384487E+00
   3.9472820E-04   8.7329240E+04   -1.7378739E+00
   3.9655109E-04   8.6632883E+04   -1.7372993E+00
   3.9838241E-04   8.5942307E+04   -1.7367247E+00
   4.0022218E-04   8.5257461E+04   -1.7361504E+00
   4.0207045E-04   8.4578296E+04   -1.7355761E+00
   4.0392725E-04   8.3904763E+04   -1.7350021E+00
   4.0579263E-04   8.3236815E+04   -1.7344281E+00
   4.0766662E-04   8.2574401E+04   -1.7338544E+00
   4.0954927E-04   8.1917476E+04   -1.7332808E+00
   4.1144061E-04   8.1265992E+04   -1.7327074E+00
   4.1334068E-04   8.0619902E+04   -1.7321342E+00
   4.1524953E-04   7.9979160E+04   -1.7315611E+00
   4.1716720E-04   7.9343720E+04   -1.7309883E+00
   4.1909372E-04   7.8713536E+04   -1.7304156E+00
   4.2102914E-04   7.8088563E+04   -1.7298432E+00
   4.2297350E-04   7.7468757E+04   -1.7292710E+00
   4.2492683E-04   7.6854073E+04   -1.7286989E+00
   4.2688919E-04   7.6244467E+04   -1.7281272E+00
   4.2886061E-04   7.5639896E+04   -1.7275556E+00
   4.3084113E-04   7.5040316E+04   -1.7269843E+00
   4.3283080E-04   7.4445685E+04   -1.7264132E+00
   4.3482966E-04   7.3855960E+04   -1.7258424E+00
   4.3683775E-04   7.3271099E+04   -1.7252718E+00
   4.3885511E-04   7.2691061E+04   -1.7247015E+00
   4.4088179E-04   7.2115804E+04   -1.7241314E+00
   4.4291783E-04   7.1545287E+04   -1.7235616E+00
   4.4496327E-04   7.0979470E+04   -1.7229921E+00
   4.4701816E-04   7.0418313E+04   -1.7224229E+00
   4.4908253E-04   6.9861775E+04   -1.7218539E+00
   4.5115644E-04   6.9309817E+04   -1.7212853E+00
   4.5323993E-04   6.8762401E+04   -1.7207169E+00
   4.5533304E-04   6.8219486E+04   -1.7201489E+00
   4.5743582E-04   6.7681035E+04   -1.7195812E+00
   4.5954830E-04   6.7147010E+04   -1.7190138E+00
   4.6167054E-04   6.6617372E+04   -1.7184467E+00
   4.6380259E-04   6.6092085E+04   -1.7178799E+00
   4.6594448E-04   6.5571111E+04   -1.7173135E+00
   4.6809626E-04   6.5054413E+04   -1.7167474E+00
   4.7025797E-04   6.4541955E+04   -1.7161817E+00
   4.7242967E-04   6.4033701E+04   -1.7156163E+00
   4.7461140E-04   6.3529614E+04   -1.7150512E+00
   4.7680321E-04   6.3029660E+04   -1.7144866E+00
   4.7900514E-04   6.2533803E+04   -1.7139223E+00
   4.8121723E-04   6.2042008E+04   -1.7133583E+00
   4.8343954E-04   6.1554241E+04   -1.7127948E+00
   4.8567212E-04   6.1070467E+04   -1.7122316E+00
   4.8791500E-04   6.0590652E+04   -1.7116689E+00
   4.9016825E-04   6.0114763E+04   -1.7111065E+00
   4.9243189E-04   5.9642766E+04   -1.7105445E+00
   4.9470600E-04   5.9174628E+04   -1.7099829E+00
   4.9699060E-04   5.8710317E+04   -1.7094218E+00
   4.9928575E-04   5.8249799E+04   -1.7088611E+00
   5.0159151E-04   5.7793043E+04   -1.7083007E+00
   5.0390791E-04   5.7340016E+04   -1.7077409E+00
   5.0623501E-04   5.6890687E+04   -1.7071814E+00
   5.0857286E-04   5.6445024E+04   -1.7066224E+00
   5.1092150E-04   5.6002997E+04   -1.7060638E+00
   5.1328099E-04   5.5564575E+04   -1.7055057E+00
   5.1565137E-04   5.5129726E+04   -1.7049481E+00
   5.1803270E-04   5.4698421E+04   -1.7043909E+00
   5.2042503E-04   5.4270630E+04   -1.7038342E+00
   5.2282841E-04   5.3846322E+04   -1.7032779E+00
   5.2524289E-04   5.3425469E+04   -1.7027221E+00
   5.2766851E-04   5.3008041E+04   -1.7021668E+00
   5.3010534E-04   5.2594008E+04   -1.7016120E+00
   5.3255342E-04   5.2183343E+04   -1.7010577E+00
   5.3501281E-04   5.1776017E+04   -1.7005039E+00
   5.3748356E-04   5.1372000E+04   -1.6999506E+00
   5.3996571E-04   5.0971267E+04   -1.6993978E+00
   5.4245933E-04   5.0573788E+04   -1.6988455E+00
   5.4496446E-04   5.0179537E+04   -1.6982937E+00
   5.4748117E-04   4.9788485E+04   -1.6977425E+00
   5.5000949E-04   4.9400607E+04   -1.6971918E+00
   5.5254949E-04   4.9015874E+04   -1.6966416E+00
   5.5510123E-04   4.8634261E+04   -1.6960919E+00
   5.5766474E-04   4.8255741E+04   -1.6955428E+00
   5.6024010E-04   4.7880288E+04   -1.6949943E+00
   5.6282734E-04   4.7507877E+04   -1.6944463E+00
   5.6542654E-04   4.7138481E+04   -1.6938989E+00
   5.6803774E-04   4.6772075E+04   -1.6933520E+00
   5.7066099E-04   4.6408634E+04   -1.6928057E+00
   5.7329637E-04   4.6048133E+04   -1.6922600E+00
   5.7594391E-04   4.5690547E+04   -1.6917148E+00
   5.7860368E-04   4.5335852E+04   -1.6911703E+00
   5.8127573E-04   4.4984023E+04   -1.6906263E+00
   5.8396012E-04   4.4635036E+04   -1.6900829E+00
   5.8665691E-04   4.4288868E+04   -1.6895401E+00
   5.8936616E-04   4.3945494E+04   -1.6889979E+00
   5.9208791E-04   4.3604891E+04   -1.6884564E+00
   5.9482223E-04   4.3267036E+04   -1.6879154E+00
   5.9756919E-04   4.2931906E+04   -1.6873751E+00
   6.0032882E-04   4.2599477E+04   -1.6868354E+00
   6.0310120E-04   4.2269728E+04   -1.6862963E+00
   6.0588639E-04   4.1942635E+04   -1.6857578E+00
   6.0868443E-04   4.1618176E+04   -1.6852200E+00
   6.1149540E-04   4.1296330E+04   -1.6846828E+00
   6.1431935E-04   4.0977074E+04   -1.6841462E+00
   6.1715634E-04   4.0660386E+04   -1.6836103E+00
   6.2000644E-04   4.0346246E+04   -1.6830751E+00
   6.2286969E-04   4.0034631E+04   -1.6825405E+00
