#        a       HoverH0(a)       dlogHdloga_of_a(a)
   1.0000000E-04   1.0645604E+06   -1.8845930E+00
   1.0046181E-04   1.0553576E+06   -1.8841835E+00
   1.0092575E-04   1.0462364E+06   -1.8837729E+00
   1.0139184E-04   1.0371959E+06   -1.8833614E+00
   1.0186008E-04   1.0282355E+06   -1.8829488E+00
   1.0233048E-04   1.0193545E+06   -1.8825353E+00
   1.0280305E-04   1.0105521E+06   -1.8821207E+00
   1.0327781E-04   1.0018276E+06   -1.8817051E+00
   1.0375475E-04   9.9318032E+05   -1.8812885E+00
   1.0423390E-04   9.8460959E+05   -1.8808708E+00
   1.0471527E-04   9.7611471E+05   -1.8804522E+00
   1.0519885E-04   9.6769499E+05   -1.8800326E+00
   1.0568467E-04   9.5934975E+05   -1.8796119E+00
   1.0617274E-04   9.5107832E+05   -1.8791903E+00
   1.0666305E-04   9.4288004E+05   -1.8787676E+00
   1.0715563E-04   9.3475426E+05   -1.8783440E+00
   1.0765049E-04   9.2670032E+05   -1.8779193E+00
   1.0814763E-04   9.1871757E+05   -1.8774936E+00
   1.0864707E-04   9.1080537E+05   -1.8770670E+00
   1.0914881E-04   9.0296309E+05   -1.8766393E+00
   1.0965287E-04   8.9519010E+05   -1.8762107E+00
   1.1015926E-04   8.8748578E+05   -1.8757810E+00
   1.1066799E-04   8.7984951E+05   -1.8753503E+00
   1.1117906E-04   8.7228067E+05   -1.8749187E+00
   1.1169250E-04   8.6477867E+05   -1.8744860E+00
   1.1220831E-04   8.5734290E+05   -1.8740524E+00
   1.1272650E-04   8.4997276E+05   -1.8736177E+00
   1.1324708E-04   8.4266767E+05   -1.8731821E+00
   1.1377007E-04   8.3542705E+05   -1.8727455E+00
   1.1429547E-04   8.2825031E+05   -1.8723079E+00
   1.1482330E-04   8.2113688E+05   -1.8718693E+00
   1.1535356E-04   8.1408619E+05   -1.8714297E+00
   1.1588628E-04   8.0709767E+05   -1.8709891E+00
   1.1642145E-04   8.0017078E+05   -1.8705476E+00
   1.1695910E-04   7.9330495E+05   -1.8701050E+00
   1.1749923E-04   7.8649963E+05   -1.8696615E+00
   1.1804185E-04   7.7975429E+05   -1.8692170E+00
   1.1858698E-04   7.7306839E+05   -1.8687716E+00
   1.1913463E-04   7.6644139E+05   -1.8683251E+00
   1.1968481E-04   7.5987276E+05   -1.8678777E+00
   1.2023752E-04   7.5336198E+05   -1.8674293E+00
   1.2079279E-04   7.4690854E+05   -1.8669799E+00
   1.2135063E-04   7.4051191E+05   -1.8665296E+00
   1.2191104E-04   7.3417159E+05   -1.8660783E+00
   1.2247403E-04   7.2788706E+05   -1.8656260E+00
   1.2303963E-04   7.2165784E+05   -1.8651728E+00
   1.2360784E-04   7.1548343E+05   -1.8647186E+00
   1.2417868E-04   7.0936333E+05   -1.8642634E+00
   1.2475215E-04   7.0329705E+05   -1.8638073E+00
   1.2532826E-04   6.9728412E+05   -1.8633502E+00
   1.2590704E-04   6.9132405E+05   -1.8628922E+00
   1.2648850E-04   6.8541638E+05   -1.8624332E+00
   1.2707263E-04   6.7956062E+05   -1.8619732E+00
   1.2765947E-04   6.7375633E+05   -1.8615123E+00
   1.2824901E-04   6.6800303E+05   -1.8610505E+00
   1.2884128E-04   6.6230027E+05   -1.8605877E+00
   1.2943628E-04   6.5664760E+05   -1.8601240E+00
   1.3003403E-04   6.5104457E+05   -1.8596593E+00
   1.3063454E-04   6.4549072E+05   -1.8591937E+00
   1.3123783E-04   6.3998563E+05   -1.8587271E+00
   1.3184390E-04   6.3452886E+05   -1.8582596E+00
   1.3245277E-04   6.2911997E+05   -1.8577912E+00
   1.3306445E-04   6.2375853E+05   -1.8573219E+00
   1.3367895E-04   6.1844412E+05   -1.8568516E+00
   1.3429630E-04   6.1317632E+05   -1.8563804E+00
   1.3491649E-04   6.0795471E+05   -1.8559082E+00
   1.3553955E-04   6.0277888E+05   -1.8554352E+00
   1.3616548E-04   5.9764842E+05   -1.8549612E+00
   1.3679431E-04   5.9256292E+05   -1.8544863E+00
   1.3742604E-04   5.8752198E+05   -1.8540105E+00
   1.3806069E-04   5.8252521E+05   -1.8535338E+00
   1.3869827E-04   5.7757220E+05   -1.8530561E+00
   1.3933879E-04   5.7266256E+05   -1.8525776E+00
   1.3998227E-04   5.6779591E+05   -1.8520981E+00
   1.4062872E-04   5.6297187E+05   -1.8516178E+00
   1.4127816E-04   5.5819004E+05   -1.8511365E+00
   1.4193060E-04   5.5345006E+05   -1.8506544E+00
   1.4258605E-04   5.4875156E+05   -1.8501713E+00
   1.4324453E-04   5.4409415E+05   -1.8496874E+00
   1.4390605E-04   5.3947747E+05   -1.8492026E+00
   1.4457062E-04   5.3490117E+05   -1.8487168E+00
   1.4523826E-04   5.3036487E+05   -1.8482302E+00
   1.4590899E-04   5.2586822E+05   -1.8477427E+00
   1.4658281E-04   5.2141087E+05   -1.8472544E+00
   1.4725974E-04   5.1699247E+05   -1.8467651E+00
   1.4793981E-04   5.1261266E+05   -1.8462750E+00
   1.4862301E-04   5.0827111E+05   -1.8457840E+00
   1.4930936E-04   5.0396746E+05   -1.8452922E+00
   1.4999889E-04   4.9970139E+05   -1.8447995E+00
   1.5069160E-04   4.9547256E+05   -1.8443059E+00
   1.5138751E-04   4.9128064E+05   -1.8438115E+00
   1.5208663E-04   4.8712529E+05   -1.8433162E+00
   1.5278899E-04   4.8300619E+05   -1.8428200E+00
   1.5349458E-04   4.7892301E+05   -1.8423230E+00
   1.5420343E-04   4.7487545E+05   -1.8418252E+00
   1.5491556E-04   4.7086317E+05   -1.8413265E+00
   1.5563098E-04   4.6688587E+05   -1.8408270E+00
   1.5634970E-04   4.6294322E+05   -1.8403266E+00
   1.5707174E-04   4.5903494E+05   -1.8398254E+00
   1.5779711E-04   4.5516069E+05   -1.8393234E+00
   1.5852584E-04   4.5132019E+05   -1.8388205E+00
   1.5925792E-04   4.4751314E+05   -1.8383169E+00
   1.5999339E-04   4.4373922E+05   -1.8378124E+00
   1.6073226E-04   4.3999816E+05   -1.8373070E+00
   1.6147454E-04   4.3628965E+05   -1.8368009E+00
   1.6222024E-04   4.3261341E+05   -1.8362940E+00
   1.6296939E-04   4.2896915E+05   -1.8357862E+00
   1.6372200E-04   4.2535659E+05   -1.8352777E+00
   1.6447809E-04   4.2177544E+05   -1.8347683E+00
   1.6523767E-04   4.1822542E+05   -1.8342582E+00
   1.6600075E-04   4.1470625E+05   -1.8337472E+00
   1.6676736E-04   4.1121767E+05   -1.8332355E+00
   1.6753751E-04   4.0775939E+05   -1.8327230E+00
   1.6831122E-04   4.0433116E+05   -1.8322097E+00
   1.6908849E-04   4.0093269E+05   -1.8316956E+00
   1.6986936E-04   3.9756373E+05   -1.8311807E+00
   1.7065384E-04   3.9422402E+05   -1.8306651E+00
   1.7144193E-04   3.9091329E+05   -1.8301487E+00
   1.7223367E-04   3.8763129E+05   -1.8296316E+00
   1.7302906E-04   3.8437776E+05   -1.8291137E+00
   1.7382813E-04   3.8115245E+05   -1.8285950E+00
   1.7463089E-04   3.7795510E+05   -1.8280756E+00
   1.7543735E-04   3.7478548E+05   -1.8275554E+00
   1.7624754E-04   3.7164332E+05   -1.8270345E+00
   1.7706147E-04   3.6852840E+05   -1.8265128E+00
   1.7787916E-04   3.6544046E+05   -1.8259904E+00
   1.7870062E-04   3.6237927E+05   -1.8254673E+00
   1.7952588E-04   3.5934459E+05   -1.8249434E+00
   1.8035495E-04   3.5633618E+05   -1.8244189E+00
   1.8118785E-04   3.5335381E+05   -1.8238936E+00
   1.8202459E-04   3.5039725E+05   -1.8233676E+00
   1.8286520E-04   3.4746628E+05   -1.8228408E+00
   1.8370969E-04   3.4456065E+05   -1.8223134E+00
   1.8455808E-04   3.4168016E+05   -1.8217853E+00
   1.8541039E-04   3.3882457E+05   -1.8212564E+00
   1.8626663E-04   3.3599367E+05   -1.8207269E+00
   1.8712683E-04   3.3318723E+05   -1.8201967E+00
   1.8799100E-04   3.3040504E+05   -1.8196658E+00
   1.8885917E-04   3.2764689E+05   -1.8191342E+00
   1.8973134E-04   3.2491255E+05   -1.8186019E+00
   1.9060754E-04   3.2220183E+05   -1.8180689E+00
   1.9148778E-04   3.1951450E+05   -1.8175353E+00
   1.9237209E-04   3.1685037E+05   -1.8170011E+00
   1.9326049E-04   3.1420923E+05   -1.8164661E+00
   1.9415299E-04   3.1159087E+05   -1.8159305E+00
   1.9504960E-04   3.0899509E+05   -1.8153943E+00
   1.9595036E-04   3.0642170E+05   -1.8148574E+00
   1.9685528E-04   3.0387049E+05   -1.8143198E+00
   1.9776438E-04   3.0134126E+05   -1.8137817E+00
   1.9867768E-04   2.9883383E+05   -1.8132429E+00
   1.9959519E-04   2.9634800E+05   -1.8127034E+00
   2.0051694E-04   2.9388358E+05   -1.8121634E+00
   2.0144295E-04   2.9144038E+05   -1.8116227E+00
   2.0237324E-04   2.8901821E+05   -1.8110814E+00
   2.0330782E-04   2.8661689E+05   -1.8105395E+00
   2.0424671E-04   2.8423623E+05   -1.8099970E+00
   2.0518995E-04   2.8187604E+05   -1.8094539E+00
   2.0613754E-04   2.7953616E+05   -1.8089102E+00
   2.0708950E-04   2.7721639E+05   -1.8083659E+00
   2.0804586E-04   2.7491657E+05   -1.8078210E+00
   2.0900664E-04   2.7263651E+05   -1.8072755E+00
   2.0997185E-04   2.7037603E+05   -1.8067295E+00
   2.1094152E-04   2.6813498E+05   -1.8061829E+00
   2.1191567E-04   2.6591317E+05   -1.8056357E+00
   2.1289432E-04   2.6371044E+05   -1.8050880E+00
   2.1387749E-04   2.6152661E+05   -1.8045397E+00
   2.1486520E-04   2.5936152E+05   -1.8039908E+00
   2.1585747E-04   2.5721501E+05   -1.8034414E+00
   2.1685432E-04   2.5508691E+05   -1.8028915E+00
   2.1785578E-04   2.5297706E+05   -1.8023410E+00
   2.1886186E-04   2.5088529E+05   -1.8017900E+00
   2.1987259E-04   2.4881146E+05   -1.8012385E+00
   2.2088798E-04   2.4675539E+05   -1.8006864E+00
   2.2190807E-04   2.4471694E+05   -1.8001338E+00
   2.2293286E-04   2.4269594E+05   -1.7995808E+00
   2.2396239E-04   2.4069225E+05   -1.7990272E+00
   2.2499667E-04   2.3870571E+05   -1.7984731E+00
   2.2603573E-04   2.3673617E+05   -1.7979185E+00
   2.2707958E-04   2.3478348E+05   -1.7973634E+00
   2.2812826E-04   2.3284749E+05   -1.7968079E+00
   2.2918178E-04   2.3092806E+05   -1.7962518E+00
   2.3024017E-04   2.2902504E+05   -1.7956953E+00
   2.3130344E-04   2.2713828E+05   -1.7951383E+00
   2.3237162E-04   2.2526764E+05   -1.7945809E+00
   2.3344474E-04   2.2341299E+05   -1.7940230E+00
   2.3452281E-04   2.2157417E+05   -1.7934646E+00
   2.3560586E-04   2.1975106E+05   -1.7929058E+00
   2.3669392E-04   2.1794350E+05   -1.7923466E+00
   2.3778699E-04   2.1615137E+05   -1.7917869E+00
   2.3888512E-04   2.1437453E+05   -1.7912268E+00
   2.3998831E-04   2.1261285E+05   -1.7906662E+00
   2.4109661E-04   2.1086619E+05   -1.7901053E+00
   2.4221001E-04   2.0913441E+05   -1.7895439E+00
   2.4332857E-04   2.0741740E+05   -1.7889821E+00
   2.4445228E-04   2.0571502E+05   -1.7884199E+00
   2.4558119E-04   2.0402713E+05   -1.7878573E+00
   2.4671531E-04   2.0235363E+05   -1.7872943E+00
   2.4785467E-04   2.0069436E+05   -1.7867309E+00
   2.4899928E-04   1.9904923E+05   -1.7861672E+00
   2.5014919E-04   1.9741809E+05   -1.7856031E+00
   2.5130440E-04   1.9580082E+05   -1.7850386E+00
   2.5246495E-04   1.9419731E+05   -1.7844737E+00
   2.5363086E-04   1.9260743E+05   -1.7839085E+00
   2.5480216E-04   1.9103107E+05   -1.7833429E+00
   2.5597886E-04   1.8946810E+05   -1.7827769E+00
   2.5716100E-04   1.8791841E+05   -1.7822107E+00
   2.5834859E-04   1.8638188E+05   -1.7816441E+00
   2.5954168E-04   1.8485840E+05   -1.7810771E+00
   2.6074027E-04   1.8334785E+05   -1.7805099E+00
   2.6194439E-04   1.8185012E+05   -1.7799423E+00
   2.6315408E-04   1.8036509E+05   -1.7793744E+00
   2.6436935E-04   1.7889266E+05   -1.7788062E+00
   2.6559024E-04   1.7743272E+05   -1.7782377E+00
   2.6681676E-04   1.7598515E+05   -1.7776689E+00
   2.6804895E-04   1.7454985E+05   -1.7770998E+00
   2.6928683E-04   1.7312671E+05   -1.7765304E+00
   2.7053042E-04   1.7171562E+05   -1.7759607E+00
   2.7177976E-04   1.7031648E+05   -1.7753908E+00
   2.7303487E-04   1.6892918E+05   -1.7748206E+00
   2.7429577E-04   1.6755363E+05   -1.7742501E+00
   2.7556250E-04   1.6618971E+05   -1.7736794E+00
   2.7683507E-04   1.6483733E+05   -1.7731085E+00
   2.7811353E-04   1.6349638E+05   -1.7725372E+00
   2.7939788E-04   1.6216677E+05   -1.7719658E+00
   2.8068817E-04   1.6084840E+05   -1.7713941E+00
   2.8198442E-04   1.5954116E+05   -1.7708222E+00
   2.8328665E-04   1.5824497E+05   -1.7702501E+00
   2.8459490E-04   1.5695972E+05   -1.7696778E+00
   2.8590919E-04   1.5568532E+05   -1.7691052E+00
   2.8722955E-04   1.5442167E+05   -1.7685325E+00
   2.8855600E-04   1.5316869E+05   -1.7679595E+00
   2.8988859E-04   1.5192627E+05   -1.7673864E+00
   2.9122732E-04   1.5069433E+05   -1.7668131E+00
   2.9257224E-04   1.4947277E+05   -1.7662396E+00
   2.9392337E-04   1.4826151E+05   -1.7656659E+00
   2.9528074E-04   1.4706045E+05   -1.7650920E+00
   2.9664438E-04   1.4586951E+05   -1.7645180E+00
   2.9801431E-04   1.4468859E+05   -1.7639439E+00
   2.9939057E-04   1.4351762E+05   -1.7633696E+00
   3.0077319E-04   1.4235649E+05   -1.7627952E+00
   3.0216219E-04   1.4120514E+05   -1.7622206E+00
   3.0355761E-04   1.4006347E+05   -1.7616459E+00
   3.0495947E-04   1.3893140E+05   -1.7610710E+00
   3.0636780E-04   1.3780884E+05   -1.7604961E+00
   3.0778264E-04   1.3669571E+05   -1.7599210E+00
   3.0920401E-04   1.3559194E+05   -1.7593459E+00
   3.1063195E-04   1.3449743E+05   -1.7587706E+00
   3.1206648E-04   1.3341211E+05   -1.7581952E+00
   3.1350764E-04   1.3233590E+05   -1.7576198E+00
   3.1495545E-04   1.3126872E+05   -1.7570443E+00
   3.1640994E-04   1.3021050E+05   -1.7564686E+00
   3.1787116E-04   1.2916114E+05   -1.7558930E+00
   3.1933912E-04   1.2812058E+05   -1.7553172E+00
   3.2081386E-04   1.2708875E+05   -1.7547414E+00
   3.2229541E-04   1.2606555E+05   -1.7541656E+00
   3.2378381E-04   1.2505093E+05   -1.7535897E+00
   3.2527908E-04   1.2404480E+05   -1.7530138E+00
   3.2678125E-04   1.2304709E+05   -1.7524378E+00
   3.2829036E-04   1.2205774E+05   -1.7518618E+00
   3.2980644E-04   1.2107665E+05   -1.7512858E+00
   3.3132952E-04   1.2010378E+05   -1.7507098E+00
   3.3285963E-04   1.1913903E+05   -1.7501338E+00
   3.3439681E-04   1.1818235E+05   -1.7495577E+00
   3.3594109E-04   1.1723366E+05   -1.7489817E+00
   3.3749250E-04   1.1629290E+05   -1.7484057E+00
   3.3905108E-04   1.1535999E+05   -1.7478297E+00
   3.4061685E-04   1.1443487E+05   -1.7472537E+00
   3.4218986E-04   1.1351747E+05   -1.7466777E+00
   3.4377013E-04   1.1260772E+05   -1.7461018E+00
   3.4535769E-04   1.1170556E+05   -1.7455260E+00
   3.4695259E-04   1.1081092E+05   -1.7449501E+00
   3.4855485E-04   1.0992374E+05   -1.7443743E+00
   3.5016452E-04   1.0904395E+05   -1.7437986E+00
   3.5178161E-04   1.0817149E+05   -1.7432230E+00
   3.5340618E-04   1.0730630E+05   -1.7426474E+00
   3.5503824E-04   1.0644830E+05   -1.7420719E+00
   3.5667785E-04   1.0559745E+05   -1.7414965E+00
   3.5832502E-04   1.0475368E+05   -1.7409211E+00
   3.5997981E-04   1.0391692E+05   -1.7403459E+00
   3.6164223E-04   1.0308712E+05   -1.7397708E+00
   3.6331233E-04   1.0226422E+05   -1.7391957E+00
   3.6499015E-04   1.0144815E+05   -1.7386208E+00
   3.6667571E-04   1.0063887E+05   -1.7380460E+00
   3.6836906E-04   9.9836302E+04   -1.7374714E+00
   3.7007022E-04   9.9040399E+04   -1.7368968E+00
   3.7177925E-04   9.8251100E+04   -1.7363224E+00
   3.7349616E-04   9.7468350E+04   -1.7357482E+00
   3.7522101E-04   9.6692092E+04   -1.7351741E+00
   3.7695382E-04   9.5922270E+04   -1.7346001E+00
   3.7869463E-04   9.5158828E+04   -1.7340263E+00
   3.8044348E-04   9.4401712E+04   -1.7334527E+00
   3.8220041E-04   9.3650868E+04   -1.7328793E+00
   3.8396545E-04   9.2906241E+04   -1.7323060E+00
   3.8573864E-04   9.2167778E+04   -1.7317329E+00
   3.8752002E-04   9.1435426E+04   -1.7311600E+00
   3.8930963E-04   9.0709132E+04   -1.7305873E+00
   3.9110750E-04   8.9988845E+04   -1.7300149E+00
   3.9291368E-04   8.9274513E+04   -1.7294426E+00
   3.9472820E-04   8.8566085E+04   -1.7288705E+00
   3.9655109E-04   8.7863510E+04   -1.7282987E+00
   3.9838241E-04   8.7166738E+04   -1.7277271E+00
   4.0022218E-04   8.6475719E+04   -1.7271557E+00
   4.0207045E-04   8.5790404E+04   -1.7265846E+00
   4.0392725E-04   8.5110745E+04   -1.7260137E+00
   4.0579263E-04   8.4436691E+04   -1.7254431E+00
   4.0766662E-04   8.3768197E+04   -1.7248727E+00
   4.0954927E-04   8.3105213E+04   -1.7243026E+00
   4.1144061E-04   8.2447693E+04   -1.7237327E+00
   4.1334068E-04   8.1795589E+04   -1.7231631E+00
   4.1524953E-04   8.1148857E+04   -1.7225938E+00
   4.1716720E-04   8.0507448E+04   -1.7220248E+00
   4.1909372E-04   7.9871319E+04   -1.7214561E+00
   4.2102914E-04   7.9240424E+04   -1.7208877E+00
   4.2297350E-04   7.8614718E+04   -1.7203196E+00
   4.2492683E-04   7.7994157E+04   -1.7197518E+00
   4.2688919E-04   7.7378697E+04   -1.7191843E+00
   4.2886061E-04   7.6768295E+04   -1.7186171E+00
   4.3084113E-04   7.6162906E+04   -1.7180503E+00
   4.3283080E-04   7.5562489E+04   -1.7174838E+00
   4.3482966E-04   7.4967001E+04   -1.7169176E+00
   4.3683775E-04   7.4376399E+04   -1.7163518E+00
   4.3885511E-04   7.3790643E+04   -1.7157863E+00
   4.4088179E-04   7.3209691E+04   -1.7152212E+00
   4.4291783E-04   7.2633501E+04   -1.7146565E+00
   4.4496327E-04   7.2062034E+04   -1.7140921E+00
   4.4701816E-04   7.1495248E+04   -1.7135281E+00
   4.4908253E-04   7.0933105E+04   -1.7129644E+00
   4.5115644E-04   7.0375565E+04   -1.7124012E+00
   4.5323993E-04   6.9822588E+04   -1.7118383E+00
   4.5533304E-04   6.9274135E+04   -1.7112758E+00
   4.5743582E-04   6.8730169E+04   -1.7107138E+00
   4.5954830E-04   6.8190651E+04   -1.7101521E+00
   4.6167054E-04   6.7655543E+04   -1.7095908E+00
   4.6380259E-04   6.7124807E+04   -1.7090300E+00
   4.6594448E-04   6.6598407E+04   -1.7084696E+00
   4.6809626E-04   6.6076306E+04   -1.7079096E+00
   4.7025797E-04   6.5558467E+04   -1.7073500E+00
   4.7242967E-04   6.5044853E+04   -1.7067909E+00
   4.7461140E-04   6.4535430E+04   -1.7062323E+00
   4.7680321E-04   6.4030161E+04   -1.7056740E+00
   4.7900514E-04   6.3529011E+04   -1.7051163E+00
   4.8121723E-04   6.3031946E+04   -1.7045590E+00
   4.8343954E-04   6.2538931E+04   -1.7040021E+00
   4.8567212E-04   6.2049930E+04   -1.7034457E+00
   4.8791500E-04   6.1564912E+04   -1.7028899E+00
   4.9016825E-04   6.1083840E+04   -1.7023344E+00
   4.9243189E-04   6.0606683E+04   -1.7017795E+00
   4.9470600E-04   6.0133407E+04   -1.7012251E+00
   4.9699060E-04   5.9663979E+04   -1.7006711E+00
   4.9928575E-04   5.9198366E+04   -1.7001177E+00
   5.0159151E-04   5.8736537E+04   -1.6995648E+00
   5.0390791E-04   5.8278459E+04   -1.6990124E+00
   5.0623501E-04   5.7824101E+04   -1.6984605E+00
   5.0857286E-04   5.7373431E+04   -1.6979091E+00
   5.1092150E-04   5.6926417E+04   -1.6973582E+00
   5.1328099E-04   5.6483030E+04   -1.6968079E+00
   5.1565137E-04   5.6043239E+04   -1.6962581E+00
   5.1803270E-04   5.5607013E+04   -1.6957089E+00
   5.2042503E-04   5.5174321E+04   -1.6951602E+00
   5.2282841E-04   5.4745135E+04   -1.6946121E+00
   5.2524289E-04   5.4319424E+04   -1.6940645E+00
   5.2766851E-04   5.3897160E+04   -1.6935175E+00
   5.3010534E-04   5.3478313E+04   -1.6929711E+00
   5.3255342E-04   5.3062855E+04   -1.6924252E+00
   5.3501281E-04   5.2650756E+04   -1.6918799E+00
   5.3748356E-04   5.2241989E+04   -1.6913352E+00
   5.3996571E-04   5.1836526E+04   -1.6907911E+00
   5.4245933E-04   5.1434338E+04   -1.6902475E+00
   5.4496446E-04   5.1035399E+04   -1.6897046E+00
   5.4748117E-04   5.0639681E+04   -1.6891623E+00
   5.5000949E-04   5.0247156E+04   -1.6886205E+00
   5.5254949E-04   4.9857798E+04   -1.6880794E+00
   5.5510123E-04   4.9471581E+04   -1.6875389E+00
   5.5766474E-04   4.9088478E+04   -1.6869991E+00
   5.6024010E-04   4.8708462E+04   -1.6864598E+00
   5.6282734E-04   4.8331508E+04   -1.6859212E+00
   5.6542654E-04   4.7957591E+04   -1.6853832E+00
   5.6803774E-04   4.7586684E+04   -1.6848458E+00
   5.7066099E-04   4.7218763E+04   -1.6843091E+00
   5.7329637E-04   4.6853802E+04   -1.6837731E+00
   5.7594391E-04   4.6491776E+04   -1.6832377E+00
   5.7860368E-04   4.6132662E+04   -1.6827029E+00
   5.8127573E-04   4.5776434E+04   -1.6821688E+00
   5.8396012E-04   4.5423069E+04   -1.6816354E+00
   5.8665691E-04   4.5072542E+04   -1.6811027E+00
   5.8936616E-04   4.4724830E+04   -1.6805706E+00
   5.9208791E-04   4.4379909E+04   -1.6800392E+00
   5.9482223E-04   4.4037756E+04   -1.6795085E+00
   5.9756919E-04   4.3698348E+04   -1.6789785E+00
   6.0032882E-04   4.3361661E+04   -1.6784491E+00
   6.0310120E-04   4.3027673E+04   -1.6779205E+00
   6.0588639E-04   4.2696362E+04   -1.6773925E+00
   6.0868443E-04   4.2367704E+04   -1.6768653E+00
   6.1149540E-04   4.2041679E+04   -1.6763388E+00
   6.1431935E-04   4.1718263E+04   -1.6758130E+00
   6.1715634E-04   4.1397436E+04   -1.6752879E+00
   6.2000644E-04   4.1079176E+04   -1.6747635E+00
   6.2286969E-04   4.0763460E+04   -1.6742399E+00
