#        a       HoverH0(a)       dlogHdloga_of_a(a)
   1.0000000E-04   1.1616001E+06   -1.9040489E+00
   1.0046181E-04   1.1514551E+06   -1.9036911E+00
   1.0092575E-04   1.1414006E+06   -1.9033323E+00
   1.0139184E-04   1.1314357E+06   -1.9029725E+00
   1.0186008E-04   1.1215597E+06   -1.9026117E+00
   1.0233048E-04   1.1117717E+06   -1.9022499E+00
   1.0280305E-04   1.1020710E+06   -1.9018870E+00
   1.0327781E-04   1.0924568E+06   -1.9015231E+00
   1.0375475E-04   1.0829283E+06   -1.9011582E+00
   1.0423390E-04   1.0734846E+06   -1.9007923E+00
   1.0471527E-04   1.0641252E+06   -1.9004254E+00
   1.0519885E-04   1.0548491E+06   -1.9000575E+00
   1.0568467E-04   1.0456556E+06   -1.8996885E+00
   1.0617274E-04   1.0365441E+06   -1.8993185E+00
   1.0666305E-04   1.0275137E+06   -1.8989475E+00
   1.0715563E-04   1.0185637E+06   -1.8985755E+00
   1.0765049E-04   1.0096934E+06   -1.8982024E+00
   1.0814763E-04   1.0009020E+06   -1.8978284E+00
   1.0864707E-04   9.9218897E+05   -1.8974533E+00
   1.0914881E-04   9.8355345E+05   -1.8970772E+00
   1.0965287E-04   9.7499478E+05   -1.8967001E+00
   1.1015926E-04   9.6651227E+05   -1.8963219E+00
   1.1066799E-04   9.5810523E+05   -1.8959427E+00
   1.1117906E-04   9.4977298E+05   -1.8955626E+00
   1.1169250E-04   9.4151484E+05   -1.8951813E+00
   1.1220831E-04   9.3333014E+05   -1.8947991E+00
   1.1272650E-04   9.2521823E+05   -1.8944159E+00
   1.1324708E-04   9.1717844E+05   -1.8940316E+00
   1.1377007E-04   9.0921013E+05   -1.8936463E+00
   1.1429547E-04   9.0131265E+05   -1.8932600E+00
   1.1482330E-04   8.9348535E+05   -1.8928726E+00
   1.1535356E-04   8.8572762E+05   -1.8924843E+00
   1.1588628E-04   8.7803882E+05   -1.8920949E+00
   1.1642145E-04   8.7041832E+05   -1.8917045E+00
   1.1695910E-04   8.6286552E+05   -1.8913130E+00
   1.1749923E-04   8.5537979E+05   -1.8909206E+00
   1.1804185E-04   8.4796055E+05   -1.8905271E+00
   1.1858698E-04   8.4060718E+05   -1.8901326E+00
   1.1913463E-04   8.3331910E+05   -1.8897371E+00
   1.1968481E-04   8.2609571E+05   -1.8893406E+00
   1.2023752E-04   8.1893643E+05   -1.8889430E+00
   1.2079279E-04   8.1184069E+05   -1.8885445E+00
   1.2135063E-04   8.0480791E+05   -1.8881449E+00
   1.2191104E-04   7.9783753E+05   -1.8877443E+00
   1.2247403E-04   7.9092897E+05   -1.8873427E+00
   1.2303963E-04   7.8408169E+05   -1.8869400E+00
   1.2360784E-04   7.7729513E+05   -1.8865364E+00
   1.2417868E-04   7.7056875E+05   -1.8861317E+00
   1.2475215E-04   7.6390200E+05   -1.8857260E+00
   1.2532826E-04   7.5729435E+05   -1.8853193E+00
   1.2590704E-04   7.5074526E+05   -1.8849115E+00
   1.2648850E-04   7.4425421E+05   -1.8845028E+00
   1.2707263E-04   7.3782067E+05   -1.8840931E+00
   1.2765947E-04   7.3144413E+05   -1.8836823E+00
   1.2824901E-04   7.2512407E+05   -1.8832705E+00
   1.2884128E-04   7.1885998E+05   -1.8828577E+00
   1.2943628E-04   7.1265137E+05   -1.8824439E+00
   1.3003403E-04   7.0649772E+05   -1.8820291E+00
   1.3063454E-04   7.0039856E+05   -1.8816132E+00
   1.3123783E-04   6.9435337E+05   -1.8811964E+00
   1.3184390E-04   6.8836169E+05   -1.8807786E+00
   1.3245277E-04   6.8242303E+05   -1.8803597E+00
   1.3306445E-04   6.7653691E+05   -1.8799398E+00
   1.3367895E-04   6.7070285E+05   -1.8795190E+00
   1.3429630E-04   6.6492040E+05   -1.8790971E+00
   1.3491649E-04   6.5918908E+05   -1.8786742E+00
   1.3553955E-04   6.5350844E+05   -1.8782503E+00
   1.3616548E-04   6.4787802E+05   -1.8778254E+00
   1.3679431E-04   6.4229737E+05   -1.8773995E+00
   1.3742604E-04   6.3676604E+05   -1.8769726E+00
   1.3806069E-04   6.3128359E+05   -1.8765447E+00
   1.3869827E-04   6.2584957E+05   -1.8761158E+00
   1.3933879E-04   6.2046356E+05   -1.8756859E+00
   1.3998227E-04   6.1512512E+05   -1.8752550E+00
   1.4062872E-04   6.0983383E+05   -1.8748232E+00
   1.4127816E-04   6.0458925E+05   -1.8743903E+00
   1.4193060E-04   5.9939097E+05   -1.8739564E+00
   1.4258605E-04   5.9423858E+05   -1.8735215E+00
   1.4324453E-04   5.8913166E+05   -1.8730857E+00
   1.4390605E-04   5.8406980E+05   -1.8726488E+00
   1.4457062E-04   5.7905261E+05   -1.8722110E+00
   1.4523826E-04   5.7407967E+05   -1.8717722E+00
   1.4590899E-04   5.6915059E+05   -1.8713323E+00
   1.4658281E-04   5.6426497E+05   -1.8708915E+00
   1.4725974E-04   5.5942244E+05   -1.8704498E+00
   1.4793981E-04   5.5462259E+05   -1.8700070E+00
   1.4862301E-04   5.4986504E+05   -1.8695633E+00
   1.4930936E-04   5.4514943E+05   -1.8691185E+00
   1.4999889E-04   5.4047536E+05   -1.8686728E+00
   1.5069160E-04   5.3584247E+05   -1.8682262E+00
   1.5138751E-04   5.3125038E+05   -1.8677785E+00
   1.5208663E-04   5.2669874E+05   -1.8673299E+00
   1.5278899E-04   5.2218717E+05   -1.8668803E+00
   1.5349458E-04   5.1771533E+05   -1.8664297E+00
   1.5420343E-04   5.1328284E+05   -1.8659782E+00
   1.5491556E-04   5.0888937E+05   -1.8655257E+00
   1.5563098E-04   5.0453455E+05   -1.8650722E+00
   1.5634970E-04   5.0021805E+05   -1.8646178E+00
   1.5707174E-04   4.9593951E+05   -1.8641624E+00
   1.5779711E-04   4.9169861E+05   -1.8637061E+00
   1.5852584E-04   4.8749499E+05   -1.8632488E+00
   1.5925792E-04   4.8332833E+05   -1.8627905E+00
   1.5999339E-04   4.7919830E+05   -1.8623313E+00
   1.6073226E-04   4.7510456E+05   -1.8618711E+00
   1.6147454E-04   4.7104680E+05   -1.8614100E+00
   1.6222024E-04   4.6702469E+05   -1.8609480E+00
   1.6296939E-04   4.6303790E+05   -1.8604849E+00
   1.6372200E-04   4.5908614E+05   -1.8600210E+00
   1.6447809E-04   4.5516907E+05   -1.8595561E+00
   1.6523767E-04   4.5128639E+05   -1.8590903E+00
   1.6600075E-04   4.4743779E+05   -1.8586235E+00
   1.6676736E-04   4.4362297E+05   -1.8581558E+00
   1.6753751E-04   4.3984162E+05   -1.8576871E+00
   1.6831122E-04   4.3609344E+05   -1.8572176E+00
   1.6908849E-04   4.3237814E+05   -1.8567471E+00
   1.6986936E-04   4.2869543E+05   -1.8562756E+00
   1.7065384E-04   4.2504500E+05   -1.8558033E+00
   1.7144193E-04   4.2142658E+05   -1.8553300E+00
   1.7223367E-04   4.1783988E+05   -1.8548558E+00
   1.7302906E-04   4.1428460E+05   -1.8543807E+00
   1.7382813E-04   4.1076048E+05   -1.8539046E+00
   1.7463089E-04   4.0726723E+05   -1.8534277E+00
   1.7543735E-04   4.0380457E+05   -1.8529499E+00
   1.7624754E-04   4.0037224E+05   -1.8524711E+00
   1.7706147E-04   3.9696996E+05   -1.8519914E+00
   1.7787916E-04   3.9359746E+05   -1.8515109E+00
   1.7870062E-04   3.9025448E+05   -1.8510294E+00
   1.7952588E-04   3.8694075E+05   -1.8505470E+00
   1.8035495E-04   3.8365601E+05   -1.8500638E+00
   1.8118785E-04   3.8040000E+05   -1.8495796E+00
   1.8202459E-04   3.7717247E+05   -1.8490946E+00
   1.8286520E-04   3.7397316E+05   -1.8486086E+00
   1.8370969E-04   3.7080182E+05   -1.8481218E+00
   1.8455808E-04   3.6765819E+05   -1.8476341E+00
   1.8541039E-04   3.6454204E+05   -1.8471455E+00
   1.8626663E-04   3.6145312E+05   -1.8466561E+00
   1.8712683E-04   3.5839117E+05   -1.8461658E+00
   1.8799100E-04   3.5535597E+05   -1.8456746E+00
   1.8885917E-04   3.5234727E+05   -1.8451825E+00
   1.8973134E-04   3.4936484E+05   -1.8446896E+00
   1.9060754E-04   3.4640844E+05   -1.8441958E+00
   1.9148778E-04   3.4347784E+05   -1.8437012E+00
   1.9237209E-04   3.4057281E+05   -1.8432057E+00
   1.9326049E-04   3.3769312E+05   -1.8427093E+00
   1.9415299E-04   3.3483854E+05   -1.8422121E+00
   1.9504960E-04   3.3200886E+05   -1.8417141E+00
   1.9595036E-04   3.2920385E+05   -1.8412152E+00
   1.9685528E-04   3.2642329E+05   -1.8407154E+00
   1.9776438E-04   3.2366695E+05   -1.8402149E+00
   1.9867768E-04   3.2093464E+05   -1.8397135E+00
   1.9959519E-04   3.1822612E+05   -1.8392112E+00
   2.0051694E-04   3.1554120E+05   -1.8387082E+00
   2.0144295E-04   3.1287965E+05   -1.8382043E+00
   2.0237324E-04   3.1024127E+05   -1.8376996E+00
   2.0330782E-04   3.0762586E+05   -1.8371941E+00
   2.0424671E-04   3.0503321E+05   -1.8366877E+00
   2.0518995E-04   3.0246311E+05   -1.8361806E+00
   2.0613754E-04   2.9991537E+05   -1.8356727E+00
   2.0708950E-04   2.9738979E+05   -1.8351639E+00
   2.0804586E-04   2.9488616E+05   -1.8346544E+00
   2.0900664E-04   2.9240431E+05   -1.8341440E+00
   2.0997185E-04   2.8994402E+05   -1.8336329E+00
   2.1094152E-04   2.8750511E+05   -1.8331209E+00
   2.1191567E-04   2.8508739E+05   -1.8326082E+00
   2.1289432E-04   2.8269066E+05   -1.8320947E+00
   2.1387749E-04   2.8031475E+05   -1.8315805E+00
   2.1486520E-04   2.7795947E+05   -1.8310654E+00
   2.1585747E-04   2.7562463E+05   -1.8305496E+00
   2.1685432E-04   2.7331006E+05   -1.8300330E+00
   2.1785578E-04   2.7101557E+05   -1.8295157E+00
   2.1886186E-04   2.6874098E+05   -1.8289976E+00
   2.1987259E-04   2.6648612E+05   -1.8284787E+00
   2.2088798E-04   2.6425081E+05   -1.8279591E+00
   2.2190807E-04   2.6203487E+05   -1.8274387E+00
   2.2293286E-04   2.5983815E+05   -1.8269176E+00
   2.2396239E-04   2.5766046E+05   -1.8263958E+00
   2.2499667E-04   2.5550163E+05   -1.8258732E+00
   2.2603573E-04   2.5336150E+05   -1.8253499E+00
   2.2707958E-04   2.5123991E+05   -1.8248259E+00
   2.2812826E-04   2.4913668E+05   -1.8243011E+00
   2.2918178E-04   2.4705165E+05   -1.8237756E+00
   2.3024017E-04   2.4498467E+05   -1.8232494E+00
   2.3130344E-04   2.4293558E+05   -1.8227225E+00
   2.3237162E-04   2.4090420E+05   -1.8221949E+00
   2.3344474E-04   2.3889040E+05   -1.8216666E+00
   2.3452281E-04   2.3689400E+05   -1.8211376E+00
   2.3560586E-04   2.3491487E+05   -1.8206079E+00
   2.3669392E-04   2.3295283E+05   -1.8200774E+00
   2.3778699E-04   2.3100775E+05   -1.8195464E+00
   2.3888512E-04   2.2907947E+05   -1.8190146E+00
   2.3998831E-04   2.2716784E+05   -1.8184821E+00
   2.4109661E-04   2.2527272E+05   -1.8179490E+00
   2.4221001E-04   2.2339396E+05   -1.8174152E+00
   2.4332857E-04   2.2153141E+05   -1.8168808E+00
   2.4445228E-04   2.1968493E+05   -1.8163457E+00
   2.4558119E-04   2.1785438E+05   -1.8158099E+00
   2.4671531E-04   2.1603961E+05   -1.8152735E+00
   2.4785467E-04   2.1424050E+05   -1.8147364E+00
   2.4899928E-04   2.1245689E+05   -1.8141987E+00
   2.5014919E-04   2.1068865E+05   -1.8136604E+00
   2.5130440E-04   2.0893565E+05   -1.8131214E+00
   2.5246495E-04   2.0719775E+05   -1.8125818E+00
   2.5363086E-04   2.0547481E+05   -1.8120416E+00
   2.5480216E-04   2.0376671E+05   -1.8115007E+00
   2.5597886E-04   2.0207331E+05   -1.8109593E+00
   2.5716100E-04   2.0039449E+05   -1.8104172E+00
   2.5834859E-04   1.9873011E+05   -1.8098745E+00
   2.5954168E-04   1.9708005E+05   -1.8093313E+00
   2.6074027E-04   1.9544417E+05   -1.8087874E+00
   2.6194439E-04   1.9382236E+05   -1.8082429E+00
   2.6315408E-04   1.9221450E+05   -1.8076979E+00
   2.6436935E-04   1.9062044E+05   -1.8071523E+00
   2.6559024E-04   1.8904009E+05   -1.8066061E+00
   2.6681676E-04   1.8747331E+05   -1.8060593E+00
   2.6804895E-04   1.8591998E+05   -1.8055120E+00
   2.6928683E-04   1.8437999E+05   -1.8049641E+00
   2.7053042E-04   1.8285321E+05   -1.8044156E+00
   2.7177976E-04   1.8133954E+05   -1.8038666E+00
   2.7303487E-04   1.7983885E+05   -1.8033171E+00
   2.7429577E-04   1.7835103E+05   -1.8027670E+00
   2.7556250E-04   1.7687597E+05   -1.8022163E+00
   2.7683507E-04   1.7541356E+05   -1.8016652E+00
   2.7811353E-04   1.7396368E+05   -1.8011135E+00
   2.7939788E-04   1.7252622E+05   -1.8005613E+00
   2.8068817E-04   1.7110107E+05   -1.8000086E+00
   2.8198442E-04   1.6968813E+05   -1.7994554E+00
   2.8328665E-04   1.6828729E+05   -1.7989016E+00
   2.8459490E-04   1.6689843E+05   -1.7983474E+00
   2.8590919E-04   1.6552147E+05   -1.7977927E+00
   2.8722955E-04   1.6415628E+05   -1.7972374E+00
   2.8855600E-04   1.6280277E+05   -1.7966817E+00
   2.8988859E-04   1.6146083E+05   -1.7961256E+00
   2.9122732E-04   1.6013036E+05   -1.7955689E+00
   2.9257224E-04   1.5881126E+05   -1.7950118E+00
   2.9392337E-04   1.5750344E+05   -1.7944542E+00
   2.9528074E-04   1.5620679E+05   -1.7938962E+00
   2.9664438E-04   1.5492121E+05   -1.7933377E+00
   2.9801431E-04   1.5364660E+05   -1.7927787E+00
   2.9939057E-04   1.5238288E+05   -1.7922193E+00
   3.0077319E-04   1.5112993E+05   -1.7916595E+00
   3.0216219E-04   1.4988768E+05   -1.7910993E+00
   3.0355761E-04   1.4865602E+05   -1.7905386E+00
   3.0495947E-04   1.4743487E+05   -1.7899775E+00
   3.0636780E-04   1.4622412E+05   -1.7894160E+00
   3.0778264E-04   1.4502369E+05   -1.7888541E+00
   3.0920401E-04   1.4383349E+05   -1.7882917E+00
   3.1063195E-04   1.4265343E+05   -1.7877290E+00
   3.1206648E-04   1.4148341E+05   -1.7871659E+00
   3.1350764E-04   1.4032336E+05   -1.7866024E+00
   3.1495545E-04   1.3917318E+05   -1.7860385E+00
   3.1640994E-04   1.3803278E+05   -1.7854743E+00
   3.1787116E-04   1.3690209E+05   -1.7849097E+00
   3.1933912E-04   1.3578101E+05   -1.7843447E+00
   3.2081386E-04   1.3466946E+05   -1.7837793E+00
   3.2229541E-04   1.3356736E+05   -1.7832136E+00
   3.2378381E-04   1.3247463E+05   -1.7826476E+00
   3.2527908E-04   1.3139118E+05   -1.7820812E+00
   3.2678125E-04   1.3031692E+05   -1.7815145E+00
   3.2829036E-04   1.2925179E+05   -1.7809474E+00
   3.2980644E-04   1.2819570E+05   -1.7803800E+00
   3.3132952E-04   1.2714857E+05   -1.7798123E+00
   3.3285963E-04   1.2611033E+05   -1.7792443E+00
   3.3439681E-04   1.2508089E+05   -1.7786760E+00
   3.3594109E-04   1.2406018E+05   -1.7781074E+00
   3.3749250E-04   1.2304812E+05   -1.7775385E+00
   3.3905108E-04   1.2204463E+05   -1.7769693E+00
   3.4061685E-04   1.2104965E+05   -1.7763998E+00
   3.4218986E-04   1.2006309E+05   -1.7758300E+00
   3.4377013E-04   1.1908489E+05   -1.7752600E+00
   3.4535769E-04   1.1811497E+05   -1.7746897E+00
   3.4695259E-04   1.1715325E+05   -1.7741191E+00
   3.4855485E-04   1.1619967E+05   -1.7735483E+00
   3.5016452E-04   1.1525416E+05   -1.7729772E+00
   3.5178161E-04   1.1431664E+05   -1.7724059E+00
   3.5340618E-04   1.1338705E+05   -1.7718344E+00
   3.5503824E-04   1.1246531E+05   -1.7712626E+00
   3.5667785E-04   1.1155135E+05   -1.7706906E+00
   3.5832502E-04   1.1064512E+05   -1.7701184E+00
   3.5997981E-04   1.0974654E+05   -1.7695459E+00
   3.6164223E-04   1.0885554E+05   -1.7689733E+00
   3.6331233E-04   1.0797206E+05   -1.7684005E+00
   3.6499015E-04   1.0709604E+05   -1.7678274E+00
   3.6667571E-04   1.0622740E+05   -1.7672542E+00
   3.6836906E-04   1.0536609E+05   -1.7666808E+00
   3.7007022E-04   1.0451203E+05   -1.7661072E+00
   3.7177925E-04   1.0366518E+05   -1.7655334E+00
   3.7349616E-04   1.0282545E+05   -1.7649595E+00
   3.7522101E-04   1.0199280E+05   -1.7643854E+00
   3.7695382E-04   1.0116716E+05   -1.7638112E+00
   3.7869463E-04   1.0034847E+05   -1.7632368E+00
   3.8044348E-04   9.9536664E+04   -1.7626623E+00
   3.8220041E-04   9.8731689E+04   -1.7620876E+00
   3.8396545E-04   9.7933484E+04   -1.7615128E+00
   3.8573864E-04   9.7141989E+04   -1.7609379E+00
   3.8752002E-04   9.6357147E+04   -1.7603629E+00
   3.8930963E-04   9.5578898E+04   -1.7597878E+00
   3.9110750E-04   9.4807186E+04   -1.7592125E+00
   3.9291368E-04   9.4041955E+04   -1.7586372E+00
   3.9472820E-04   9.3283147E+04   -1.7580617E+00
   3.9655109E-04   9.2530707E+04   -1.7574862E+00
   3.9838241E-04   9.1784580E+04   -1.7569106E+00
   4.0022218E-04   9.1044712E+04   -1.7563349E+00
   4.0207045E-04   9.0311046E+04   -1.7557592E+00
   4.0392725E-04   8.9583531E+04   -1.7551834E+00
   4.0579263E-04   8.8862112E+04   -1.7546075E+00
   4.0766662E-04   8.8146736E+04   -1.7540316E+00
   4.0954927E-04   8.7437351E+04   -1.7534557E+00
   4.1144061E-04   8.6733906E+04   -1.7528797E+00
   4.1334068E-04   8.6036348E+04   -1.7523036E+00
   4.1524953E-04   8.5344627E+04   -1.7517276E+00
   4.1716720E-04   8.4658692E+04   -1.7511515E+00
   4.1909372E-04   8.3978492E+04   -1.7505754E+00
   4.2102914E-04   8.3303979E+04   -1.7499993E+00
   4.2297350E-04   8.2635103E+04   -1.7494232E+00
   4.2492683E-04   8.1971815E+04   -1.7488472E+00
   4.2688919E-04   8.1314067E+04   -1.7482711E+00
   4.2886061E-04   8.0661811E+04   -1.7476950E+00
   4.3084113E-04   8.0015000E+04   -1.7471190E+00
   4.3283080E-04   7.9373586E+04   -1.7465430E+00
   4.3482966E-04   7.8737522E+04   -1.7459670E+00
   4.3683775E-04   7.8106763E+04   -1.7453911E+00
   4.3885511E-04   7.7481262E+04   -1.7448152E+00
   4.4088179E-04   7.6860974E+04   -1.7442394E+00
   4.4291783E-04   7.6245855E+04   -1.7436636E+00
   4.4496327E-04   7.5635859E+04   -1.7430879E+00
   4.4701816E-04   7.5030942E+04   -1.7425123E+00
   4.4908253E-04   7.4431060E+04   -1.7419367E+00
   4.5115644E-04   7.3836171E+04   -1.7413613E+00
   4.5323993E-04   7.3246230E+04   -1.7407859E+00
   4.5533304E-04   7.2661195E+04   -1.7402106E+00
   4.5743582E-04   7.2081025E+04   -1.7396354E+00
   4.5954830E-04   7.1505676E+04   -1.7390604E+00
   4.6167054E-04   7.0935108E+04   -1.7384854E+00
   4.6380259E-04   7.0369278E+04   -1.7379106E+00
   4.6594448E-04   6.9808147E+04   -1.7373359E+00
   4.6809626E-04   6.9251674E+04   -1.7367613E+00
   4.7025797E-04   6.8699819E+04   -1.7361869E+00
   4.7242967E-04   6.8152541E+04   -1.7356126E+00
   4.7461140E-04   6.7609802E+04   -1.7350384E+00
   4.7680321E-04   6.7071563E+04   -1.7344645E+00
   4.7900514E-04   6.6537785E+04   -1.7338906E+00
   4.8121723E-04   6.6008429E+04   -1.7333170E+00
   4.8343954E-04   6.5483458E+04   -1.7327435E+00
   4.8567212E-04   6.4962833E+04   -1.7321702E+00
   4.8791500E-04   6.4446518E+04   -1.7315971E+00
   4.9016825E-04   6.3934475E+04   -1.7310242E+00
   4.9243189E-04   6.3426668E+04   -1.7304515E+00
   4.9470600E-04   6.2923060E+04   -1.7298790E+00
   4.9699060E-04   6.2423615E+04   -1.7293067E+00
   4.9928575E-04   6.1928298E+04   -1.7287346E+00
   5.0159151E-04   6.1437073E+04   -1.7281627E+00
   5.0390791E-04   6.0949906E+04   -1.7275911E+00
   5.0623501E-04   6.0466760E+04   -1.7270197E+00
   5.0857286E-04   5.9987602E+04   -1.7264486E+00
   5.1092150E-04   5.9512398E+04   -1.7258777E+00
   5.1328099E-04   5.9041113E+04   -1.7253070E+00
   5.1565137E-04   5.8573715E+04   -1.7247366E+00
   5.1803270E-04   5.8110169E+04   -1.7241665E+00
   5.2042503E-04   5.7650444E+04   -1.7235966E+00
   5.2282841E-04   5.7194505E+04   -1.7230270E+00
   5.2524289E-04   5.6742321E+04   -1.7224577E+00
   5.2766851E-04   5.6293860E+04   -1.7218887E+00
   5.3010534E-04   5.5849090E+04   -1.7213200E+00
   5.3255342E-04   5.5407978E+04   -1.7207515E+00
   5.3501281E-04   5.4970495E+04   -1.7201834E+00
   5.3748356E-04   5.4536608E+04   -1.7196156E+00
   5.3996571E-04   5.4106288E+04   -1.7190481E+00
   5.4245933E-04   5.3679504E+04   -1.7184810E+00
   5.4496446E-04   5.3256225E+04   -1.7179141E+00
   5.4748117E-04   5.2836422E+04   -1.7173476E+00
   5.5000949E-04   5.2420065E+04   -1.7167814E+00
   5.5254949E-04   5.2007124E+04   -1.7162156E+00
   5.5510123E-04   5.1597571E+04   -1.7156501E+00
   5.5766474E-04   5.1191376E+04   -1.7150850E+00
   5.6024010E-04   5.0788512E+04   -1.7145203E+00
   5.6282734E-04   5.0388948E+04   -1.7139559E+00
   5.6542654E-04   4.9992659E+04   -1.7133918E+00
   5.6803774E-04   4.9599614E+04   -1.7128282E+00
   5.7066099E-04   4.9209788E+04   -1.7122650E+00
   5.7329637E-04   4.8823152E+04   -1.7117021E+00
   5.7594391E-04   4.8439679E+04   -1.7111396E+00
   5.7860368E-04   4.8059343E+04   -1.7105776E+00
   5.8127573E-04   4.7682117E+04   -1.7100159E+00
   5.8396012E-04   4.7307973E+04   -1.7094547E+00
   5.8665691E-04   4.6936887E+04   -1.7088938E+00
   5.8936616E-04   4.6568833E+04   -1.7083334E+00
   5.9208791E-04   4.6203783E+04   -1.7077734E+00
   5.9482223E-04   4.5841713E+04   -1.7072139E+00
   5.9756919E-04   4.5482598E+04   -1.7066548E+00
   6.0032882E-04   4.5126412E+04   -1.7060961E+00
   6.0310120E-04   4.4773131E+04   -1.7055379E+00
   6.0588639E-04   4.4422729E+04   -1.7049802E+00
   6.0868443E-04   4.4075183E+04   -1.7044229E+00
   6.1149540E-04   4.3730469E+04   -1.7038660E+00
   6.1431935E-04   4.3388562E+04   -1.7033097E+00
   6.1715634E-04   4.3049438E+04   -1.7027538E+00
   6.2000644E-04   4.2713075E+04   -1.7021984E+00
   6.2286969E-04   4.2379447E+04   -1.7016435E+00
