#        a       HoverH0(a)       dlogHdloga_of_a(a)
   1.0000000E-04   1.0912359E+06   -1.8615756E+00
   1.0046181E-04   1.0819174E+06   -1.8611139E+00
   1.0092575E-04   1.0726807E+06   -1.8606513E+00
   1.0139184E-04   1.0635252E+06   -1.8601877E+00
   1.0186008E-04   1.0544500E+06   -1.8597232E+00
   1.0233048E-04   1.0454545E+06   -1.8592577E+00
   1.0280305E-04   1.0365380E+06   -1.8587913E+00
   1.0327781E-04   1.0276998E+06   -1.8583239E+00
   1.0375475E-04   1.0189391E+06   -1.8578556E+00
   1.0423390E-04   1.0102553E+06   -1.8573864E+00
   1.0471527E-04   1.0016476E+06   -1.8569163E+00
   1.0519885E-04   9.9311547E+05   -1.8564452E+00
   1.0568467E-04   9.8465813E+05   -1.8559732E+00
   1.0617274E-04   9.7627494E+05   -1.8555003E+00
   1.0666305E-04   9.6796523E+05   -1.8550264E+00
   1.0715563E-04   9.5972835E+05   -1.8545517E+00
   1.0765049E-04   9.5156365E+05   -1.8540760E+00
   1.0814763E-04   9.4347047E+05   -1.8535994E+00
   1.0864707E-04   9.3544819E+05   -1.8531219E+00
   1.0914881E-04   9.2749616E+05   -1.8526435E+00
   1.0965287E-04   9.1961375E+05   -1.8521642E+00
   1.1015926E-04   9.1180035E+05   -1.8516839E+00
   1.1066799E-04   9.0405534E+05   -1.8512028E+00
   1.1117906E-04   8.9637811E+05   -1.8507208E+00
   1.1169250E-04   8.8876804E+05   -1.8502379E+00
   1.1220831E-04   8.8122455E+05   -1.8497541E+00
   1.1272650E-04   8.7374703E+05   -1.8492694E+00
   1.1324708E-04   8.6633490E+05   -1.8487838E+00
   1.1377007E-04   8.5898757E+05   -1.8482973E+00
   1.1429547E-04   8.5170446E+05   -1.8478100E+00
   1.1482330E-04   8.4448501E+05   -1.8473217E+00
   1.1535356E-04   8.3732863E+05   -1.8468326E+00
   1.1588628E-04   8.3023477E+05   -1.8463427E+00
   1.1642145E-04   8.2320287E+05   -1.8458518E+00
   1.1695910E-04   8.1623238E+05   -1.8453601E+00
   1.1749923E-04   8.0932274E+05   -1.8448675E+00
   1.1804185E-04   8.0247342E+05   -1.8443740E+00
   1.1858698E-04   7.9568388E+05   -1.8438797E+00
   1.1913463E-04   7.8895358E+05   -1.8433846E+00
   1.1968481E-04   7.8228199E+05   -1.8428886E+00
   1.2023752E-04   7.7566859E+05   -1.8423917E+00
   1.2079279E-04   7.6911287E+05   -1.8418940E+00
   1.2135063E-04   7.6261430E+05   -1.8413954E+00
   1.2191104E-04   7.5617239E+05   -1.8408960E+00
   1.2247403E-04   7.4978661E+05   -1.8403958E+00
   1.2303963E-04   7.4345648E+05   -1.8398947E+00
   1.2360784E-04   7.3718149E+05   -1.8393928E+00
   1.2417868E-04   7.3096116E+05   -1.8388901E+00
   1.2475215E-04   7.2479499E+05   -1.8383865E+00
   1.2532826E-04   7.1868251E+05   -1.8378822E+00
   1.2590704E-04   7.1262323E+05   -1.8373770E+00
   1.2648850E-04   7.0661669E+05   -1.8368710E+00
   1.2707263E-04   7.0066241E+05   -1.8363641E+00
   1.2765947E-04   6.9475992E+05   -1.8358565E+00
   1.2824901E-04   6.8890878E+05   -1.8353481E+00
   1.2884128E-04   6.8310851E+05   -1.8348389E+00
   1.2943628E-04   6.7735867E+05   -1.8343288E+00
   1.3003403E-04   6.7165880E+05   -1.8338180E+00
   1.3063454E-04   6.6600847E+05   -1.8333064E+00
   1.3123783E-04   6.6040723E+05   -1.8327940E+00
   1.3184390E-04   6.5485464E+05   -1.8322808E+00
   1.3245277E-04   6.4935027E+05   -1.8317669E+00
   1.3306445E-04   6.4389370E+05   -1.8312521E+00
   1.3367895E-04   6.3848450E+05   -1.8307366E+00
   1.3429630E-04   6.3312224E+05   -1.8302204E+00
   1.3491649E-04   6.2780650E+05   -1.8297033E+00
   1.3553955E-04   6.2253689E+05   -1.8291855E+00
   1.3616548E-04   6.1731298E+05   -1.8286670E+00
   1.3679431E-04   6.1213437E+05   -1.8281477E+00
   1.3742604E-04   6.0700066E+05   -1.8276276E+00
   1.3806069E-04   6.0191144E+05   -1.8271068E+00
   1.3869827E-04   5.9686633E+05   -1.8265853E+00
   1.3933879E-04   5.9186493E+05   -1.8260630E+00
   1.3998227E-04   5.8690685E+05   -1.8255400E+00
   1.4062872E-04   5.8199170E+05   -1.8250163E+00
   1.4127816E-04   5.7711911E+05   -1.8244918E+00
   1.4193060E-04   5.7228871E+05   -1.8239666E+00
   1.4258605E-04   5.6750010E+05   -1.8234407E+00
   1.4324453E-04   5.6275293E+05   -1.8229141E+00
   1.4390605E-04   5.5804682E+05   -1.8223868E+00
   1.4457062E-04   5.5338142E+05   -1.8218587E+00
   1.4523826E-04   5.4875635E+05   -1.8213300E+00
   1.4590899E-04   5.4417127E+05   -1.8208006E+00
   1.4658281E-04   5.3962581E+05   -1.8202705E+00
   1.4725974E-04   5.3511963E+05   -1.8197397E+00
   1.4793981E-04   5.3065238E+05   -1.8192082E+00
   1.4862301E-04   5.2622371E+05   -1.8186760E+00
   1.4930936E-04   5.2183328E+05   -1.8181432E+00
   1.4999889E-04   5.1748075E+05   -1.8176097E+00
   1.5069160E-04   5.1316579E+05   -1.8170755E+00
   1.5138751E-04   5.0888806E+05   -1.8165407E+00
   1.5208663E-04   5.0464724E+05   -1.8160052E+00
   1.5278899E-04   5.0044299E+05   -1.8154691E+00
   1.5349458E-04   4.9627499E+05   -1.8149323E+00
   1.5420343E-04   4.9214293E+05   -1.8143949E+00
   1.5491556E-04   4.8804648E+05   -1.8138568E+00
   1.5563098E-04   4.8398532E+05   -1.8133181E+00
   1.5634970E-04   4.7995916E+05   -1.8127788E+00
   1.5707174E-04   4.7596767E+05   -1.8122388E+00
   1.5779711E-04   4.7201054E+05   -1.8116982E+00
   1.5852584E-04   4.6808749E+05   -1.8111570E+00
   1.5925792E-04   4.6419820E+05   -1.8106152E+00
   1.5999339E-04   4.6034237E+05   -1.8100728E+00
   1.6073226E-04   4.5651971E+05   -1.8095298E+00
   1.6147454E-04   4.5272993E+05   -1.8089862E+00
   1.6222024E-04   4.4897274E+05   -1.8084420E+00
   1.6296939E-04   4.4524784E+05   -1.8078972E+00
   1.6372200E-04   4.4155496E+05   -1.8073519E+00
   1.6447809E-04   4.3789380E+05   -1.8068059E+00
   1.6523767E-04   4.3426410E+05   -1.8062594E+00
   1.6600075E-04   4.3066557E+05   -1.8057123E+00
   1.6676736E-04   4.2709793E+05   -1.8051647E+00
   1.6753751E-04   4.2356092E+05   -1.8046165E+00
   1.6831122E-04   4.2005426E+05   -1.8040677E+00
   1.6908849E-04   4.1657768E+05   -1.8035184E+00
   1.6986936E-04   4.1313093E+05   -1.8029686E+00
   1.7065384E-04   4.0971373E+05   -1.8024182E+00
   1.7144193E-04   4.0632583E+05   -1.8018673E+00
   1.7223367E-04   4.0296696E+05   -1.8013159E+00
   1.7302906E-04   3.9963688E+05   -1.8007639E+00
   1.7382813E-04   3.9633532E+05   -1.8002114E+00
   1.7463089E-04   3.9306205E+05   -1.7996584E+00
   1.7543735E-04   3.8981680E+05   -1.7991050E+00
   1.7624754E-04   3.8659933E+05   -1.7985510E+00
   1.7706147E-04   3.8340939E+05   -1.7979965E+00
   1.7787916E-04   3.8024675E+05   -1.7974415E+00
   1.7870062E-04   3.7711116E+05   -1.7968860E+00
   1.7952588E-04   3.7400238E+05   -1.7963301E+00
   1.8035495E-04   3.7092019E+05   -1.7957736E+00
   1.8118785E-04   3.6786433E+05   -1.7952167E+00
   1.8202459E-04   3.6483459E+05   -1.7946594E+00
   1.8286520E-04   3.6183073E+05   -1.7941016E+00
   1.8370969E-04   3.5885253E+05   -1.7935433E+00
   1.8455808E-04   3.5589976E+05   -1.7929846E+00
   1.8541039E-04   3.5297219E+05   -1.7924254E+00
   1.8626663E-04   3.5006961E+05   -1.7918658E+00
   1.8712683E-04   3.4719179E+05   -1.7913058E+00
   1.8799100E-04   3.4433851E+05   -1.7907453E+00
   1.8885917E-04   3.4150957E+05   -1.7901844E+00
   1.8973134E-04   3.3870474E+05   -1.7896231E+00
   1.9060754E-04   3.3592382E+05   -1.7890614E+00
   1.9148778E-04   3.3316660E+05   -1.7884993E+00
   1.9237209E-04   3.3043286E+05   -1.7879368E+00
   1.9326049E-04   3.2772240E+05   -1.7873739E+00
   1.9415299E-04   3.2503502E+05   -1.7868106E+00
   1.9504960E-04   3.2237051E+05   -1.7862469E+00
   1.9595036E-04   3.1972868E+05   -1.7856829E+00
   1.9685528E-04   3.1710932E+05   -1.7851184E+00
   1.9776438E-04   3.1451224E+05   -1.7845536E+00
   1.9867768E-04   3.1193724E+05   -1.7839885E+00
   1.9959519E-04   3.0938413E+05   -1.7834230E+00
   2.0051694E-04   3.0685271E+05   -1.7828571E+00
   2.0144295E-04   3.0434280E+05   -1.7822909E+00
   2.0237324E-04   3.0185421E+05   -1.7817244E+00
   2.0330782E-04   2.9938675E+05   -1.7811575E+00
   2.0424671E-04   2.9694023E+05   -1.7805903E+00
   2.0518995E-04   2.9451447E+05   -1.7800228E+00
   2.0613754E-04   2.9210930E+05   -1.7794550E+00
   2.0708950E-04   2.8972453E+05   -1.7788869E+00
   2.0804586E-04   2.8735998E+05   -1.7783184E+00
   2.0900664E-04   2.8501547E+05   -1.7777497E+00
   2.0997185E-04   2.8269083E+05   -1.7771807E+00
   2.1094152E-04   2.8038589E+05   -1.7766113E+00
   2.1191567E-04   2.7810047E+05   -1.7760418E+00
   2.1289432E-04   2.7583440E+05   -1.7754719E+00
   2.1387749E-04   2.7358752E+05   -1.7749018E+00
   2.1486520E-04   2.7135965E+05   -1.7743314E+00
   2.1585747E-04   2.6915063E+05   -1.7737607E+00
   2.1685432E-04   2.6696030E+05   -1.7731898E+00
   2.1785578E-04   2.6478849E+05   -1.7726187E+00
   2.1886186E-04   2.6263504E+05   -1.7720473E+00
   2.1987259E-04   2.6049978E+05   -1.7714757E+00
   2.2088798E-04   2.5838257E+05   -1.7709038E+00
   2.2190807E-04   2.5628324E+05   -1.7703318E+00
   2.2293286E-04   2.5420164E+05   -1.7697595E+00
   2.2396239E-04   2.5213761E+05   -1.7691870E+00
   2.2499667E-04   2.5009100E+05   -1.7686143E+00
   2.2603573E-04   2.4806165E+05   -1.7680414E+00
   2.2707958E-04   2.4604943E+05   -1.7674683E+00
   2.2812826E-04   2.4405416E+05   -1.7668951E+00
   2.2918178E-04   2.4207572E+05   -1.7663216E+00
   2.3024017E-04   2.4011396E+05   -1.7657480E+00
   2.3130344E-04   2.3816871E+05   -1.7651742E+00
   2.3237162E-04   2.3623986E+05   -1.7646003E+00
   2.3344474E-04   2.3432724E+05   -1.7640262E+00
   2.3452281E-04   2.3243073E+05   -1.7634519E+00
   2.3560586E-04   2.3055017E+05   -1.7628776E+00
   2.3669392E-04   2.2868543E+05   -1.7623030E+00
   2.3778699E-04   2.2683638E+05   -1.7617284E+00
   2.3888512E-04   2.2500287E+05   -1.7611536E+00
   2.3998831E-04   2.2318478E+05   -1.7605787E+00
   2.4109661E-04   2.2138196E+05   -1.7600037E+00
   2.4221001E-04   2.1959429E+05   -1.7594286E+00
   2.4332857E-04   2.1782162E+05   -1.7588533E+00
   2.4445228E-04   2.1606384E+05   -1.7582780E+00
   2.4558119E-04   2.1432082E+05   -1.7577026E+00
   2.4671531E-04   2.1259242E+05   -1.7571271E+00
   2.4785467E-04   2.1087852E+05   -1.7565516E+00
   2.4899928E-04   2.0917898E+05   -1.7559760E+00
   2.5014919E-04   2.0749370E+05   -1.7554003E+00
   2.5130440E-04   2.0582254E+05   -1.7548245E+00
   2.5246495E-04   2.0416538E+05   -1.7542487E+00
   2.5363086E-04   2.0252211E+05   -1.7536729E+00
   2.5480216E-04   2.0089259E+05   -1.7530970E+00
   2.5597886E-04   1.9927671E+05   -1.7525211E+00
   2.5716100E-04   1.9767435E+05   -1.7519451E+00
   2.5834859E-04   1.9608540E+05   -1.7513691E+00
   2.5954168E-04   1.9450973E+05   -1.7507932E+00
   2.6074027E-04   1.9294724E+05   -1.7502172E+00
   2.6194439E-04   1.9139781E+05   -1.7496412E+00
   2.6315408E-04   1.8986133E+05   -1.7490652E+00
   2.6436935E-04   1.8833768E+05   -1.7484892E+00
   2.6559024E-04   1.8682675E+05   -1.7479132E+00
   2.6681676E-04   1.8532843E+05   -1.7473373E+00
   2.6804895E-04   1.8384262E+05   -1.7467614E+00
   2.6928683E-04   1.8236921E+05   -1.7461855E+00
   2.7053042E-04   1.8090808E+05   -1.7456096E+00
   2.7177976E-04   1.7945914E+05   -1.7450338E+00
   2.7303487E-04   1.7802228E+05   -1.7444581E+00
   2.7429577E-04   1.7659738E+05   -1.7438824E+00
   2.7556250E-04   1.7518436E+05   -1.7433068E+00
   2.7683507E-04   1.7378310E+05   -1.7427312E+00
   2.7811353E-04   1.7239351E+05   -1.7421558E+00
   2.7939788E-04   1.7101548E+05   -1.7415804E+00
   2.8068817E-04   1.6964892E+05   -1.7410051E+00
   2.8198442E-04   1.6829373E+05   -1.7404299E+00
   2.8328665E-04   1.6694980E+05   -1.7398547E+00
   2.8459490E-04   1.6561705E+05   -1.7392797E+00
   2.8590919E-04   1.6429536E+05   -1.7387049E+00
   2.8722955E-04   1.6298466E+05   -1.7381301E+00
   2.8855600E-04   1.6168484E+05   -1.7375554E+00
   2.8988859E-04   1.6039582E+05   -1.7369809E+00
   2.9122732E-04   1.5911749E+05   -1.7364066E+00
   2.9257224E-04   1.5784976E+05   -1.7358323E+00
   2.9392337E-04   1.5659255E+05   -1.7352582E+00
   2.9528074E-04   1.5534577E+05   -1.7346843E+00
   2.9664438E-04   1.5410932E+05   -1.7341106E+00
   2.9801431E-04   1.5288311E+05   -1.7335370E+00
   2.9939057E-04   1.5166706E+05   -1.7329635E+00
   3.0077319E-04   1.5046109E+05   -1.7323903E+00
   3.0216219E-04   1.4926509E+05   -1.7318172E+00
   3.0355761E-04   1.4807900E+05   -1.7312444E+00
   3.0495947E-04   1.4690271E+05   -1.7306717E+00
   3.0636780E-04   1.4573616E+05   -1.7300992E+00
   3.0778264E-04   1.4457925E+05   -1.7295270E+00
   3.0920401E-04   1.4343190E+05   -1.7289549E+00
   3.1063195E-04   1.4229403E+05   -1.7283831E+00
   3.1206648E-04   1.4116556E+05   -1.7278115E+00
   3.1350764E-04   1.4004641E+05   -1.7272402E+00
   3.1495545E-04   1.3893649E+05   -1.7266690E+00
   3.1640994E-04   1.3783574E+05   -1.7260982E+00
   3.1787116E-04   1.3674407E+05   -1.7255275E+00
   3.1933912E-04   1.3566139E+05   -1.7249572E+00
   3.2081386E-04   1.3458765E+05   -1.7243871E+00
   3.2229541E-04   1.3352275E+05   -1.7238172E+00
   3.2378381E-04   1.3246663E+05   -1.7232477E+00
   3.2527908E-04   1.3141921E+05   -1.7226784E+00
   3.2678125E-04   1.3038041E+05   -1.7221094E+00
   3.2829036E-04   1.2935016E+05   -1.7215407E+00
   3.2980644E-04   1.2832838E+05   -1.7209723E+00
   3.3132952E-04   1.2731501E+05   -1.7204042E+00
   3.3285963E-04   1.2630998E+05   -1.7198364E+00
   3.3439681E-04   1.2531320E+05   -1.7192689E+00
   3.3594109E-04   1.2432462E+05   -1.7187018E+00
   3.3749250E-04   1.2334416E+05   -1.7181349E+00
   3.3905108E-04   1.2237175E+05   -1.7175684E+00
   3.4061685E-04   1.2140732E+05   -1.7170023E+00
   3.4218986E-04   1.2045081E+05   -1.7164364E+00
   3.4377013E-04   1.1950214E+05   -1.7158710E+00
   3.4535769E-04   1.1856126E+05   -1.7153059E+00
   3.4695259E-04   1.1762809E+05   -1.7147411E+00
   3.4855485E-04   1.1670257E+05   -1.7141767E+00
   3.5016452E-04   1.1578463E+05   -1.7136127E+00
   3.5178161E-04   1.1487421E+05   -1.7130491E+00
   3.5340618E-04   1.1397124E+05   -1.7124858E+00
   3.5503824E-04   1.1307567E+05   -1.7119229E+00
   3.5667785E-04   1.1218742E+05   -1.7113605E+00
   3.5832502E-04   1.1130644E+05   -1.7107984E+00
   3.5997981E-04   1.1043266E+05   -1.7102367E+00
   3.6164223E-04   1.0956603E+05   -1.7096755E+00
   3.6331233E-04   1.0870648E+05   -1.7091146E+00
   3.6499015E-04   1.0785395E+05   -1.7085542E+00
   3.6667571E-04   1.0700838E+05   -1.7079942E+00
   3.6836906E-04   1.0616971E+05   -1.7074347E+00
   3.7007022E-04   1.0533789E+05   -1.7068756E+00
   3.7177925E-04   1.0451286E+05   -1.7063169E+00
   3.7349616E-04   1.0369455E+05   -1.7057587E+00
   3.7522101E-04   1.0288292E+05   -1.7052009E+00
   3.7695382E-04   1.0207790E+05   -1.7046436E+00
   3.7869463E-04   1.0127944E+05   -1.7040867E+00
   3.8044348E-04   1.0048749E+05   -1.7035303E+00
   3.8220041E-04   9.9701977E+04   -1.7029744E+00
   3.8396545E-04   9.8922862E+04   -1.7024190E+00
   3.8573864E-04   9.8150087E+04   -1.7018641E+00
   3.8752002E-04   9.7383597E+04   -1.7013096E+00
   3.8930963E-04   9.6623340E+04   -1.7007557E+00
   3.9110750E-04   9.5869262E+04   -1.7002022E+00
   3.9291368E-04   9.5121312E+04   -1.6996493E+00
   3.9472820E-04   9.4379438E+04   -1.6990969E+00
   3.9655109E-04   9.3643588E+04   -1.6985450E+00
   3.9838241E-04   9.2913711E+04   -1.6979936E+00
   4.0022218E-04   9.2189757E+04   -1.6974427E+00
   4.0207045E-04   9.1471676E+04   -1.6968924E+00
   4.0392725E-04   9.0759419E+04   -1.6963426E+00
   4.0579263E-04   9.0052935E+04   -1.6957934E+00
   4.0766662E-04   8.9352177E+04   -1.6952447E+00
   4.0954927E-04   8.8657096E+04   -1.6946965E+00
   4.1144061E-04   8.7967644E+04   -1.6941489E+00
   4.1334068E-04   8.7283774E+04   -1.6936019E+00
   4.1524953E-04   8.6605439E+04   -1.6930555E+00
   4.1716720E-04   8.5932591E+04   -1.6925096E+00
   4.1909372E-04   8.5265185E+04   -1.6919643E+00
   4.2102914E-04   8.4603175E+04   -1.6914195E+00
   4.2297350E-04   8.3946516E+04   -1.6908754E+00
   4.2492683E-04   8.3295162E+04   -1.6903319E+00
   4.2688919E-04   8.2649069E+04   -1.6897889E+00
   4.2886061E-04   8.2008193E+04   -1.6892466E+00
   4.3084113E-04   8.1372489E+04   -1.6887048E+00
   4.3283080E-04   8.0741914E+04   -1.6881637E+00
   4.3482966E-04   8.0116426E+04   -1.6876232E+00
   4.3683775E-04   7.9495981E+04   -1.6870833E+00
   4.3885511E-04   7.8880537E+04   -1.6865440E+00
   4.4088179E-04   7.8270052E+04   -1.6860054E+00
   4.4291783E-04   7.7664484E+04   -1.6854673E+00
   4.4496327E-04   7.7063793E+04   -1.6849300E+00
   4.4701816E-04   7.6467936E+04   -1.6843933E+00
   4.4908253E-04   7.5876875E+04   -1.6838572E+00
   4.5115644E-04   7.5290568E+04   -1.6833218E+00
   4.5323993E-04   7.4708975E+04   -1.6827870E+00
   4.5533304E-04   7.4132058E+04   -1.6822529E+00
   4.5743582E-04   7.3559777E+04   -1.6817194E+00
   4.5954830E-04   7.2992092E+04   -1.6811867E+00
   4.6167054E-04   7.2428967E+04   -1.6806546E+00
   4.6380259E-04   7.1870362E+04   -1.6801231E+00
   4.6594448E-04   7.1316240E+04   -1.6795924E+00
   4.6809626E-04   7.0766563E+04   -1.6790624E+00
   4.7025797E-04   7.0221294E+04   -1.6785330E+00
   4.7242967E-04   6.9680396E+04   -1.6780043E+00
   4.7461140E-04   6.9143833E+04   -1.6774764E+00
   4.7680321E-04   6.8611568E+04   -1.6769491E+00
   4.7900514E-04   6.8083566E+04   -1.6764226E+00
   4.8121723E-04   6.7559792E+04   -1.6758967E+00
   4.8343954E-04   6.7040209E+04   -1.6753716E+00
   4.8567212E-04   6.6524782E+04   -1.6748472E+00
   4.8791500E-04   6.6013478E+04   -1.6743236E+00
   4.9016825E-04   6.5506262E+04   -1.6738006E+00
   4.9243189E-04   6.5003100E+04   -1.6732784E+00
   4.9470600E-04   6.4503957E+04   -1.6727569E+00
   4.9699060E-04   6.4008801E+04   -1.6722362E+00
   4.9928575E-04   6.3517598E+04   -1.6717162E+00
   5.0159151E-04   6.3030315E+04   -1.6711970E+00
   5.0390791E-04   6.2546921E+04   -1.6706785E+00
   5.0623501E-04   6.2067381E+04   -1.6701607E+00
   5.0857286E-04   6.1591665E+04   -1.6696438E+00
   5.1092150E-04   6.1119741E+04   -1.6691276E+00
   5.1328099E-04   6.0651577E+04   -1.6686121E+00
   5.1565137E-04   6.0187141E+04   -1.6680975E+00
   5.1803270E-04   5.9726404E+04   -1.6675836E+00
   5.2042503E-04   5.9269334E+04   -1.6670705E+00
   5.2282841E-04   5.8815901E+04   -1.6665581E+00
   5.2524289E-04   5.8366074E+04   -1.6660466E+00
   5.2766851E-04   5.7919824E+04   -1.6655358E+00
   5.3010534E-04   5.7477120E+04   -1.6650259E+00
   5.3255342E-04   5.7037935E+04   -1.6645167E+00
   5.3501281E-04   5.6602238E+04   -1.6640083E+00
   5.3748356E-04   5.6170001E+04   -1.6635008E+00
   5.3996571E-04   5.5741194E+04   -1.6629940E+00
   5.4245933E-04   5.5315791E+04   -1.6624881E+00
   5.4496446E-04   5.4893762E+04   -1.6619830E+00
   5.4748117E-04   5.4475079E+04   -1.6614787E+00
   5.5000949E-04   5.4059715E+04   -1.6609752E+00
   5.5254949E-04   5.3647643E+04   -1.6604725E+00
   5.5510123E-04   5.3238835E+04   -1.6599707E+00
   5.5766474E-04   5.2833264E+04   -1.6594697E+00
   5.6024010E-04   5.2430903E+04   -1.6589695E+00
   5.6282734E-04   5.2031727E+04   -1.6584702E+00
   5.6542654E-04   5.1635708E+04   -1.6579717E+00
   5.6803774E-04   5.1242822E+04   -1.6574740E+00
   5.7066099E-04   5.0853041E+04   -1.6569772E+00
   5.7329637E-04   5.0466340E+04   -1.6564813E+00
   5.7594391E-04   5.0082694E+04   -1.6559862E+00
   5.7860368E-04   4.9702079E+04   -1.6554919E+00
   5.8127573E-04   4.9324467E+04   -1.6549986E+00
   5.8396012E-04   4.8949837E+04   -1.6545060E+00
   5.8665691E-04   4.8578161E+04   -1.6540144E+00
   5.8936616E-04   4.8209417E+04   -1.6535236E+00
   5.9208791E-04   4.7843580E+04   -1.6530337E+00
   5.9482223E-04   4.7480626E+04   -1.6525446E+00
   5.9756919E-04   4.7120532E+04   -1.6520565E+00
   6.0032882E-04   4.6763273E+04   -1.6515692E+00
   6.0310120E-04   4.6408828E+04   -1.6510828E+00
   6.0588639E-04   4.6057172E+04   -1.6505972E+00
   6.0868443E-04   4.5708283E+04   -1.6501126E+00
   6.1149540E-04   4.5362138E+04   -1.6496289E+00
   6.1431935E-04   4.5018714E+04   -1.6491460E+00
   6.1715634E-04   4.4677990E+04   -1.6486641E+00
   6.2000644E-04   4.4339943E+04   -1.6481830E+00
   6.2286969E-04   4.4004552E+04   -1.6477028E+00
