#        a       HoverH0(a)       dlogHdloga_of_a(a)
   1.0000000E-04   1.1468354E+06   -1.8935287E+00
   1.0046181E-04   1.1368745E+06   -1.8931421E+00
   1.0092575E-04   1.1270021E+06   -1.8927544E+00
   1.0139184E-04   1.1172175E+06   -1.8923658E+00
   1.0186008E-04   1.1075198E+06   -1.8919761E+00
   1.0233048E-04   1.0979082E+06   -1.8915854E+00
   1.0280305E-04   1.0883820E+06   -1.8911936E+00
   1.0327781E-04   1.0789405E+06   -1.8908009E+00
   1.0375475E-04   1.0695827E+06   -1.8904071E+00
   1.0423390E-04   1.0603081E+06   -1.8900123E+00
   1.0471527E-04   1.0511158E+06   -1.8896165E+00
   1.0519885E-04   1.0420050E+06   -1.8892197E+00
   1.0568467E-04   1.0329752E+06   -1.8888218E+00
   1.0617274E-04   1.0240255E+06   -1.8884229E+00
   1.0666305E-04   1.0151551E+06   -1.8880230E+00
   1.0715563E-04   1.0063635E+06   -1.8876221E+00
   1.0765049E-04   9.9764989E+05   -1.8872202E+00
   1.0814763E-04   9.8901353E+05   -1.8868172E+00
   1.0864707E-04   9.8045376E+05   -1.8864133E+00
   1.0914881E-04   9.7196988E+05   -1.8860083E+00
   1.0965287E-04   9.6356121E+05   -1.8856023E+00
   1.1015926E-04   9.5522708E+05   -1.8851953E+00
   1.1066799E-04   9.4696680E+05   -1.8847873E+00
   1.1117906E-04   9.3877973E+05   -1.8843782E+00
   1.1169250E-04   9.3066519E+05   -1.8839681E+00
   1.1220831E-04   9.2262254E+05   -1.8835571E+00
   1.1272650E-04   9.1465113E+05   -1.8831450E+00
   1.1324708E-04   9.0675031E+05   -1.8827319E+00
   1.1377007E-04   8.9891946E+05   -1.8823178E+00
   1.1429547E-04   8.9115793E+05   -1.8819027E+00
   1.1482330E-04   8.8346512E+05   -1.8814865E+00
   1.1535356E-04   8.7584039E+05   -1.8810694E+00
   1.1588628E-04   8.6828314E+05   -1.8806512E+00
   1.1642145E-04   8.6079275E+05   -1.8802321E+00
   1.1695910E-04   8.5336863E+05   -1.8798119E+00
   1.1749923E-04   8.4601019E+05   -1.8793907E+00
   1.1804185E-04   8.3871682E+05   -1.8789685E+00
   1.1858698E-04   8.3148795E+05   -1.8785454E+00
   1.1913463E-04   8.2432299E+05   -1.8781212E+00
   1.1968481E-04   8.1722137E+05   -1.8776960E+00
   1.2023752E-04   8.1018252E+05   -1.8772698E+00
   1.2079279E-04   8.0320588E+05   -1.8768426E+00
   1.2135063E-04   7.9629089E+05   -1.8764144E+00
   1.2191104E-04   7.8943699E+05   -1.8759852E+00
   1.2247403E-04   7.8264363E+05   -1.8755550E+00
   1.2303963E-04   7.7591027E+05   -1.8751238E+00
   1.2360784E-04   7.6923637E+05   -1.8746916E+00
   1.2417868E-04   7.6262139E+05   -1.8742585E+00
   1.2475215E-04   7.5606481E+05   -1.8738243E+00
   1.2532826E-04   7.4956610E+05   -1.8733891E+00
   1.2590704E-04   7.4312474E+05   -1.8729530E+00
   1.2648850E-04   7.3674021E+05   -1.8725158E+00
   1.2707263E-04   7.3041201E+05   -1.8720777E+00
   1.2765947E-04   7.2413964E+05   -1.8716386E+00
   1.2824901E-04   7.1792258E+05   -1.8711985E+00
   1.2884128E-04   7.1176034E+05   -1.8707574E+00
   1.2943628E-04   7.0565243E+05   -1.8703153E+00
   1.3003403E-04   6.9959836E+05   -1.8698723E+00
   1.3063454E-04   6.9359765E+05   -1.8694282E+00
   1.3123783E-04   6.8764981E+05   -1.8689832E+00
   1.3184390E-04   6.8175438E+05   -1.8685372E+00
   1.3245277E-04   6.7591089E+05   -1.8680903E+00
   1.3306445E-04   6.7011886E+05   -1.8676423E+00
   1.3367895E-04   6.6437783E+05   -1.8671934E+00
   1.3429630E-04   6.5868736E+05   -1.8667435E+00
   1.3491649E-04   6.5304698E+05   -1.8662927E+00
   1.3553955E-04   6.4745624E+05   -1.8658409E+00
   1.3616548E-04   6.4191471E+05   -1.8653881E+00
   1.3679431E-04   6.3642194E+05   -1.8649343E+00
   1.3742604E-04   6.3097748E+05   -1.8644796E+00
   1.3806069E-04   6.2558092E+05   -1.8640239E+00
   1.3869827E-04   6.2023181E+05   -1.8635673E+00
   1.3933879E-04   6.1492974E+05   -1.8631097E+00
   1.3998227E-04   6.0967428E+05   -1.8626512E+00
   1.4062872E-04   6.0446501E+05   -1.8621917E+00
   1.4127816E-04   5.9930152E+05   -1.8617312E+00
   1.4193060E-04   5.9418340E+05   -1.8612698E+00
   1.4258605E-04   5.8911024E+05   -1.8608075E+00
   1.4324453E-04   5.8408165E+05   -1.8603442E+00
   1.4390605E-04   5.7909721E+05   -1.8598800E+00
   1.4457062E-04   5.7415655E+05   -1.8594148E+00
   1.4523826E-04   5.6925925E+05   -1.8589487E+00
   1.4590899E-04   5.6440494E+05   -1.8584816E+00
   1.4658281E-04   5.5959323E+05   -1.8580137E+00
   1.4725974E-04   5.5482374E+05   -1.8575447E+00
   1.4793981E-04   5.5009609E+05   -1.8570749E+00
   1.4862301E-04   5.4540991E+05   -1.8566041E+00
   1.4930936E-04   5.4076482E+05   -1.8561324E+00
   1.4999889E-04   5.3616045E+05   -1.8556598E+00
   1.5069160E-04   5.3159645E+05   -1.8551862E+00
   1.5138751E-04   5.2707246E+05   -1.8547118E+00
   1.5208663E-04   5.2258810E+05   -1.8542364E+00
   1.5278899E-04   5.1814304E+05   -1.8537601E+00
   1.5349458E-04   5.1373691E+05   -1.8532829E+00
   1.5420343E-04   5.0936937E+05   -1.8528048E+00
   1.5491556E-04   5.0504008E+05   -1.8523257E+00
   1.5563098E-04   5.0074869E+05   -1.8518458E+00
   1.5634970E-04   4.9649486E+05   -1.8513650E+00
   1.5707174E-04   4.9227826E+05   -1.8508832E+00
   1.5779711E-04   4.8809855E+05   -1.8504006E+00
   1.5852584E-04   4.8395541E+05   -1.8499171E+00
   1.5925792E-04   4.7984851E+05   -1.8494327E+00
   1.5999339E-04   4.7577752E+05   -1.8489474E+00
   1.6073226E-04   4.7174213E+05   -1.8484612E+00
   1.6147454E-04   4.6774201E+05   -1.8479741E+00
   1.6222024E-04   4.6377685E+05   -1.8474862E+00
   1.6296939E-04   4.5984634E+05   -1.8469973E+00
   1.6372200E-04   4.5595017E+05   -1.8465076E+00
   1.6447809E-04   4.5208803E+05   -1.8460170E+00
   1.6523767E-04   4.4825962E+05   -1.8455256E+00
   1.6600075E-04   4.4446464E+05   -1.8450333E+00
   1.6676736E-04   4.4070279E+05   -1.8445401E+00
   1.6753751E-04   4.3697377E+05   -1.8440461E+00
   1.6831122E-04   4.3327729E+05   -1.8435512E+00
   1.6908849E-04   4.2961306E+05   -1.8430554E+00
   1.6986936E-04   4.2598079E+05   -1.8425588E+00
   1.7065384E-04   4.2238020E+05   -1.8420614E+00
   1.7144193E-04   4.1881100E+05   -1.8415631E+00
   1.7223367E-04   4.1527292E+05   -1.8410639E+00
   1.7302906E-04   4.1176568E+05   -1.8405640E+00
   1.7382813E-04   4.0828900E+05   -1.8400632E+00
   1.7463089E-04   4.0484261E+05   -1.8395615E+00
   1.7543735E-04   4.0142623E+05   -1.8390591E+00
   1.7624754E-04   3.9803961E+05   -1.8385558E+00
   1.7706147E-04   3.9468248E+05   -1.8380516E+00
   1.7787916E-04   3.9135457E+05   -1.8375467E+00
   1.7870062E-04   3.8805563E+05   -1.8370409E+00
   1.7952588E-04   3.8478539E+05   -1.8365344E+00
   1.8035495E-04   3.8154360E+05   -1.8360270E+00
   1.8118785E-04   3.7833001E+05   -1.8355188E+00
   1.8202459E-04   3.7514436E+05   -1.8350099E+00
   1.8286520E-04   3.7198642E+05   -1.8345001E+00
   1.8370969E-04   3.6885592E+05   -1.8339895E+00
   1.8455808E-04   3.6575263E+05   -1.8334781E+00
   1.8541039E-04   3.6267630E+05   -1.8329660E+00
   1.8626663E-04   3.5962670E+05   -1.8324530E+00
   1.8712683E-04   3.5660358E+05   -1.8319393E+00
   1.8799100E-04   3.5360671E+05   -1.8314248E+00
   1.8885917E-04   3.5063586E+05   -1.8309096E+00
   1.8973134E-04   3.4769080E+05   -1.8303935E+00
   1.9060754E-04   3.4477129E+05   -1.8298767E+00
   1.9148778E-04   3.4187712E+05   -1.8293592E+00
   1.9237209E-04   3.3900804E+05   -1.8288408E+00
   1.9326049E-04   3.3616385E+05   -1.8283218E+00
   1.9415299E-04   3.3334432E+05   -1.8278019E+00
   1.9504960E-04   3.3054923E+05   -1.8272814E+00
   1.9595036E-04   3.2777836E+05   -1.8267601E+00
   1.9685528E-04   3.2503150E+05   -1.8262380E+00
   1.9776438E-04   3.2230843E+05   -1.8257152E+00
   1.9867768E-04   3.1960895E+05   -1.8251917E+00
   1.9959519E-04   3.1693285E+05   -1.8246675E+00
   2.0051694E-04   3.1427991E+05   -1.8241425E+00
   2.0144295E-04   3.1164993E+05   -1.8236168E+00
   2.0237324E-04   3.0904271E+05   -1.8230904E+00
   2.0330782E-04   3.0645804E+05   -1.8225633E+00
   2.0424671E-04   3.0389573E+05   -1.8220355E+00
   2.0518995E-04   3.0135558E+05   -1.8215070E+00
   2.0613754E-04   2.9883739E+05   -1.8209778E+00
   2.0708950E-04   2.9634096E+05   -1.8204478E+00
   2.0804586E-04   2.9386610E+05   -1.8199173E+00
   2.0900664E-04   2.9141263E+05   -1.8193860E+00
   2.0997185E-04   2.8898035E+05   -1.8188540E+00
   2.1094152E-04   2.8656907E+05   -1.8183214E+00
   2.1191567E-04   2.8417861E+05   -1.8177881E+00
   2.1289432E-04   2.8180879E+05   -1.8172541E+00
   2.1387749E-04   2.7945941E+05   -1.8167195E+00
   2.1486520E-04   2.7713030E+05   -1.8161842E+00
   2.1585747E-04   2.7482129E+05   -1.8156482E+00
   2.1685432E-04   2.7253218E+05   -1.8151116E+00
   2.1785578E-04   2.7026281E+05   -1.8145744E+00
   2.1886186E-04   2.6801300E+05   -1.8140365E+00
   2.1987259E-04   2.6578258E+05   -1.8134980E+00
   2.2088798E-04   2.6357137E+05   -1.8129588E+00
   2.2190807E-04   2.6137922E+05   -1.8124191E+00
   2.2293286E-04   2.5920593E+05   -1.8118787E+00
   2.2396239E-04   2.5705136E+05   -1.8113376E+00
   2.2499667E-04   2.5491534E+05   -1.8107960E+00
   2.2603573E-04   2.5279769E+05   -1.8102538E+00
   2.2707958E-04   2.5069827E+05   -1.8097110E+00
   2.2812826E-04   2.4861690E+05   -1.8091675E+00
   2.2918178E-04   2.4655342E+05   -1.8086235E+00
   2.3024017E-04   2.4450769E+05   -1.8080789E+00
   2.3130344E-04   2.4247954E+05   -1.8075337E+00
   2.3237162E-04   2.4046882E+05   -1.8069879E+00
   2.3344474E-04   2.3847537E+05   -1.8064415E+00
   2.3452281E-04   2.3649905E+05   -1.8058946E+00
   2.3560586E-04   2.3453969E+05   -1.8053471E+00
   2.3669392E-04   2.3259715E+05   -1.8047991E+00
   2.3778699E-04   2.3067129E+05   -1.8042505E+00
   2.3888512E-04   2.2876195E+05   -1.8037013E+00
   2.3998831E-04   2.2686898E+05   -1.8031516E+00
   2.4109661E-04   2.2499226E+05   -1.8026014E+00
   2.4221001E-04   2.2313162E+05   -1.8020506E+00
   2.4332857E-04   2.2128693E+05   -1.8014993E+00
   2.4445228E-04   2.1945805E+05   -1.8009475E+00
   2.4558119E-04   2.1764484E+05   -1.8003952E+00
   2.4671531E-04   2.1584715E+05   -1.7998423E+00
   2.4785467E-04   2.1406487E+05   -1.7992890E+00
   2.4899928E-04   2.1229784E+05   -1.7987351E+00
   2.5014919E-04   2.1054593E+05   -1.7981807E+00
   2.5130440E-04   2.0880902E+05   -1.7976259E+00
   2.5246495E-04   2.0708696E+05   -1.7970705E+00
   2.5363086E-04   2.0537963E+05   -1.7965147E+00
   2.5480216E-04   2.0368690E+05   -1.7959584E+00
   2.5597886E-04   2.0200864E+05   -1.7954016E+00
   2.5716100E-04   2.0034472E+05   -1.7948444E+00
   2.5834859E-04   1.9869502E+05   -1.7942867E+00
   2.5954168E-04   1.9705941E+05   -1.7937285E+00
   2.6074027E-04   1.9543776E+05   -1.7931699E+00
   2.6194439E-04   1.9382996E+05   -1.7926109E+00
   2.6315408E-04   1.9223588E+05   -1.7920514E+00
   2.6436935E-04   1.9065540E+05   -1.7914915E+00
   2.6559024E-04   1.8908840E+05   -1.7909311E+00
   2.6681676E-04   1.8753477E+05   -1.7903703E+00
   2.6804895E-04   1.8599438E+05   -1.7898091E+00
   2.6928683E-04   1.8446713E+05   -1.7892475E+00
   2.7053042E-04   1.8295289E+05   -1.7886855E+00
   2.7177976E-04   1.8145154E+05   -1.7881231E+00
   2.7303487E-04   1.7996299E+05   -1.7875603E+00
   2.7429577E-04   1.7848711E+05   -1.7869971E+00
   2.7556250E-04   1.7702379E+05   -1.7864335E+00
   2.7683507E-04   1.7557292E+05   -1.7858695E+00
   2.7811353E-04   1.7413440E+05   -1.7853052E+00
   2.7939788E-04   1.7270812E+05   -1.7847404E+00
   2.8068817E-04   1.7129396E+05   -1.7841754E+00
   2.8198442E-04   1.6989182E+05   -1.7836099E+00
   2.8328665E-04   1.6850160E+05   -1.7830442E+00
   2.8459490E-04   1.6712320E+05   -1.7824780E+00
   2.8590919E-04   1.6575650E+05   -1.7819116E+00
   2.8722955E-04   1.6440140E+05   -1.7813448E+00
   2.8855600E-04   1.6305781E+05   -1.7807776E+00
   2.8988859E-04   1.6172563E+05   -1.7802102E+00
   2.9122732E-04   1.6040475E+05   -1.7796424E+00
   2.9257224E-04   1.5909507E+05   -1.7790744E+00
   2.9392337E-04   1.5779650E+05   -1.7785060E+00
   2.9528074E-04   1.5650893E+05   -1.7779373E+00
   2.9664438E-04   1.5523228E+05   -1.7773683E+00
   2.9801431E-04   1.5396645E+05   -1.7767990E+00
   2.9939057E-04   1.5271134E+05   -1.7762295E+00
   3.0077319E-04   1.5146686E+05   -1.7756597E+00
   3.0216219E-04   1.5023292E+05   -1.7750896E+00
   3.0355761E-04   1.4900942E+05   -1.7745192E+00
   3.0495947E-04   1.4779627E+05   -1.7739486E+00
   3.0636780E-04   1.4659339E+05   -1.7733778E+00
   3.0778264E-04   1.4540067E+05   -1.7728066E+00
   3.0920401E-04   1.4421805E+05   -1.7722353E+00
   3.1063195E-04   1.4304541E+05   -1.7716637E+00
   3.1206648E-04   1.4188269E+05   -1.7710919E+00
   3.1350764E-04   1.4072978E+05   -1.7705199E+00
   3.1495545E-04   1.3958662E+05   -1.7699476E+00
   3.1640994E-04   1.3845310E+05   -1.7693751E+00
   3.1787116E-04   1.3732915E+05   -1.7688025E+00
   3.1933912E-04   1.3621469E+05   -1.7682296E+00
   3.2081386E-04   1.3510962E+05   -1.7676565E+00
   3.2229541E-04   1.3401388E+05   -1.7670833E+00
   3.2378381E-04   1.3292737E+05   -1.7665098E+00
   3.2527908E-04   1.3185002E+05   -1.7659362E+00
   3.2678125E-04   1.3078175E+05   -1.7653624E+00
   3.2829036E-04   1.2972247E+05   -1.7647885E+00
   3.2980644E-04   1.2867212E+05   -1.7642144E+00
   3.3132952E-04   1.2763061E+05   -1.7636401E+00
   3.3285963E-04   1.2659786E+05   -1.7630658E+00
   3.3439681E-04   1.2557380E+05   -1.7624912E+00
   3.3594109E-04   1.2455836E+05   -1.7619166E+00
   3.3749250E-04   1.2355145E+05   -1.7613418E+00
   3.3905108E-04   1.2255301E+05   -1.7607668E+00
   3.4061685E-04   1.2156296E+05   -1.7601918E+00
   3.4218986E-04   1.2058123E+05   -1.7596167E+00
   3.4377013E-04   1.1960774E+05   -1.7590414E+00
   3.4535769E-04   1.1864242E+05   -1.7584661E+00
   3.4695259E-04   1.1768521E+05   -1.7578907E+00
   3.4855485E-04   1.1673603E+05   -1.7573152E+00
   3.5016452E-04   1.1579482E+05   -1.7567396E+00
   3.5178161E-04   1.1486149E+05   -1.7561639E+00
   3.5340618E-04   1.1393599E+05   -1.7555882E+00
   3.5503824E-04   1.1301825E+05   -1.7550124E+00
   3.5667785E-04   1.1210820E+05   -1.7544365E+00
   3.5832502E-04   1.1120577E+05   -1.7538606E+00
   3.5997981E-04   1.1031090E+05   -1.7532847E+00
   3.6164223E-04   1.0942352E+05   -1.7527087E+00
   3.6331233E-04   1.0854357E+05   -1.7521327E+00
   3.6499015E-04   1.0767098E+05   -1.7515567E+00
   3.6667571E-04   1.0680568E+05   -1.7509807E+00
   3.6836906E-04   1.0594762E+05   -1.7504046E+00
   3.7007022E-04   1.0509674E+05   -1.7498286E+00
   3.7177925E-04   1.0425296E+05   -1.7492525E+00
   3.7349616E-04   1.0341624E+05   -1.7486765E+00
   3.7522101E-04   1.0258650E+05   -1.7481004E+00
   3.7695382E-04   1.0176369E+05   -1.7475244E+00
   3.7869463E-04   1.0094774E+05   -1.7469484E+00
   3.8044348E-04   1.0013861E+05   -1.7463725E+00
   3.8220041E-04   9.9336218E+04   -1.7457966E+00
   3.8396545E-04   9.8540522E+04   -1.7452207E+00
   3.8573864E-04   9.7751459E+04   -1.7446448E+00
   3.8752002E-04   9.6968972E+04   -1.7440691E+00
   3.8930963E-04   9.6193003E+04   -1.7434934E+00
   3.9110750E-04   9.5423497E+04   -1.7429177E+00
   3.9291368E-04   9.4660397E+04   -1.7423422E+00
   3.9472820E-04   9.3903650E+04   -1.7417667E+00
   3.9655109E-04   9.3153198E+04   -1.7411913E+00
   3.9838241E-04   9.2408989E+04   -1.7406160E+00
   4.0022218E-04   9.1670969E+04   -1.7400408E+00
   4.0207045E-04   9.0939084E+04   -1.7394657E+00
   4.0392725E-04   9.0213282E+04   -1.7388907E+00
   4.0579263E-04   8.9493509E+04   -1.7383158E+00
   4.0766662E-04   8.8779714E+04   -1.7377410E+00
   4.0954927E-04   8.8071845E+04   -1.7371664E+00
   4.1144061E-04   8.7369852E+04   -1.7365919E+00
   4.1334068E-04   8.6673683E+04   -1.7360176E+00
   4.1524953E-04   8.5983289E+04   -1.7354434E+00
   4.1716720E-04   8.5298620E+04   -1.7348693E+00
   4.1909372E-04   8.4619627E+04   -1.7342954E+00
   4.2102914E-04   8.3946260E+04   -1.7337217E+00
   4.2297350E-04   8.3278472E+04   -1.7331481E+00
   4.2492683E-04   8.2616214E+04   -1.7325748E+00
   4.2688919E-04   8.1959440E+04   -1.7320016E+00
   4.2886061E-04   8.1308101E+04   -1.7314286E+00
   4.3084113E-04   8.0662152E+04   -1.7308558E+00
   4.3283080E-04   8.0021546E+04   -1.7302831E+00
   4.3482966E-04   7.9386236E+04   -1.7297107E+00
   4.3683775E-04   7.8756178E+04   -1.7291386E+00
   4.3885511E-04   7.8131326E+04   -1.7285666E+00
   4.4088179E-04   7.7511636E+04   -1.7279948E+00
   4.4291783E-04   7.6897064E+04   -1.7274233E+00
   4.4496327E-04   7.6287565E+04   -1.7268520E+00
   4.4701816E-04   7.5683097E+04   -1.7262810E+00
   4.4908253E-04   7.5083615E+04   -1.7257102E+00
   4.5115644E-04   7.4489078E+04   -1.7251397E+00
   4.5323993E-04   7.3899443E+04   -1.7245694E+00
   4.5533304E-04   7.3314668E+04   -1.7239994E+00
   4.5743582E-04   7.2734711E+04   -1.7234297E+00
   4.5954830E-04   7.2159532E+04   -1.7228602E+00
   4.6167054E-04   7.1589088E+04   -1.7222911E+00
   4.6380259E-04   7.1023340E+04   -1.7217222E+00
   4.6594448E-04   7.0462248E+04   -1.7211536E+00
   4.6809626E-04   6.9905772E+04   -1.7205853E+00
   4.7025797E-04   6.9353872E+04   -1.7200173E+00
   4.7242967E-04   6.8806509E+04   -1.7194497E+00
   4.7461140E-04   6.8263645E+04   -1.7188823E+00
   4.7680321E-04   6.7725240E+04   -1.7183153E+00
   4.7900514E-04   6.7191258E+04   -1.7177486E+00
   4.8121723E-04   6.6661660E+04   -1.7171822E+00
   4.8343954E-04   6.6136409E+04   -1.7166162E+00
   4.8567212E-04   6.5615467E+04   -1.7160505E+00
   4.8791500E-04   6.5098798E+04   -1.7154852E+00
   4.9016825E-04   6.4586366E+04   -1.7149203E+00
   4.9243189E-04   6.4078135E+04   -1.7143557E+00
   4.9470600E-04   6.3574067E+04   -1.7137914E+00
   4.9699060E-04   6.3074129E+04   -1.7132276E+00
   4.9928575E-04   6.2578285E+04   -1.7126641E+00
   5.0159151E-04   6.2086500E+04   -1.7121010E+00
   5.0390791E-04   6.1598740E+04   -1.7115383E+00
   5.0623501E-04   6.1114970E+04   -1.7109760E+00
   5.0857286E-04   6.0635156E+04   -1.7104142E+00
   5.1092150E-04   6.0159265E+04   -1.7098527E+00
   5.1328099E-04   5.9687263E+04   -1.7092916E+00
   5.1565137E-04   5.9219118E+04   -1.7087310E+00
   5.1803270E-04   5.8754796E+04   -1.7081707E+00
   5.2042503E-04   5.8294266E+04   -1.7076109E+00
   5.2282841E-04   5.7837494E+04   -1.7070516E+00
   5.2524289E-04   5.7384449E+04   -1.7064927E+00
   5.2766851E-04   5.6935099E+04   -1.7059342E+00
   5.3010534E-04   5.6489413E+04   -1.7053762E+00
   5.3255342E-04   5.6047360E+04   -1.7048186E+00
   5.3501281E-04   5.5608909E+04   -1.7042615E+00
   5.3748356E-04   5.5174030E+04   -1.7037049E+00
   5.3996571E-04   5.4742691E+04   -1.7031487E+00
   5.4245933E-04   5.4314864E+04   -1.7025931E+00
   5.4496446E-04   5.3890519E+04   -1.7020379E+00
   5.4748117E-04   5.3469626E+04   -1.7014832E+00
   5.5000949E-04   5.3052155E+04   -1.7009289E+00
   5.5254949E-04   5.2638078E+04   -1.7003752E+00
   5.5510123E-04   5.2227366E+04   -1.6998220E+00
   5.5766474E-04   5.1819991E+04   -1.6992693E+00
   5.6024010E-04   5.1415925E+04   -1.6987171E+00
   5.6282734E-04   5.1015138E+04   -1.6981655E+00
   5.6542654E-04   5.0617605E+04   -1.6976144E+00
   5.6803774E-04   5.0223296E+04   -1.6970637E+00
   5.7066099E-04   4.9832186E+04   -1.6965137E+00
   5.7329637E-04   4.9444246E+04   -1.6959642E+00
   5.7594391E-04   4.9059451E+04   -1.6954152E+00
   5.7860368E-04   4.8677774E+04   -1.6948667E+00
   5.8127573E-04   4.8299188E+04   -1.6943189E+00
   5.8396012E-04   4.7923667E+04   -1.6937715E+00
   5.8665691E-04   4.7551186E+04   -1.6932248E+00
   5.8936616E-04   4.7181719E+04   -1.6926786E+00
   5.9208791E-04   4.6815240E+04   -1.6921330E+00
   5.9482223E-04   4.6451724E+04   -1.6915880E+00
   5.9756919E-04   4.6091147E+04   -1.6910435E+00
   6.0032882E-04   4.5733483E+04   -1.6904997E+00
   6.0310120E-04   4.5378709E+04   -1.6899564E+00
   6.0588639E-04   4.5026799E+04   -1.6894138E+00
   6.0868443E-04   4.4677730E+04   -1.6888717E+00
   6.1149540E-04   4.4331477E+04   -1.6883303E+00
   6.1431935E-04   4.3988018E+04   -1.6877894E+00
   6.1715634E-04   4.3647329E+04   -1.6872492E+00
   6.2000644E-04   4.3309386E+04   -1.6867096E+00
   6.2286969E-04   4.2974166E+04   -1.6861707E+00
