#        a       HoverH0(a)       dlogHdloga_of_a(a)
   1.0000000E-04   1.0829741E+06   -1.8607066E+00
   1.0046181E-04   1.0737304E+06   -1.8602431E+00
   1.0092575E-04   1.0645679E+06   -1.8597787E+00
   1.0139184E-04   1.0554859E+06   -1.8593133E+00
   1.0186008E-04   1.0464836E+06   -1.8588470E+00
   1.0233048E-04   1.0375603E+06   -1.8583798E+00
   1.0280305E-04   1.0287152E+06   -1.8579116E+00
   1.0327781E-04   1.0199478E+06   -1.8574425E+00
   1.0375475E-04   1.0112573E+06   -1.8569725E+00
   1.0423390E-04   1.0026431E+06   -1.8565015E+00
   1.0471527E-04   9.9410434E+05   -1.8560296E+00
   1.0519885E-04   9.8564046E+05   -1.8555568E+00
   1.0568467E-04   9.7725079E+05   -1.8550831E+00
   1.0617274E-04   9.6893463E+05   -1.8546084E+00
   1.0666305E-04   9.6069136E+05   -1.8541329E+00
   1.0715563E-04   9.5252030E+05   -1.8536564E+00
   1.0765049E-04   9.4442082E+05   -1.8531790E+00
   1.0814763E-04   9.3639226E+05   -1.8527007E+00
   1.0864707E-04   9.2843401E+05   -1.8522215E+00
   1.0914881E-04   9.2054543E+05   -1.8517414E+00
   1.0965287E-04   9.1272590E+05   -1.8512603E+00
   1.1015926E-04   9.0497479E+05   -1.8507784E+00
   1.1066799E-04   8.9729150E+05   -1.8502956E+00
   1.1117906E-04   8.8967543E+05   -1.8498119E+00
   1.1169250E-04   8.8212597E+05   -1.8493273E+00
   1.1220831E-04   8.7464252E+05   -1.8488419E+00
   1.1272650E-04   8.6722450E+05   -1.8483555E+00
   1.1324708E-04   8.5987132E+05   -1.8478682E+00
   1.1377007E-04   8.5258241E+05   -1.8473801E+00
   1.1429547E-04   8.4535719E+05   -1.8468911E+00
   1.1482330E-04   8.3819509E+05   -1.8464012E+00
   1.1535356E-04   8.3109554E+05   -1.8459105E+00
   1.1588628E-04   8.2405800E+05   -1.8454189E+00
   1.1642145E-04   8.1708189E+05   -1.8449264E+00
   1.1695910E-04   8.1016669E+05   -1.8444330E+00
   1.1749923E-04   8.0331183E+05   -1.8439388E+00
   1.1804185E-04   7.9651679E+05   -1.8434438E+00
   1.1858698E-04   7.8978103E+05   -1.8429479E+00
   1.1913463E-04   7.8310403E+05   -1.8424511E+00
   1.1968481E-04   7.7648525E+05   -1.8419535E+00
   1.2023752E-04   7.6992418E+05   -1.8414550E+00
   1.2079279E-04   7.6342030E+05   -1.8409557E+00
   1.2135063E-04   7.5697311E+05   -1.8404556E+00
   1.2191104E-04   7.5058210E+05   -1.8399546E+00
   1.2247403E-04   7.4424676E+05   -1.8394528E+00
   1.2303963E-04   7.3796661E+05   -1.8389502E+00
   1.2360784E-04   7.3174114E+05   -1.8384467E+00
   1.2417868E-04   7.2556988E+05   -1.8379424E+00
   1.2475215E-04   7.1945234E+05   -1.8374374E+00
   1.2532826E-04   7.1338803E+05   -1.8369314E+00
   1.2590704E-04   7.0737650E+05   -1.8364247E+00
   1.2648850E-04   7.0141726E+05   -1.8359172E+00
   1.2707263E-04   6.9550985E+05   -1.8354089E+00
   1.2765947E-04   6.8965381E+05   -1.8348997E+00
   1.2824901E-04   6.8384868E+05   -1.8343898E+00
   1.2884128E-04   6.7809401E+05   -1.8338791E+00
   1.2943628E-04   6.7238935E+05   -1.8333676E+00
   1.3003403E-04   6.6673426E+05   -1.8328553E+00
   1.3063454E-04   6.6112829E+05   -1.8323422E+00
   1.3123783E-04   6.5557101E+05   -1.8318283E+00
   1.3184390E-04   6.5006198E+05   -1.8313137E+00
   1.3245277E-04   6.4460077E+05   -1.8307983E+00
   1.3306445E-04   6.3918696E+05   -1.8302821E+00
   1.3367895E-04   6.3382013E+05   -1.8297651E+00
   1.3429630E-04   6.2849986E+05   -1.8292474E+00
   1.3491649E-04   6.2322573E+05   -1.8287290E+00
   1.3553955E-04   6.1799734E+05   -1.8282097E+00
   1.3616548E-04   6.1281429E+05   -1.8276898E+00
   1.3679431E-04   6.0767615E+05   -1.8271691E+00
   1.3742604E-04   6.0258255E+05   -1.8266476E+00
   1.3806069E-04   5.9753308E+05   -1.8261254E+00
   1.3869827E-04   5.9252734E+05   -1.8256025E+00
   1.3933879E-04   5.8756496E+05   -1.8250789E+00
   1.3998227E-04   5.8264554E+05   -1.8245545E+00
   1.4062872E-04   5.7776871E+05   -1.8240294E+00
   1.4127816E-04   5.7293409E+05   -1.8235036E+00
   1.4193060E-04   5.6814130E+05   -1.8229771E+00
   1.4258605E-04   5.6338996E+05   -1.8224498E+00
   1.4324453E-04   5.5867972E+05   -1.8219219E+00
   1.4390605E-04   5.5401021E+05   -1.8213932E+00
   1.4457062E-04   5.4938107E+05   -1.8208639E+00
   1.4523826E-04   5.4479194E+05   -1.8203339E+00
   1.4590899E-04   5.4024246E+05   -1.8198032E+00
   1.4658281E-04   5.3573229E+05   -1.8192718E+00
   1.4725974E-04   5.3126107E+05   -1.8187397E+00
   1.4793981E-04   5.2682846E+05   -1.8182069E+00
   1.4862301E-04   5.2243411E+05   -1.8176735E+00
   1.4930936E-04   5.1807769E+05   -1.8171394E+00
   1.4999889E-04   5.1375887E+05   -1.8166047E+00
   1.5069160E-04   5.0947730E+05   -1.8160692E+00
   1.5138751E-04   5.0523266E+05   -1.8155332E+00
   1.5208663E-04   5.0102463E+05   -1.8149965E+00
   1.5278899E-04   4.9685287E+05   -1.8144591E+00
   1.5349458E-04   4.9271707E+05   -1.8139211E+00
   1.5420343E-04   4.8861691E+05   -1.8133825E+00
   1.5491556E-04   4.8455207E+05   -1.8128432E+00
   1.5563098E-04   4.8052224E+05   -1.8123034E+00
   1.5634970E-04   4.7652711E+05   -1.8117629E+00
   1.5707174E-04   4.7256637E+05   -1.8112217E+00
   1.5779711E-04   4.6863973E+05   -1.8106800E+00
   1.5852584E-04   4.6474687E+05   -1.8101377E+00
   1.5925792E-04   4.6088750E+05   -1.8095947E+00
   1.5999339E-04   4.5706132E+05   -1.8090512E+00
   1.6073226E-04   4.5326805E+05   -1.8085071E+00
   1.6147454E-04   4.4950738E+05   -1.8079624E+00
   1.6222024E-04   4.4577903E+05   -1.8074171E+00
   1.6296939E-04   4.4208272E+05   -1.8068712E+00
   1.6372200E-04   4.3841816E+05   -1.8063248E+00
   1.6447809E-04   4.3478508E+05   -1.8057778E+00
   1.6523767E-04   4.3118318E+05   -1.8052302E+00
   1.6600075E-04   4.2761221E+05   -1.8046820E+00
   1.6676736E-04   4.2407188E+05   -1.8041334E+00
   1.6753751E-04   4.2056193E+05   -1.8035841E+00
   1.6831122E-04   4.1708208E+05   -1.8030343E+00
   1.6908849E-04   4.1363208E+05   -1.8024840E+00
   1.6986936E-04   4.1021165E+05   -1.8019332E+00
   1.7065384E-04   4.0682054E+05   -1.8013818E+00
   1.7144193E-04   4.0345849E+05   -1.8008299E+00
   1.7223367E-04   4.0012524E+05   -1.8002775E+00
   1.7302906E-04   3.9682054E+05   -1.7997246E+00
   1.7382813E-04   3.9354414E+05   -1.7991711E+00
   1.7463089E-04   3.9029578E+05   -1.7986172E+00
   1.7543735E-04   3.8707523E+05   -1.7980628E+00
   1.7624754E-04   3.8388223E+05   -1.7975078E+00
   1.7706147E-04   3.8071655E+05   -1.7969524E+00
   1.7787916E-04   3.7757794E+05   -1.7963965E+00
   1.7870062E-04   3.7446616E+05   -1.7958402E+00
   1.7952588E-04   3.7138098E+05   -1.7952833E+00
   1.8035495E-04   3.6832216E+05   -1.7947260E+00
   1.8118785E-04   3.6528947E+05   -1.7941683E+00
   1.8202459E-04   3.6228269E+05   -1.7936100E+00
   1.8286520E-04   3.5930158E+05   -1.7930514E+00
   1.8370969E-04   3.5634592E+05   -1.7924923E+00
   1.8455808E-04   3.5341548E+05   -1.7919327E+00
   1.8541039E-04   3.5051005E+05   -1.7913727E+00
   1.8626663E-04   3.4762940E+05   -1.7908123E+00
   1.8712683E-04   3.4477332E+05   -1.7902515E+00
   1.8799100E-04   3.4194158E+05   -1.7896902E+00
   1.8885917E-04   3.3913398E+05   -1.7891286E+00
   1.8973134E-04   3.3635030E+05   -1.7885665E+00
   1.9060754E-04   3.3359033E+05   -1.7880041E+00
   1.9148778E-04   3.3085387E+05   -1.7874412E+00
   1.9237209E-04   3.2814071E+05   -1.7868779E+00
   1.9326049E-04   3.2545064E+05   -1.7863143E+00
   1.9415299E-04   3.2278347E+05   -1.7857503E+00
   1.9504960E-04   3.2013898E+05   -1.7851859E+00
   1.9595036E-04   3.1751699E+05   -1.7846212E+00
   1.9685528E-04   3.1491729E+05   -1.7840561E+00
   1.9776438E-04   3.1233969E+05   -1.7834906E+00
   1.9867768E-04   3.0978400E+05   -1.7829248E+00
   1.9959519E-04   3.0725001E+05   -1.7823586E+00
   2.0051694E-04   3.0473755E+05   -1.7817921E+00
   2.0144295E-04   3.0224643E+05   -1.7812253E+00
   2.0237324E-04   2.9977645E+05   -1.7806582E+00
   2.0330782E-04   2.9732743E+05   -1.7800907E+00
   2.0424671E-04   2.9489919E+05   -1.7795229E+00
   2.0518995E-04   2.9249155E+05   -1.7789548E+00
   2.0613754E-04   2.9010433E+05   -1.7783864E+00
   2.0708950E-04   2.8773734E+05   -1.7778177E+00
   2.0804586E-04   2.8539041E+05   -1.7772487E+00
   2.0900664E-04   2.8306337E+05   -1.7766794E+00
   2.0997185E-04   2.8075604E+05   -1.7761099E+00
   2.1094152E-04   2.7846825E+05   -1.7755400E+00
   2.1191567E-04   2.7619982E+05   -1.7749699E+00
   2.1289432E-04   2.7395060E+05   -1.7743996E+00
   2.1387749E-04   2.7172040E+05   -1.7738290E+00
   2.1486520E-04   2.6950907E+05   -1.7732581E+00
   2.1585747E-04   2.6731644E+05   -1.7726870E+00
   2.1685432E-04   2.6514234E+05   -1.7721156E+00
   2.1785578E-04   2.6298662E+05   -1.7715440E+00
   2.1886186E-04   2.6084912E+05   -1.7709722E+00
   2.1987259E-04   2.5872966E+05   -1.7704002E+00
   2.2088798E-04   2.5662811E+05   -1.7698279E+00
   2.2190807E-04   2.5454430E+05   -1.7692555E+00
   2.2293286E-04   2.5247807E+05   -1.7686828E+00
   2.2396239E-04   2.5042928E+05   -1.7681099E+00
   2.2499667E-04   2.4839777E+05   -1.7675369E+00
   2.2603573E-04   2.4638339E+05   -1.7669636E+00
   2.2707958E-04   2.4438599E+05   -1.7663902E+00
   2.2812826E-04   2.4240542E+05   -1.7658166E+00
   2.2918178E-04   2.4044154E+05   -1.7652429E+00
   2.3024017E-04   2.3849420E+05   -1.7646689E+00
   2.3130344E-04   2.3656326E+05   -1.7640949E+00
   2.3237162E-04   2.3464857E+05   -1.7635206E+00
   2.3344474E-04   2.3274999E+05   -1.7629463E+00
   2.3452281E-04   2.3086739E+05   -1.7623717E+00
   2.3560586E-04   2.2900062E+05   -1.7617971E+00
   2.3669392E-04   2.2714955E+05   -1.7612223E+00
   2.3778699E-04   2.2531404E+05   -1.7606475E+00
   2.3888512E-04   2.2349395E+05   -1.7600725E+00
   2.3998831E-04   2.2168915E+05   -1.7594974E+00
   2.4109661E-04   2.1989951E+05   -1.7589221E+00
   2.4221001E-04   2.1812489E+05   -1.7583468E+00
   2.4332857E-04   2.1636517E+05   -1.7577715E+00
   2.4445228E-04   2.1462022E+05   -1.7571960E+00
   2.4558119E-04   2.1288990E+05   -1.7566204E+00
   2.4671531E-04   2.1117409E+05   -1.7560448E+00
   2.4785467E-04   2.0947267E+05   -1.7554691E+00
   2.4899928E-04   2.0778550E+05   -1.7548934E+00
   2.5014919E-04   2.0611247E+05   -1.7543176E+00
   2.5130440E-04   2.0445346E+05   -1.7537417E+00
   2.5246495E-04   2.0280834E+05   -1.7531659E+00
   2.5363086E-04   2.0117698E+05   -1.7525900E+00
   2.5480216E-04   1.9955928E+05   -1.7520140E+00
   2.5597886E-04   1.9795512E+05   -1.7514380E+00
   2.5716100E-04   1.9636437E+05   -1.7508621E+00
   2.5834859E-04   1.9478692E+05   -1.7502861E+00
   2.5954168E-04   1.9322265E+05   -1.7497101E+00
   2.6074027E-04   1.9167145E+05   -1.7491341E+00
   2.6194439E-04   1.9013322E+05   -1.7485581E+00
   2.6315408E-04   1.8860782E+05   -1.7479821E+00
   2.6436935E-04   1.8709517E+05   -1.7474062E+00
   2.6559024E-04   1.8559513E+05   -1.7468303E+00
   2.6681676E-04   1.8410762E+05   -1.7462544E+00
   2.6804895E-04   1.8263250E+05   -1.7456785E+00
   2.6928683E-04   1.8116969E+05   -1.7451027E+00
   2.7053042E-04   1.7971907E+05   -1.7445270E+00
   2.7177976E-04   1.7828054E+05   -1.7439513E+00
   2.7303487E-04   1.7685400E+05   -1.7433757E+00
   2.7429577E-04   1.7543933E+05   -1.7428001E+00
   2.7556250E-04   1.7403644E+05   -1.7422246E+00
   2.7683507E-04   1.7264523E+05   -1.7416492E+00
   2.7811353E-04   1.7126559E+05   -1.7410739E+00
   2.7939788E-04   1.6989742E+05   -1.7404987E+00
   2.8068817E-04   1.6854064E+05   -1.7399236E+00
   2.8198442E-04   1.6719513E+05   -1.7393486E+00
   2.8328665E-04   1.6586080E+05   -1.7387737E+00
   2.8459490E-04   1.6453756E+05   -1.7381989E+00
   2.8590919E-04   1.6322530E+05   -1.7376242E+00
   2.8722955E-04   1.6192394E+05   -1.7370497E+00
   2.8855600E-04   1.6063338E+05   -1.7364753E+00
   2.8988859E-04   1.5935353E+05   -1.7359011E+00
   2.9122732E-04   1.5808430E+05   -1.7353270E+00
   2.9257224E-04   1.5682558E+05   -1.7347530E+00
   2.9392337E-04   1.5557731E+05   -1.7341792E+00
   2.9528074E-04   1.5433937E+05   -1.7336056E+00
   2.9664438E-04   1.5311169E+05   -1.7330322E+00
   2.9801431E-04   1.5189418E+05   -1.7324589E+00
   2.9939057E-04   1.5068675E+05   -1.7318858E+00
   3.0077319E-04   1.4948930E+05   -1.7313129E+00
   3.0216219E-04   1.4830177E+05   -1.7307402E+00
   3.0355761E-04   1.4712406E+05   -1.7301678E+00
   3.0495947E-04   1.4595608E+05   -1.7295955E+00
   3.0636780E-04   1.4479776E+05   -1.7290234E+00
   3.0778264E-04   1.4364901E+05   -1.7284516E+00
   3.0920401E-04   1.4250975E+05   -1.7278799E+00
   3.1063195E-04   1.4137990E+05   -1.7273086E+00
   3.1206648E-04   1.4025937E+05   -1.7267374E+00
   3.1350764E-04   1.3914810E+05   -1.7261665E+00
   3.1495545E-04   1.3804598E+05   -1.7255959E+00
   3.1640994E-04   1.3695296E+05   -1.7250255E+00
   3.1787116E-04   1.3586895E+05   -1.7244553E+00
   3.1933912E-04   1.3479388E+05   -1.7238855E+00
   3.2081386E-04   1.3372766E+05   -1.7233159E+00
   3.2229541E-04   1.3267022E+05   -1.7227465E+00
   3.2378381E-04   1.3162149E+05   -1.7221775E+00
   3.2527908E-04   1.3058139E+05   -1.7216088E+00
   3.2678125E-04   1.2954985E+05   -1.7210403E+00
   3.2829036E-04   1.2852680E+05   -1.7204722E+00
   3.2980644E-04   1.2751216E+05   -1.7199044E+00
   3.3132952E-04   1.2650586E+05   -1.7193369E+00
   3.3285963E-04   1.2550782E+05   -1.7187697E+00
   3.3439681E-04   1.2451799E+05   -1.7182028E+00
   3.3594109E-04   1.2353629E+05   -1.7176362E+00
   3.3749250E-04   1.2256265E+05   -1.7170700E+00
   3.3905108E-04   1.2159699E+05   -1.7165042E+00
   3.4061685E-04   1.2063926E+05   -1.7159387E+00
   3.4218986E-04   1.1968939E+05   -1.7153735E+00
   3.4377013E-04   1.1874730E+05   -1.7148087E+00
   3.4535769E-04   1.1781294E+05   -1.7142443E+00
   3.4695259E-04   1.1688623E+05   -1.7136802E+00
   3.4855485E-04   1.1596711E+05   -1.7131166E+00
   3.5016452E-04   1.1505552E+05   -1.7125533E+00
   3.5178161E-04   1.1415139E+05   -1.7119904E+00
   3.5340618E-04   1.1325465E+05   -1.7114278E+00
   3.5503824E-04   1.1236526E+05   -1.7108657E+00
   3.5667785E-04   1.1148313E+05   -1.7103040E+00
   3.5832502E-04   1.1060822E+05   -1.7097427E+00
   3.5997981E-04   1.0974046E+05   -1.7091818E+00
   3.6164223E-04   1.0887979E+05   -1.7086213E+00
   3.6331233E-04   1.0802614E+05   -1.7080613E+00
   3.6499015E-04   1.0717947E+05   -1.7075017E+00
   3.6667571E-04   1.0633971E+05   -1.7069425E+00
   3.6836906E-04   1.0550679E+05   -1.7063838E+00
   3.7007022E-04   1.0468067E+05   -1.7058255E+00
   3.7177925E-04   1.0386129E+05   -1.7052677E+00
   3.7349616E-04   1.0304858E+05   -1.7047103E+00
   3.7522101E-04   1.0224250E+05   -1.7041534E+00
   3.7695382E-04   1.0144298E+05   -1.7035970E+00
   3.7869463E-04   1.0064997E+05   -1.7030410E+00
   3.8044348E-04   9.9863417E+04   -1.7024856E+00
   3.8220041E-04   9.9083264E+04   -1.7019306E+00
   3.8396545E-04   9.8309457E+04   -1.7013761E+00
   3.8573864E-04   9.7541942E+04   -1.7008221E+00
   3.8752002E-04   9.6780666E+04   -1.7002686E+00
   3.8930963E-04   9.6025576E+04   -1.6997156E+00
   3.9110750E-04   9.5276620E+04   -1.6991631E+00
   3.9291368E-04   9.4533746E+04   -1.6986111E+00
   3.9472820E-04   9.3796902E+04   -1.6980597E+00
   3.9655109E-04   9.3066039E+04   -1.6975087E+00
   3.9838241E-04   9.2341104E+04   -1.6969584E+00
   4.0022218E-04   9.1622049E+04   -1.6964085E+00
   4.0207045E-04   9.0908823E+04   -1.6958592E+00
   4.0392725E-04   9.0201377E+04   -1.6953104E+00
   4.0579263E-04   8.9499663E+04   -1.6947622E+00
   4.0766662E-04   8.8803632E+04   -1.6942146E+00
   4.0954927E-04   8.8113236E+04   -1.6936675E+00
   4.1144061E-04   8.7428428E+04   -1.6931210E+00
   4.1334068E-04   8.6749161E+04   -1.6925750E+00
   4.1524953E-04   8.6075387E+04   -1.6920296E+00
   4.1716720E-04   8.5407061E+04   -1.6914848E+00
   4.1909372E-04   8.4744137E+04   -1.6909406E+00
   4.2102914E-04   8.4086569E+04   -1.6903970E+00
   4.2297350E-04   8.3434312E+04   -1.6898540E+00
   4.2492683E-04   8.2787321E+04   -1.6893116E+00
   4.2688919E-04   8.2145553E+04   -1.6887698E+00
   4.2886061E-04   8.1508964E+04   -1.6882286E+00
   4.3084113E-04   8.0877509E+04   -1.6876880E+00
   4.3283080E-04   8.0251146E+04   -1.6871480E+00
   4.3482966E-04   7.9629832E+04   -1.6866087E+00
   4.3683775E-04   7.9013525E+04   -1.6860699E+00
   4.3885511E-04   7.8402182E+04   -1.6855319E+00
   4.4088179E-04   7.7795761E+04   -1.6849944E+00
   4.4291783E-04   7.7194223E+04   -1.6844576E+00
   4.4496327E-04   7.6597524E+04   -1.6839215E+00
   4.4701816E-04   7.6005626E+04   -1.6833860E+00
   4.4908253E-04   7.5418488E+04   -1.6828511E+00
   4.5115644E-04   7.4836069E+04   -1.6823169E+00
   4.5323993E-04   7.4258331E+04   -1.6817834E+00
   4.5533304E-04   7.3685234E+04   -1.6812506E+00
   4.5743582E-04   7.3116740E+04   -1.6807184E+00
   4.5954830E-04   7.2552809E+04   -1.6801869E+00
   4.6167054E-04   7.1993404E+04   -1.6796561E+00
   4.6380259E-04   7.1438487E+04   -1.6791259E+00
   4.6594448E-04   7.0888020E+04   -1.6785965E+00
   4.6809626E-04   7.0341966E+04   -1.6780678E+00
   4.7025797E-04   6.9800288E+04   -1.6775397E+00
   4.7242967E-04   6.9262950E+04   -1.6770124E+00
   4.7461140E-04   6.8729916E+04   -1.6764857E+00
   4.7680321E-04   6.8201148E+04   -1.6759598E+00
   4.7900514E-04   6.7676613E+04   -1.6754346E+00
   4.8121723E-04   6.7156274E+04   -1.6749101E+00
   4.8343954E-04   6.6640098E+04   -1.6743864E+00
   4.8567212E-04   6.6128048E+04   -1.6738634E+00
   4.8791500E-04   6.5620090E+04   -1.6733411E+00
   4.9016825E-04   6.5116191E+04   -1.6728195E+00
   4.9243189E-04   6.4616316E+04   -1.6722987E+00
   4.9470600E-04   6.4120433E+04   -1.6717786E+00
   4.9699060E-04   6.3628508E+04   -1.6712593E+00
   4.9928575E-04   6.3140507E+04   -1.6707407E+00
   5.0159151E-04   6.2656399E+04   -1.6702229E+00
   5.0390791E-04   6.2176151E+04   -1.6697058E+00
   5.0623501E-04   6.1699730E+04   -1.6691895E+00
   5.0857286E-04   6.1227106E+04   -1.6686740E+00
   5.1092150E-04   6.0758246E+04   -1.6681592E+00
   5.1328099E-04   6.0293120E+04   -1.6676453E+00
   5.1565137E-04   5.9831696E+04   -1.6671321E+00
   5.1803270E-04   5.9373943E+04   -1.6666196E+00
   5.2042503E-04   5.8919832E+04   -1.6661080E+00
   5.2282841E-04   5.8469331E+04   -1.6655972E+00
   5.2524289E-04   5.8022412E+04   -1.6650871E+00
   5.2766851E-04   5.7579043E+04   -1.6645778E+00
   5.3010534E-04   5.7139197E+04   -1.6640694E+00
   5.3255342E-04   5.6702843E+04   -1.6635617E+00
   5.3501281E-04   5.6269954E+04   -1.6630549E+00
   5.3748356E-04   5.5840499E+04   -1.6625489E+00
   5.3996571E-04   5.5414451E+04   -1.6620436E+00
   5.4245933E-04   5.4991781E+04   -1.6615392E+00
   5.4496446E-04   5.4572462E+04   -1.6610357E+00
   5.4748117E-04   5.4156467E+04   -1.6605329E+00
   5.5000949E-04   5.3743766E+04   -1.6600310E+00
   5.5254949E-04   5.3334334E+04   -1.6595299E+00
   5.5510123E-04   5.2928143E+04   -1.6590296E+00
   5.5766474E-04   5.2525167E+04   -1.6585302E+00
   5.6024010E-04   5.2125378E+04   -1.6580316E+00
   5.6282734E-04   5.1728751E+04   -1.6575338E+00
   5.6542654E-04   5.1335260E+04   -1.6570369E+00
   5.6803774E-04   5.0944878E+04   -1.6565409E+00
   5.7066099E-04   5.0557581E+04   -1.6560457E+00
   5.7329637E-04   5.0173342E+04   -1.6555513E+00
   5.7594391E-04   4.9792137E+04   -1.6550578E+00
   5.7860368E-04   4.9413940E+04   -1.6545652E+00
   5.8127573E-04   4.9038728E+04   -1.6540735E+00
   5.8396012E-04   4.8666474E+04   -1.6535826E+00
   5.8665691E-04   4.8297156E+04   -1.6530926E+00
   5.8936616E-04   4.7930748E+04   -1.6526034E+00
   5.9208791E-04   4.7567227E+04   -1.6521151E+00
   5.9482223E-04   4.7206569E+04   -1.6516278E+00
   5.9756919E-04   4.6848751E+04   -1.6511412E+00
   6.0032882E-04   4.6493749E+04   -1.6506556E+00
   6.0310120E-04   4.6141541E+04   -1.6501709E+00
   6.0588639E-04   4.5792102E+04   -1.6496870E+00
   6.0868443E-04   4.5445412E+04   -1.6492041E+00
   6.1149540E-04   4.5101446E+04   -1.6487220E+00
   6.1431935E-04   4.4760183E+04   -1.6482409E+00
   6.1715634E-04   4.4421601E+04   -1.6477606E+00
   6.2000644E-04   4.4085677E+04   -1.6472812E+00
   6.2286969E-04   4.3752390E+04   -1.6468028E+00
