#        a       HoverH0(a)       dlogHdloga_of_a(a)
   1.0000000E-04   1.1205857E+06   -1.8989350E+00
   1.0046181E-04   1.1108251E+06   -1.8985629E+00
   1.0092575E-04   1.1011514E+06   -1.8981898E+00
   1.0139184E-04   1.0915638E+06   -1.8978157E+00
   1.0186008E-04   1.0820615E+06   -1.8974406E+00
   1.0233048E-04   1.0726439E+06   -1.8970645E+00
   1.0280305E-04   1.0633100E+06   -1.8966873E+00
   1.0327781E-04   1.0540592E+06   -1.8963091E+00
   1.0375475E-04   1.0448907E+06   -1.8959299E+00
   1.0423390E-04   1.0358038E+06   -1.8955497E+00
   1.0471527E-04   1.0267977E+06   -1.8951685E+00
   1.0519885E-04   1.0178717E+06   -1.8947862E+00
   1.0568467E-04   1.0090250E+06   -1.8944029E+00
   1.0617274E-04   1.0002571E+06   -1.8940186E+00
   1.0666305E-04   9.9156704E+05   -1.8936333E+00
   1.0715563E-04   9.8295426E+05   -1.8932469E+00
   1.0765049E-04   9.7441803E+05   -1.8928595E+00
   1.0814763E-04   9.6595765E+05   -1.8924712E+00
   1.0864707E-04   9.5757244E+05   -1.8920817E+00
   1.0914881E-04   9.4926173E+05   -1.8916913E+00
   1.0965287E-04   9.4102485E+05   -1.8912998E+00
   1.1015926E-04   9.3286112E+05   -1.8909074E+00
   1.1066799E-04   9.2476988E+05   -1.8905139E+00
   1.1117906E-04   9.1675049E+05   -1.8901193E+00
   1.1169250E-04   9.0880230E+05   -1.8897238E+00
   1.1220831E-04   9.0092466E+05   -1.8893272E+00
   1.1272650E-04   8.9311694E+05   -1.8889297E+00
   1.1324708E-04   8.8537851E+05   -1.8885311E+00
   1.1377007E-04   8.7770875E+05   -1.8881314E+00
   1.1429547E-04   8.7010703E+05   -1.8877308E+00
   1.1482330E-04   8.6257274E+05   -1.8873291E+00
   1.1535356E-04   8.5510527E+05   -1.8869265E+00
   1.1588628E-04   8.4770403E+05   -1.8865228E+00
   1.1642145E-04   8.4036841E+05   -1.8861181E+00
   1.1695910E-04   8.3309783E+05   -1.8857123E+00
   1.1749923E-04   8.2589169E+05   -1.8853056E+00
   1.1804185E-04   8.1874942E+05   -1.8848978E+00
   1.1858698E-04   8.1167045E+05   -1.8844891E+00
   1.1913463E-04   8.0465419E+05   -1.8840793E+00
   1.1968481E-04   7.9770010E+05   -1.8836685E+00
   1.2023752E-04   7.9080760E+05   -1.8832567E+00
   1.2079279E-04   7.8397615E+05   -1.8828438E+00
   1.2135063E-04   7.7720520E+05   -1.8824300E+00
   1.2191104E-04   7.7049419E+05   -1.8820151E+00
   1.2247403E-04   7.6384259E+05   -1.8815993E+00
   1.2303963E-04   7.5724987E+05   -1.8811824E+00
   1.2360784E-04   7.5071549E+05   -1.8807645E+00
   1.2417868E-04   7.4423893E+05   -1.8803456E+00
   1.2475215E-04   7.3781968E+05   -1.8799257E+00
   1.2532826E-04   7.3145720E+05   -1.8795048E+00
   1.2590704E-04   7.2515101E+05   -1.8790829E+00
   1.2648850E-04   7.1890057E+05   -1.8786600E+00
   1.2707263E-04   7.1270541E+05   -1.8782361E+00
   1.2765947E-04   7.0656501E+05   -1.8778112E+00
   1.2824901E-04   7.0047889E+05   -1.8773853E+00
   1.2884128E-04   6.9444656E+05   -1.8769583E+00
   1.2943628E-04   6.8846753E+05   -1.8765304E+00
   1.3003403E-04   6.8254133E+05   -1.8761015E+00
   1.3063454E-04   6.7666748E+05   -1.8756715E+00
   1.3123783E-04   6.7084551E+05   -1.8752406E+00
   1.3184390E-04   6.6507495E+05   -1.8748087E+00
   1.3245277E-04   6.5935535E+05   -1.8743758E+00
   1.3306445E-04   6.5368623E+05   -1.8739419E+00
   1.3367895E-04   6.4806716E+05   -1.8735070E+00
   1.3429630E-04   6.4249768E+05   -1.8730711E+00
   1.3491649E-04   6.3697734E+05   -1.8726342E+00
   1.3553955E-04   6.3150570E+05   -1.8721964E+00
   1.3616548E-04   6.2608234E+05   -1.8717575E+00
   1.3679431E-04   6.2070680E+05   -1.8713177E+00
   1.3742604E-04   6.1537867E+05   -1.8708768E+00
   1.3806069E-04   6.1009751E+05   -1.8704350E+00
   1.3869827E-04   6.0486291E+05   -1.8699922E+00
   1.3933879E-04   5.9967445E+05   -1.8695485E+00
   1.3998227E-04   5.9453171E+05   -1.8691037E+00
   1.4062872E-04   5.8943428E+05   -1.8686580E+00
   1.4127816E-04   5.8438176E+05   -1.8682113E+00
   1.4193060E-04   5.7937374E+05   -1.8677636E+00
   1.4258605E-04   5.7440983E+05   -1.8673150E+00
   1.4324453E-04   5.6948962E+05   -1.8668653E+00
   1.4390605E-04   5.6461273E+05   -1.8664147E+00
   1.4457062E-04   5.5977876E+05   -1.8659632E+00
   1.4523826E-04   5.5498734E+05   -1.8655106E+00
   1.4590899E-04   5.5023808E+05   -1.8650572E+00
   1.4658281E-04   5.4553060E+05   -1.8646027E+00
   1.4725974E-04   5.4086453E+05   -1.8641473E+00
   1.4793981E-04   5.3623950E+05   -1.8636909E+00
   1.4862301E-04   5.3165513E+05   -1.8632336E+00
   1.4930936E-04   5.2711107E+05   -1.8627753E+00
   1.4999889E-04   5.2260695E+05   -1.8623160E+00
   1.5069160E-04   5.1814242E+05   -1.8618559E+00
   1.5138751E-04   5.1371712E+05   -1.8613947E+00
   1.5208663E-04   5.0933069E+05   -1.8609326E+00
   1.5278899E-04   5.0498279E+05   -1.8604696E+00
   1.5349458E-04   5.0067308E+05   -1.8600056E+00
   1.5420343E-04   4.9640122E+05   -1.8595407E+00
   1.5491556E-04   4.9216686E+05   -1.8590748E+00
   1.5563098E-04   4.8796966E+05   -1.8586080E+00
   1.5634970E-04   4.8380930E+05   -1.8581403E+00
   1.5707174E-04   4.7968545E+05   -1.8576716E+00
   1.5779711E-04   4.7559777E+05   -1.8572020E+00
   1.5852584E-04   4.7154595E+05   -1.8567315E+00
   1.5925792E-04   4.6752966E+05   -1.8562600E+00
   1.5999339E-04   4.6354859E+05   -1.8557876E+00
   1.6073226E-04   4.5960242E+05   -1.8553143E+00
   1.6147454E-04   4.5569084E+05   -1.8548401E+00
   1.6222024E-04   4.5181353E+05   -1.8543650E+00
   1.6296939E-04   4.4797020E+05   -1.8538889E+00
   1.6372200E-04   4.4416054E+05   -1.8534120E+00
   1.6447809E-04   4.4038424E+05   -1.8529341E+00
   1.6523767E-04   4.3664101E+05   -1.8524553E+00
   1.6600075E-04   4.3293056E+05   -1.8519756E+00
   1.6676736E-04   4.2925259E+05   -1.8514950E+00
   1.6753751E-04   4.2560680E+05   -1.8510135E+00
   1.6831122E-04   4.2199292E+05   -1.8505311E+00
   1.6908849E-04   4.1841065E+05   -1.8500478E+00
   1.6986936E-04   4.1485972E+05   -1.8495637E+00
   1.7065384E-04   4.1133984E+05   -1.8490786E+00
   1.7144193E-04   4.0785074E+05   -1.8485926E+00
   1.7223367E-04   4.0439214E+05   -1.8481058E+00
   1.7302906E-04   4.0096377E+05   -1.8476181E+00
   1.7382813E-04   3.9756536E+05   -1.8471295E+00
   1.7463089E-04   3.9419664E+05   -1.8466400E+00
   1.7543735E-04   3.9085735E+05   -1.8461497E+00
   1.7624754E-04   3.8754722E+05   -1.8456584E+00
   1.7706147E-04   3.8426600E+05   -1.8451663E+00
   1.7787916E-04   3.8101342E+05   -1.8446734E+00
   1.7870062E-04   3.7778923E+05   -1.8441796E+00
   1.7952588E-04   3.7459318E+05   -1.8436849E+00
   1.8035495E-04   3.7142501E+05   -1.8431894E+00
   1.8118785E-04   3.6828448E+05   -1.8426930E+00
   1.8202459E-04   3.6517134E+05   -1.8421958E+00
   1.8286520E-04   3.6208535E+05   -1.8416977E+00
   1.8370969E-04   3.5902626E+05   -1.8411988E+00
   1.8455808E-04   3.5599383E+05   -1.8406991E+00
   1.8541039E-04   3.5298783E+05   -1.8401985E+00
   1.8626663E-04   3.5000802E+05   -1.8396971E+00
   1.8712683E-04   3.4705417E+05   -1.8391948E+00
   1.8799100E-04   3.4412604E+05   -1.8386917E+00
   1.8885917E-04   3.4122341E+05   -1.8381878E+00
   1.8973134E-04   3.3834605E+05   -1.8376831E+00
   1.9060754E-04   3.3549373E+05   -1.8371776E+00
   1.9148778E-04   3.3266624E+05   -1.8366712E+00
   1.9237209E-04   3.2986334E+05   -1.8361641E+00
   1.9326049E-04   3.2708482E+05   -1.8356561E+00
   1.9415299E-04   3.2433047E+05   -1.8351473E+00
   1.9504960E-04   3.2160007E+05   -1.8346377E+00
   1.9595036E-04   3.1889340E+05   -1.8341274E+00
   1.9685528E-04   3.1621026E+05   -1.8336162E+00
   1.9776438E-04   3.1355043E+05   -1.8331043E+00
   1.9867768E-04   3.1091371E+05   -1.8325915E+00
   1.9959519E-04   3.0829989E+05   -1.8320780E+00
   2.0051694E-04   3.0570877E+05   -1.8315637E+00
   2.0144295E-04   3.0314014E+05   -1.8310487E+00
   2.0237324E-04   3.0059381E+05   -1.8305328E+00
   2.0330782E-04   2.9806958E+05   -1.8300162E+00
   2.0424671E-04   2.9556725E+05   -1.8294989E+00
   2.0518995E-04   2.9308662E+05   -1.8289808E+00
   2.0613754E-04   2.9062751E+05   -1.8284619E+00
   2.0708950E-04   2.8818972E+05   -1.8279422E+00
   2.0804586E-04   2.8577307E+05   -1.8274219E+00
   2.0900664E-04   2.8337736E+05   -1.8269007E+00
   2.0997185E-04   2.8100241E+05   -1.8263789E+00
   2.1094152E-04   2.7864803E+05   -1.8258563E+00
   2.1191567E-04   2.7631405E+05   -1.8253330E+00
   2.1289432E-04   2.7400027E+05   -1.8248089E+00
   2.1387749E-04   2.7170653E+05   -1.8242841E+00
   2.1486520E-04   2.6943264E+05   -1.8237586E+00
   2.1585747E-04   2.6717843E+05   -1.8232324E+00
   2.1685432E-04   2.6494372E+05   -1.8227055E+00
   2.1785578E-04   2.6272834E+05   -1.8221779E+00
   2.1886186E-04   2.6053212E+05   -1.8216495E+00
   2.1987259E-04   2.5835489E+05   -1.8211205E+00
   2.2088798E-04   2.5619648E+05   -1.8205908E+00
   2.2190807E-04   2.5405672E+05   -1.8200604E+00
   2.2293286E-04   2.5193544E+05   -1.8195293E+00
   2.2396239E-04   2.4983249E+05   -1.8189975E+00
   2.2499667E-04   2.4774770E+05   -1.8184650E+00
   2.2603573E-04   2.4568092E+05   -1.8179319E+00
   2.2707958E-04   2.4363197E+05   -1.8173981E+00
   2.2812826E-04   2.4160070E+05   -1.8168636E+00
   2.2918178E-04   2.3958696E+05   -1.8163285E+00
   2.3024017E-04   2.3759060E+05   -1.8157927E+00
   2.3130344E-04   2.3561144E+05   -1.8152563E+00
   2.3237162E-04   2.3364936E+05   -1.8147192E+00
   2.3344474E-04   2.3170418E+05   -1.8141815E+00
   2.3452281E-04   2.2977577E+05   -1.8136431E+00
   2.3560586E-04   2.2786398E+05   -1.8131041E+00
   2.3669392E-04   2.2596865E+05   -1.8125645E+00
   2.3778699E-04   2.2408965E+05   -1.8120243E+00
   2.3888512E-04   2.2222682E+05   -1.8114834E+00
   2.3998831E-04   2.2038003E+05   -1.8109420E+00
   2.4109661E-04   2.1854913E+05   -1.8103999E+00
   2.4221001E-04   2.1673398E+05   -1.8098572E+00
   2.4332857E-04   2.1493445E+05   -1.8093139E+00
   2.4445228E-04   2.1315039E+05   -1.8087700E+00
   2.4558119E-04   2.1138167E+05   -1.8082256E+00
   2.4671531E-04   2.0962815E+05   -1.8076805E+00
   2.4785467E-04   2.0788971E+05   -1.8071349E+00
   2.4899928E-04   2.0616620E+05   -1.8065887E+00
   2.5014919E-04   2.0445749E+05   -1.8060419E+00
   2.5130440E-04   2.0276345E+05   -1.8054946E+00
   2.5246495E-04   2.0108396E+05   -1.8049467E+00
   2.5363086E-04   1.9941888E+05   -1.8043982E+00
   2.5480216E-04   1.9776809E+05   -1.8038492E+00
   2.5597886E-04   1.9613147E+05   -1.8032996E+00
   2.5716100E-04   1.9450887E+05   -1.8027495E+00
   2.5834859E-04   1.9290020E+05   -1.8021989E+00
   2.5954168E-04   1.9130531E+05   -1.8016477E+00
   2.6074027E-04   1.8972409E+05   -1.8010960E+00
   2.6194439E-04   1.8815641E+05   -1.8005438E+00
   2.6315408E-04   1.8660217E+05   -1.7999911E+00
   2.6436935E-04   1.8506124E+05   -1.7994379E+00
   2.6559024E-04   1.8353350E+05   -1.7988841E+00
   2.6681676E-04   1.8201883E+05   -1.7983299E+00
   2.6804895E-04   1.8051713E+05   -1.7977752E+00
   2.6928683E-04   1.7902828E+05   -1.7972200E+00
   2.7053042E-04   1.7755216E+05   -1.7966642E+00
   2.7177976E-04   1.7608866E+05   -1.7961081E+00
   2.7303487E-04   1.7463767E+05   -1.7955514E+00
   2.7429577E-04   1.7319908E+05   -1.7949943E+00
   2.7556250E-04   1.7177278E+05   -1.7944367E+00
   2.7683507E-04   1.7035867E+05   -1.7938786E+00
   2.7811353E-04   1.6895663E+05   -1.7933201E+00
   2.7939788E-04   1.6756657E+05   -1.7927612E+00
   2.8068817E-04   1.6618837E+05   -1.7922018E+00
   2.8198442E-04   1.6482193E+05   -1.7916420E+00
   2.8328665E-04   1.6346714E+05   -1.7910817E+00
   2.8459490E-04   1.6212391E+05   -1.7905211E+00
   2.8590919E-04   1.6079214E+05   -1.7899600E+00
   2.8722955E-04   1.5947171E+05   -1.7893985E+00
   2.8855600E-04   1.5816254E+05   -1.7888365E+00
   2.8988859E-04   1.5686452E+05   -1.7882742E+00
   2.9122732E-04   1.5557756E+05   -1.7877115E+00
   2.9257224E-04   1.5430156E+05   -1.7871484E+00
   2.9392337E-04   1.5303641E+05   -1.7865849E+00
   2.9528074E-04   1.5178204E+05   -1.7860210E+00
   2.9664438E-04   1.5053834E+05   -1.7854567E+00
   2.9801431E-04   1.4930522E+05   -1.7848921E+00
   2.9939057E-04   1.4808258E+05   -1.7843271E+00
   3.0077319E-04   1.4687034E+05   -1.7837618E+00
   3.0216219E-04   1.4566841E+05   -1.7831961E+00
   3.0355761E-04   1.4447668E+05   -1.7826300E+00
   3.0495947E-04   1.4329508E+05   -1.7820637E+00
   3.0636780E-04   1.4212352E+05   -1.7814969E+00
   3.0778264E-04   1.4096190E+05   -1.7809299E+00
   3.0920401E-04   1.3981014E+05   -1.7803625E+00
   3.1063195E-04   1.3866815E+05   -1.7797948E+00
   3.1206648E-04   1.3753585E+05   -1.7792268E+00
   3.1350764E-04   1.3641315E+05   -1.7786585E+00
   3.1495545E-04   1.3529998E+05   -1.7780899E+00
   3.1640994E-04   1.3419624E+05   -1.7775210E+00
   3.1787116E-04   1.3310185E+05   -1.7769518E+00
   3.1933912E-04   1.3201673E+05   -1.7763823E+00
   3.2081386E-04   1.3094080E+05   -1.7758125E+00
   3.2229541E-04   1.2987399E+05   -1.7752425E+00
   3.2378381E-04   1.2881620E+05   -1.7746722E+00
   3.2527908E-04   1.2776736E+05   -1.7741017E+00
   3.2678125E-04   1.2672740E+05   -1.7735308E+00
   3.2829036E-04   1.2569623E+05   -1.7729598E+00
   3.2980644E-04   1.2467378E+05   -1.7723885E+00
   3.3132952E-04   1.2365998E+05   -1.7718169E+00
   3.3285963E-04   1.2265474E+05   -1.7712452E+00
   3.3439681E-04   1.2165799E+05   -1.7706732E+00
   3.3594109E-04   1.2066966E+05   -1.7701010E+00
   3.3749250E-04   1.1968967E+05   -1.7695285E+00
   3.3905108E-04   1.1871796E+05   -1.7689559E+00
   3.4061685E-04   1.1775445E+05   -1.7683831E+00
   3.4218986E-04   1.1679906E+05   -1.7678100E+00
   3.4377013E-04   1.1585174E+05   -1.7672368E+00
   3.4535769E-04   1.1491240E+05   -1.7666634E+00
   3.4695259E-04   1.1398097E+05   -1.7660899E+00
   3.4855485E-04   1.1305740E+05   -1.7655161E+00
   3.5016452E-04   1.1214160E+05   -1.7649422E+00
   3.5178161E-04   1.1123352E+05   -1.7643681E+00
   3.5340618E-04   1.1033308E+05   -1.7637939E+00
   3.5503824E-04   1.0944023E+05   -1.7632195E+00
   3.5667785E-04   1.0855488E+05   -1.7626450E+00
   3.5832502E-04   1.0767698E+05   -1.7620704E+00
   3.5997981E-04   1.0680647E+05   -1.7614956E+00
   3.6164223E-04   1.0594327E+05   -1.7609207E+00
   3.6331233E-04   1.0508733E+05   -1.7603457E+00
   3.6499015E-04   1.0423857E+05   -1.7597706E+00
   3.6667571E-04   1.0339695E+05   -1.7591953E+00
   3.6836906E-04   1.0256240E+05   -1.7586200E+00
   3.7007022E-04   1.0173485E+05   -1.7580446E+00
   3.7177925E-04   1.0091424E+05   -1.7574691E+00
   3.7349616E-04   1.0010052E+05   -1.7568935E+00
   3.7522101E-04   9.9293627E+04   -1.7563178E+00
   3.7695382E-04   9.8493497E+04   -1.7557421E+00
   3.7869463E-04   9.7700074E+04   -1.7551663E+00
   3.8044348E-04   9.6913300E+04   -1.7545905E+00
   3.8220041E-04   9.6133116E+04   -1.7540146E+00
   3.8396545E-04   9.5359467E+04   -1.7534386E+00
   3.8573864E-04   9.4592294E+04   -1.7528626E+00
   3.8752002E-04   9.3831542E+04   -1.7522866E+00
   3.8930963E-04   9.3077156E+04   -1.7517106E+00
   3.9110750E-04   9.2329080E+04   -1.7511346E+00
   3.9291368E-04   9.1587259E+04   -1.7505585E+00
   3.9472820E-04   9.0851640E+04   -1.7499824E+00
   3.9655109E-04   9.0122168E+04   -1.7494063E+00
   3.9838241E-04   8.9398791E+04   -1.7488303E+00
   4.0022218E-04   8.8681455E+04   -1.7482542E+00
   4.0207045E-04   8.7970109E+04   -1.7476782E+00
   4.0392725E-04   8.7264700E+04   -1.7471022E+00
   4.0579263E-04   8.6565178E+04   -1.7465262E+00
   4.0766662E-04   8.5871491E+04   -1.7459502E+00
   4.0954927E-04   8.5183589E+04   -1.7453743E+00
   4.1144061E-04   8.4501421E+04   -1.7447985E+00
   4.1334068E-04   8.3824939E+04   -1.7442227E+00
   4.1524953E-04   8.3154093E+04   -1.7436469E+00
   4.1716720E-04   8.2488835E+04   -1.7430712E+00
   4.1909372E-04   8.1829116E+04   -1.7424956E+00
   4.2102914E-04   8.1174888E+04   -1.7419201E+00
   4.2297350E-04   8.0526105E+04   -1.7413447E+00
   4.2492683E-04   7.9882718E+04   -1.7407693E+00
   4.2688919E-04   7.9244683E+04   -1.7401941E+00
   4.2886061E-04   7.8611952E+04   -1.7396189E+00
   4.3084113E-04   7.7984479E+04   -1.7390439E+00
   4.3283080E-04   7.7362220E+04   -1.7384689E+00
   4.3482966E-04   7.6745129E+04   -1.7378941E+00
   4.3683775E-04   7.6133163E+04   -1.7373194E+00
   4.3885511E-04   7.5526275E+04   -1.7367449E+00
   4.4088179E-04   7.4924424E+04   -1.7361705E+00
   4.4291783E-04   7.4327566E+04   -1.7355962E+00
   4.4496327E-04   7.3735657E+04   -1.7350221E+00
   4.4701816E-04   7.3148656E+04   -1.7344482E+00
   4.4908253E-04   7.2566519E+04   -1.7338744E+00
   4.5115644E-04   7.1989206E+04   -1.7333007E+00
   4.5323993E-04   7.1416674E+04   -1.7327273E+00
   4.5533304E-04   7.0848883E+04   -1.7321540E+00
   4.5743582E-04   7.0285792E+04   -1.7315810E+00
   4.5954830E-04   6.9727360E+04   -1.7310081E+00
   4.6167054E-04   6.9173547E+04   -1.7304354E+00
   4.6380259E-04   6.8624314E+04   -1.7298629E+00
   4.6594448E-04   6.8079621E+04   -1.7292906E+00
   4.6809626E-04   6.7539430E+04   -1.7287186E+00
   4.7025797E-04   6.7003702E+04   -1.7281468E+00
   4.7242967E-04   6.6472398E+04   -1.7275752E+00
   4.7461140E-04   6.5945481E+04   -1.7270038E+00
   4.7680321E-04   6.5422913E+04   -1.7264327E+00
   4.7900514E-04   6.4904656E+04   -1.7258618E+00
   4.8121723E-04   6.4390674E+04   -1.7252912E+00
   4.8343954E-04   6.3880931E+04   -1.7247208E+00
   4.8567212E-04   6.3375389E+04   -1.7241507E+00
   4.8791500E-04   6.2874014E+04   -1.7235809E+00
   4.9016825E-04   6.2376768E+04   -1.7230113E+00
   4.9243189E-04   6.1883617E+04   -1.7224421E+00
   4.9470600E-04   6.1394526E+04   -1.7218731E+00
   4.9699060E-04   6.0909461E+04   -1.7213044E+00
   4.9928575E-04   6.0428386E+04   -1.7207360E+00
   5.0159151E-04   5.9951267E+04   -1.7201679E+00
   5.0390791E-04   5.9478071E+04   -1.7196001E+00
   5.0623501E-04   5.9008765E+04   -1.7190327E+00
   5.0857286E-04   5.8543314E+04   -1.7184656E+00
   5.1092150E-04   5.8081687E+04   -1.7178987E+00
   5.1328099E-04   5.7623850E+04   -1.7173323E+00
   5.1565137E-04   5.7169772E+04   -1.7167661E+00
   5.1803270E-04   5.6719419E+04   -1.7162003E+00
   5.2042503E-04   5.6272761E+04   -1.7156349E+00
   5.2282841E-04   5.5829765E+04   -1.7150698E+00
   5.2524289E-04   5.5390401E+04   -1.7145051E+00
   5.2766851E-04   5.4954638E+04   -1.7139408E+00
   5.3010534E-04   5.4522444E+04   -1.7133768E+00
   5.3255342E-04   5.4093790E+04   -1.7128132E+00
   5.3501281E-04   5.3668646E+04   -1.7122500E+00
   5.3748356E-04   5.3246981E+04   -1.7116872E+00
   5.3996571E-04   5.2828766E+04   -1.7111247E+00
   5.4245933E-04   5.2413971E+04   -1.7105627E+00
   5.4496446E-04   5.2002568E+04   -1.7100011E+00
   5.4748117E-04   5.1594527E+04   -1.7094399E+00
   5.5000949E-04   5.1189821E+04   -1.7088791E+00
   5.5254949E-04   5.0788420E+04   -1.7083187E+00
   5.5510123E-04   5.0390297E+04   -1.7077588E+00
   5.5766474E-04   4.9995423E+04   -1.7071993E+00
   5.6024010E-04   4.9603772E+04   -1.7066402E+00
   5.6282734E-04   4.9215316E+04   -1.7060816E+00
   5.6542654E-04   4.8830027E+04   -1.7055234E+00
   5.6803774E-04   4.8447879E+04   -1.7049657E+00
   5.7066099E-04   4.8068845E+04   -1.7044085E+00
   5.7329637E-04   4.7692899E+04   -1.7038517E+00
   5.7594391E-04   4.7320015E+04   -1.7032954E+00
   5.7860368E-04   4.6950166E+04   -1.7027396E+00
   5.8127573E-04   4.6583327E+04   -1.7021842E+00
   5.8396012E-04   4.6219473E+04   -1.7016293E+00
   5.8665691E-04   4.5858578E+04   -1.7010750E+00
   5.8936616E-04   4.5500617E+04   -1.7005211E+00
   5.9208791E-04   4.5145565E+04   -1.6999677E+00
   5.9482223E-04   4.4793399E+04   -1.6994149E+00
   5.9756919E-04   4.4444092E+04   -1.6988625E+00
   6.0032882E-04   4.4097621E+04   -1.6983107E+00
   6.0310120E-04   4.3753963E+04   -1.6977594E+00
   6.0588639E-04   4.3413093E+04   -1.6972086E+00
   6.0868443E-04   4.3074988E+04   -1.6966584E+00
   6.1149540E-04   4.2739624E+04   -1.6961087E+00
   6.1431935E-04   4.2406979E+04   -1.6955595E+00
   6.1715634E-04   4.2077029E+04   -1.6950109E+00
   6.2000644E-04   4.1749752E+04   -1.6944628E+00
   6.2286969E-04   4.1425125E+04   -1.6939153E+00
