#        a       HoverH0(a)       dlogHdloga_of_a(a)
   1.0000000E-04   1.1038216E+06   -1.8740498E+00
   1.0046181E-04   1.0943326E+06   -1.8736152E+00
   1.0092575E-04   1.0849274E+06   -1.8731796E+00
   1.0139184E-04   1.0756052E+06   -1.8727429E+00
   1.0186008E-04   1.0663652E+06   -1.8723053E+00
   1.0233048E-04   1.0572067E+06   -1.8718667E+00
   1.0280305E-04   1.0481291E+06   -1.8714271E+00
   1.0327781E-04   1.0391314E+06   -1.8709866E+00
   1.0375475E-04   1.0302131E+06   -1.8705450E+00
   1.0423390E-04   1.0213734E+06   -1.8701025E+00
   1.0471527E-04   1.0126116E+06   -1.8696590E+00
   1.0519885E-04   1.0039271E+06   -1.8692145E+00
   1.0568467E-04   9.9531906E+05   -1.8687690E+00
   1.0617274E-04   9.8678686E+05   -1.8683225E+00
   1.0666305E-04   9.7832982E+05   -1.8678751E+00
   1.0715563E-04   9.6994726E+05   -1.8674267E+00
   1.0765049E-04   9.6163852E+05   -1.8669773E+00
   1.0814763E-04   9.5340292E+05   -1.8665270E+00
   1.0864707E-04   9.4523982E+05   -1.8660757E+00
   1.0914881E-04   9.3714856E+05   -1.8656234E+00
   1.0965287E-04   9.2912850E+05   -1.8651702E+00
   1.1015926E-04   9.2117900E+05   -1.8647160E+00
   1.1066799E-04   9.1329943E+05   -1.8642608E+00
   1.1117906E-04   9.0548916E+05   -1.8638047E+00
   1.1169250E-04   8.9774757E+05   -1.8633476E+00
   1.1220831E-04   8.9007405E+05   -1.8628896E+00
   1.1272650E-04   8.8246798E+05   -1.8624306E+00
   1.1324708E-04   8.7492875E+05   -1.8619706E+00
   1.1377007E-04   8.6745578E+05   -1.8615097E+00
   1.1429547E-04   8.6004847E+05   -1.8610479E+00
   1.1482330E-04   8.5270622E+05   -1.8605851E+00
   1.1535356E-04   8.4542846E+05   -1.8601214E+00
   1.1588628E-04   8.3821461E+05   -1.8596567E+00
   1.1642145E-04   8.3106409E+05   -1.8591911E+00
   1.1695910E-04   8.2397634E+05   -1.8587245E+00
   1.1749923E-04   8.1695080E+05   -1.8582570E+00
   1.1804185E-04   8.0998690E+05   -1.8577886E+00
   1.1858698E-04   8.0308410E+05   -1.8573193E+00
   1.1913463E-04   7.9624186E+05   -1.8568490E+00
   1.1968481E-04   7.8945961E+05   -1.8563778E+00
   1.2023752E-04   7.8273684E+05   -1.8559056E+00
   1.2079279E-04   7.7607302E+05   -1.8554326E+00
   1.2135063E-04   7.6946760E+05   -1.8549586E+00
   1.2191104E-04   7.6292007E+05   -1.8544837E+00
   1.2247403E-04   7.5642991E+05   -1.8540079E+00
   1.2303963E-04   7.4999661E+05   -1.8535312E+00
   1.2360784E-04   7.4361965E+05   -1.8530535E+00
   1.2417868E-04   7.3729855E+05   -1.8525750E+00
   1.2475215E-04   7.3103278E+05   -1.8520955E+00
   1.2532826E-04   7.2482187E+05   -1.8516152E+00
   1.2590704E-04   7.1866532E+05   -1.8511339E+00
   1.2648850E-04   7.1256264E+05   -1.8506518E+00
   1.2707263E-04   7.0651336E+05   -1.8501687E+00
   1.2765947E-04   7.0051699E+05   -1.8496848E+00
   1.2824901E-04   6.9457307E+05   -1.8492000E+00
   1.2884128E-04   6.8868112E+05   -1.8487142E+00
   1.2943628E-04   6.8284068E+05   -1.8482276E+00
   1.3003403E-04   6.7705129E+05   -1.8477401E+00
   1.3063454E-04   6.7131249E+05   -1.8472518E+00
   1.3123783E-04   6.6562383E+05   -1.8467625E+00
   1.3184390E-04   6.5998487E+05   -1.8462724E+00
   1.3245277E-04   6.5439516E+05   -1.8457814E+00
   1.3306445E-04   6.4885426E+05   -1.8452896E+00
   1.3367895E-04   6.4336174E+05   -1.8447969E+00
   1.3429630E-04   6.3791716E+05   -1.8443033E+00
   1.3491649E-04   6.3252009E+05   -1.8438089E+00
   1.3553955E-04   6.2717012E+05   -1.8433136E+00
   1.3616548E-04   6.2186682E+05   -1.8428174E+00
   1.3679431E-04   6.1660977E+05   -1.8423204E+00
   1.3742604E-04   6.1139857E+05   -1.8418226E+00
   1.3806069E-04   6.0623280E+05   -1.8413239E+00
   1.3869827E-04   6.0111206E+05   -1.8408244E+00
   1.3933879E-04   5.9603594E+05   -1.8403240E+00
   1.3998227E-04   5.9100406E+05   -1.8398228E+00
   1.4062872E-04   5.8601600E+05   -1.8393208E+00
   1.4127816E-04   5.8107140E+05   -1.8388180E+00
   1.4193060E-04   5.7616985E+05   -1.8383143E+00
   1.4258605E-04   5.7131097E+05   -1.8378098E+00
   1.4324453E-04   5.6649438E+05   -1.8373045E+00
   1.4390605E-04   5.6171971E+05   -1.8367983E+00
   1.4457062E-04   5.5698659E+05   -1.8362914E+00
   1.4523826E-04   5.5229464E+05   -1.8357837E+00
   1.4590899E-04   5.4764350E+05   -1.8352751E+00
   1.4658281E-04   5.4303279E+05   -1.8347658E+00
   1.4725974E-04   5.3846218E+05   -1.8342556E+00
   1.4793981E-04   5.3393128E+05   -1.8337447E+00
   1.4862301E-04   5.2943976E+05   -1.8332329E+00
   1.4930936E-04   5.2498726E+05   -1.8327204E+00
   1.4999889E-04   5.2057344E+05   -1.8322071E+00
   1.5069160E-04   5.1619795E+05   -1.8316931E+00
   1.5138751E-04   5.1186044E+05   -1.8311782E+00
   1.5208663E-04   5.0756059E+05   -1.8306626E+00
   1.5278899E-04   5.0329806E+05   -1.8301462E+00
   1.5349458E-04   4.9907251E+05   -1.8296290E+00
   1.5420343E-04   4.9488362E+05   -1.8291111E+00
   1.5491556E-04   4.9073106E+05   -1.8285925E+00
   1.5563098E-04   4.8661451E+05   -1.8280730E+00
   1.5634970E-04   4.8253364E+05   -1.8275529E+00
   1.5707174E-04   4.7848815E+05   -1.8270320E+00
   1.5779711E-04   4.7447771E+05   -1.8265103E+00
   1.5852584E-04   4.7050201E+05   -1.8259879E+00
   1.5925792E-04   4.6656076E+05   -1.8254648E+00
   1.5999339E-04   4.6265363E+05   -1.8249410E+00
   1.6073226E-04   4.5878033E+05   -1.8244164E+00
   1.6147454E-04   4.5494056E+05   -1.8238911E+00
   1.6222024E-04   4.5113402E+05   -1.8233651E+00
   1.6296939E-04   4.4736041E+05   -1.8228384E+00
   1.6372200E-04   4.4361945E+05   -1.8223109E+00
   1.6447809E-04   4.3991084E+05   -1.8217828E+00
   1.6523767E-04   4.3623429E+05   -1.8212540E+00
   1.6600075E-04   4.3258953E+05   -1.8207244E+00
   1.6676736E-04   4.2897626E+05   -1.8201942E+00
   1.6753751E-04   4.2539422E+05   -1.8196633E+00
   1.6831122E-04   4.2184312E+05   -1.8191317E+00
   1.6908849E-04   4.1832269E+05   -1.8185995E+00
   1.6986936E-04   4.1483265E+05   -1.8180665E+00
   1.7065384E-04   4.1137274E+05   -1.8175329E+00
   1.7144193E-04   4.0794270E+05   -1.8169986E+00
   1.7223367E-04   4.0454225E+05   -1.8164637E+00
   1.7302906E-04   4.0117113E+05   -1.8159281E+00
   1.7382813E-04   3.9782909E+05   -1.8153919E+00
   1.7463089E-04   3.9451587E+05   -1.8148550E+00
   1.7543735E-04   3.9123121E+05   -1.8143175E+00
   1.7624754E-04   3.8797485E+05   -1.8137793E+00
   1.7706147E-04   3.8474656E+05   -1.8132405E+00
   1.7787916E-04   3.8154607E+05   -1.8127011E+00
   1.7870062E-04   3.7837315E+05   -1.8121610E+00
   1.7952588E-04   3.7522755E+05   -1.8116203E+00
   1.8035495E-04   3.7210903E+05   -1.8110791E+00
   1.8118785E-04   3.6901734E+05   -1.8105372E+00
   1.8202459E-04   3.6595226E+05   -1.8099947E+00
   1.8286520E-04   3.6291354E+05   -1.8094516E+00
   1.8370969E-04   3.5990096E+05   -1.8089079E+00
   1.8455808E-04   3.5691428E+05   -1.8083636E+00
   1.8541039E-04   3.5395328E+05   -1.8078187E+00
   1.8626663E-04   3.5101772E+05   -1.8072732E+00
   1.8712683E-04   3.4810738E+05   -1.8067272E+00
   1.8799100E-04   3.4522204E+05   -1.8061806E+00
   1.8885917E-04   3.4236148E+05   -1.8056334E+00
   1.8973134E-04   3.3952548E+05   -1.8050857E+00
   1.9060754E-04   3.3671382E+05   -1.8045374E+00
   1.9148778E-04   3.3392628E+05   -1.8039886E+00
   1.9237209E-04   3.3116267E+05   -1.8034392E+00
   1.9326049E-04   3.2842275E+05   -1.8028892E+00
   1.9415299E-04   3.2570634E+05   -1.8023388E+00
   1.9504960E-04   3.2301321E+05   -1.8017878E+00
   1.9595036E-04   3.2034316E+05   -1.8012363E+00
   1.9685528E-04   3.1769599E+05   -1.8006842E+00
   1.9776438E-04   3.1507149E+05   -1.8001317E+00
   1.9867768E-04   3.1246948E+05   -1.7995786E+00
   1.9959519E-04   3.0988974E+05   -1.7990250E+00
   2.0051694E-04   3.0733209E+05   -1.7984709E+00
   2.0144295E-04   3.0479632E+05   -1.7979164E+00
   2.0237324E-04   3.0228225E+05   -1.7973613E+00
   2.0330782E-04   2.9978968E+05   -1.7968057E+00
   2.0424671E-04   2.9731842E+05   -1.7962497E+00
   2.0518995E-04   2.9486830E+05   -1.7956932E+00
   2.0613754E-04   2.9243911E+05   -1.7951362E+00
   2.0708950E-04   2.9003068E+05   -1.7945788E+00
   2.0804586E-04   2.8764283E+05   -1.7940209E+00
   2.0900664E-04   2.8527537E+05   -1.7934625E+00
   2.0997185E-04   2.8292812E+05   -1.7929038E+00
   2.1094152E-04   2.8060091E+05   -1.7923445E+00
   2.1191567E-04   2.7829356E+05   -1.7917848E+00
   2.1289432E-04   2.7600589E+05   -1.7912247E+00
   2.1387749E-04   2.7373773E+05   -1.7906642E+00
   2.1486520E-04   2.7148892E+05   -1.7901032E+00
   2.1585747E-04   2.6925927E+05   -1.7895419E+00
   2.1685432E-04   2.6704863E+05   -1.7889801E+00
   2.1785578E-04   2.6485683E+05   -1.7884179E+00
   2.1886186E-04   2.6268369E+05   -1.7878553E+00
   2.1987259E-04   2.6052906E+05   -1.7872924E+00
   2.2088798E-04   2.5839277E+05   -1.7867290E+00
   2.2190807E-04   2.5627467E+05   -1.7861653E+00
   2.2293286E-04   2.5417459E+05   -1.7856011E+00
   2.2396239E-04   2.5209237E+05   -1.7850366E+00
   2.2499667E-04   2.5002786E+05   -1.7844718E+00
   2.2603573E-04   2.4798091E+05   -1.7839066E+00
   2.2707958E-04   2.4595135E+05   -1.7833410E+00
   2.2812826E-04   2.4393904E+05   -1.7827751E+00
   2.2918178E-04   2.4194383E+05   -1.7822088E+00
   2.3024017E-04   2.3996556E+05   -1.7816422E+00
   2.3130344E-04   2.3800409E+05   -1.7810753E+00
   2.3237162E-04   2.3605926E+05   -1.7805081E+00
   2.3344474E-04   2.3413095E+05   -1.7799405E+00
   2.3452281E-04   2.3221899E+05   -1.7793726E+00
   2.3560586E-04   2.3032324E+05   -1.7788044E+00
   2.3669392E-04   2.2844358E+05   -1.7782359E+00
   2.3778699E-04   2.2657984E+05   -1.7776671E+00
   2.3888512E-04   2.2473190E+05   -1.7770980E+00
   2.3998831E-04   2.2289962E+05   -1.7765287E+00
   2.4109661E-04   2.2108285E+05   -1.7759590E+00
   2.4221001E-04   2.1928147E+05   -1.7753891E+00
   2.4332857E-04   2.1749533E+05   -1.7748189E+00
   2.4445228E-04   2.1572432E+05   -1.7742485E+00
   2.4558119E-04   2.1396828E+05   -1.7736778E+00
   2.4671531E-04   2.1222710E+05   -1.7731068E+00
   2.4785467E-04   2.1050064E+05   -1.7725356E+00
   2.4899928E-04   2.0878878E+05   -1.7719642E+00
   2.5014919E-04   2.0709138E+05   -1.7713925E+00
   2.5130440E-04   2.0540832E+05   -1.7708207E+00
   2.5246495E-04   2.0373948E+05   -1.7702485E+00
   2.5363086E-04   2.0208473E+05   -1.7696762E+00
   2.5480216E-04   2.0044395E+05   -1.7691037E+00
   2.5597886E-04   1.9881702E+05   -1.7685310E+00
   2.5716100E-04   1.9720381E+05   -1.7679580E+00
   2.5834859E-04   1.9560420E+05   -1.7673849E+00
   2.5954168E-04   1.9401809E+05   -1.7668116E+00
   2.6074027E-04   1.9244534E+05   -1.7662381E+00
   2.6194439E-04   1.9088585E+05   -1.7656645E+00
   2.6315408E-04   1.8933949E+05   -1.7650906E+00
   2.6436935E-04   1.8780616E+05   -1.7645167E+00
   2.6559024E-04   1.8628574E+05   -1.7639425E+00
   2.6681676E-04   1.8477812E+05   -1.7633682E+00
   2.6804895E-04   1.8328318E+05   -1.7627938E+00
   2.6928683E-04   1.8180082E+05   -1.7622193E+00
   2.7053042E-04   1.8033092E+05   -1.7616446E+00
   2.7177976E-04   1.7887339E+05   -1.7610698E+00
   2.7303487E-04   1.7742810E+05   -1.7604948E+00
   2.7429577E-04   1.7599496E+05   -1.7599198E+00
   2.7556250E-04   1.7457386E+05   -1.7593446E+00
   2.7683507E-04   1.7316469E+05   -1.7587694E+00
   2.7811353E-04   1.7176735E+05   -1.7581940E+00
   2.7939788E-04   1.7038173E+05   -1.7576186E+00
   2.8068817E-04   1.6900775E+05   -1.7570431E+00
   2.8198442E-04   1.6764529E+05   -1.7564675E+00
   2.8328665E-04   1.6629425E+05   -1.7558919E+00
   2.8459490E-04   1.6495454E+05   -1.7553161E+00
   2.8590919E-04   1.6362605E+05   -1.7547404E+00
   2.8722955E-04   1.6230870E+05   -1.7541645E+00
   2.8855600E-04   1.6100238E+05   -1.7535887E+00
   2.8988859E-04   1.5970699E+05   -1.7530128E+00
   2.9122732E-04   1.5842245E+05   -1.7524368E+00
   2.9257224E-04   1.5714866E+05   -1.7518608E+00
   2.9392337E-04   1.5588552E+05   -1.7512849E+00
   2.9528074E-04   1.5463295E+05   -1.7507088E+00
   2.9664438E-04   1.5339084E+05   -1.7501328E+00
   2.9801431E-04   1.5215912E+05   -1.7495568E+00
   2.9939057E-04   1.5093769E+05   -1.7489808E+00
   3.0077319E-04   1.4972647E+05   -1.7484048E+00
   3.0216219E-04   1.4852535E+05   -1.7478288E+00
   3.0355761E-04   1.4733427E+05   -1.7472529E+00
   3.0495947E-04   1.4615312E+05   -1.7466769E+00
   3.0636780E-04   1.4498182E+05   -1.7461010E+00
   3.0778264E-04   1.4382030E+05   -1.7455252E+00
   3.0920401E-04   1.4266846E+05   -1.7449494E+00
   3.1063195E-04   1.4152622E+05   -1.7443736E+00
   3.1206648E-04   1.4039349E+05   -1.7437979E+00
   3.1350764E-04   1.3927021E+05   -1.7432223E+00
   3.1495545E-04   1.3815627E+05   -1.7426467E+00
   3.1640994E-04   1.3705161E+05   -1.7420713E+00
   3.1787116E-04   1.3595614E+05   -1.7414959E+00
   3.1933912E-04   1.3486979E+05   -1.7409205E+00
   3.2081386E-04   1.3379247E+05   -1.7403453E+00
   3.2229541E-04   1.3272411E+05   -1.7397702E+00
   3.2378381E-04   1.3166463E+05   -1.7391952E+00
   3.2527908E-04   1.3061395E+05   -1.7386203E+00
   3.2678125E-04   1.2957200E+05   -1.7380456E+00
   3.2829036E-04   1.2853870E+05   -1.7374709E+00
   3.2980644E-04   1.2751398E+05   -1.7368964E+00
   3.3132952E-04   1.2649776E+05   -1.7363220E+00
   3.3285963E-04   1.2548997E+05   -1.7357478E+00
   3.3439681E-04   1.2449054E+05   -1.7351737E+00
   3.3594109E-04   1.2349940E+05   -1.7345998E+00
   3.3749250E-04   1.2251648E+05   -1.7340260E+00
   3.3905108E-04   1.2154169E+05   -1.7334524E+00
   3.4061685E-04   1.2057499E+05   -1.7328790E+00
   3.4218986E-04   1.1961628E+05   -1.7323058E+00
   3.4377013E-04   1.1866552E+05   -1.7317327E+00
   3.4535769E-04   1.1772262E+05   -1.7311599E+00
   3.4695259E-04   1.1678752E+05   -1.7305872E+00
   3.4855485E-04   1.1586015E+05   -1.7300147E+00
   3.5016452E-04   1.1494045E+05   -1.7294425E+00
   3.5178161E-04   1.1402836E+05   -1.7288705E+00
   3.5340618E-04   1.1312379E+05   -1.7282987E+00
   3.5503824E-04   1.1222670E+05   -1.7277271E+00
   3.5667785E-04   1.1133702E+05   -1.7271557E+00
   3.5832502E-04   1.1045468E+05   -1.7265846E+00
   3.5997981E-04   1.0957962E+05   -1.7260138E+00
   3.6164223E-04   1.0871178E+05   -1.7254431E+00
   3.6331233E-04   1.0785110E+05   -1.7248728E+00
   3.6499015E-04   1.0699751E+05   -1.7243027E+00
   3.6667571E-04   1.0615096E+05   -1.7237329E+00
   3.6836906E-04   1.0531138E+05   -1.7231633E+00
   3.7007022E-04   1.0447871E+05   -1.7225941E+00
   3.7177925E-04   1.0365290E+05   -1.7220251E+00
   3.7349616E-04   1.0283389E+05   -1.7214564E+00
   3.7522101E-04   1.0202162E+05   -1.7208880E+00
   3.7695382E-04   1.0121602E+05   -1.7203199E+00
   3.7869463E-04   1.0041705E+05   -1.7197522E+00
   3.8044348E-04   9.9624653E+04   -1.7191847E+00
   3.8220041E-04   9.8838763E+04   -1.7186176E+00
   3.8396545E-04   9.8059328E+04   -1.7180508E+00
   3.8573864E-04   9.7286294E+04   -1.7174843E+00
   3.8752002E-04   9.6519606E+04   -1.7169182E+00
   3.8930963E-04   9.5759210E+04   -1.7163524E+00
   3.9110750E-04   9.5005051E+04   -1.7157869E+00
   3.9291368E-04   9.4257078E+04   -1.7152218E+00
   3.9472820E-04   9.3515237E+04   -1.7146571E+00
   3.9655109E-04   9.2779475E+04   -1.7140927E+00
   3.9838241E-04   9.2049742E+04   -1.7135288E+00
   4.0022218E-04   9.1325985E+04   -1.7129652E+00
   4.0207045E-04   9.0608155E+04   -1.7124019E+00
   4.0392725E-04   8.9896200E+04   -1.7118391E+00
   4.0579263E-04   8.9190070E+04   -1.7112767E+00
   4.0766662E-04   8.8489716E+04   -1.7107146E+00
   4.0954927E-04   8.7795089E+04   -1.7101530E+00
   4.1144061E-04   8.7106140E+04   -1.7095918E+00
   4.1334068E-04   8.6422821E+04   -1.7090310E+00
   4.1524953E-04   8.5745083E+04   -1.7084706E+00
   4.1716720E-04   8.5072880E+04   -1.7079106E+00
   4.1909372E-04   8.4406164E+04   -1.7073511E+00
   4.2102914E-04   8.3744889E+04   -1.7067920E+00
   4.2297350E-04   8.3089009E+04   -1.7062334E+00
   4.2492683E-04   8.2438478E+04   -1.7056752E+00
   4.2688919E-04   8.1793250E+04   -1.7051174E+00
   4.2886061E-04   8.1153281E+04   -1.7045602E+00
   4.3084113E-04   8.0518526E+04   -1.7040034E+00
   4.3283080E-04   7.9888940E+04   -1.7034470E+00
   4.3482966E-04   7.9264481E+04   -1.7028912E+00
   4.3683775E-04   7.8645104E+04   -1.7023358E+00
   4.3885511E-04   7.8030766E+04   -1.7017809E+00
   4.4088179E-04   7.7421425E+04   -1.7012265E+00
   4.4291783E-04   7.6817038E+04   -1.7006726E+00
   4.4496327E-04   7.6217564E+04   -1.7001192E+00
   4.4701816E-04   7.5622961E+04   -1.6995663E+00
   4.4908253E-04   7.5033188E+04   -1.6990139E+00
   4.5115644E-04   7.4448203E+04   -1.6984621E+00
   4.5323993E-04   7.3867968E+04   -1.6979107E+00
   4.5533304E-04   7.3292440E+04   -1.6973599E+00
   4.5743582E-04   7.2721582E+04   -1.6968096E+00
   4.5954830E-04   7.2155352E+04   -1.6962599E+00
   4.6167054E-04   7.1593712E+04   -1.6957107E+00
   4.6380259E-04   7.1036624E+04   -1.6951620E+00
   4.6594448E-04   7.0484049E+04   -1.6946139E+00
   4.6809626E-04   6.9935948E+04   -1.6940664E+00
   4.7025797E-04   6.9392285E+04   -1.6935194E+00
   4.7242967E-04   6.8853021E+04   -1.6929730E+00
   4.7461140E-04   6.8318120E+04   -1.6924272E+00
   4.7680321E-04   6.7787545E+04   -1.6918819E+00
   4.7900514E-04   6.7261259E+04   -1.6913373E+00
   4.8121723E-04   6.6739227E+04   -1.6907932E+00
   4.8343954E-04   6.6221412E+04   -1.6902497E+00
   4.8567212E-04   6.5707779E+04   -1.6897068E+00
   4.8791500E-04   6.5198293E+04   -1.6891645E+00
   4.9016825E-04   6.4692920E+04   -1.6886228E+00
   4.9243189E-04   6.4191623E+04   -1.6880817E+00
   4.9470600E-04   6.3694370E+04   -1.6875413E+00
   4.9699060E-04   6.3201126E+04   -1.6870014E+00
   4.9928575E-04   6.2711857E+04   -1.6864622E+00
   5.0159151E-04   6.2226531E+04   -1.6859236E+00
   5.0390791E-04   6.1745114E+04   -1.6853857E+00
   5.0623501E-04   6.1267573E+04   -1.6848484E+00
   5.0857286E-04   6.0793875E+04   -1.6843117E+00
   5.1092150E-04   6.0323990E+04   -1.6837757E+00
   5.1328099E-04   5.9857884E+04   -1.6832403E+00
   5.1565137E-04   5.9395525E+04   -1.6827056E+00
   5.1803270E-04   5.8936884E+04   -1.6821716E+00
   5.2042503E-04   5.8481927E+04   -1.6816382E+00
   5.2282841E-04   5.8030625E+04   -1.6811055E+00
   5.2524289E-04   5.7582947E+04   -1.6805735E+00
   5.2766851E-04   5.7138863E+04   -1.6800421E+00
   5.3010534E-04   5.6698342E+04   -1.6795114E+00
   5.3255342E-04   5.6261355E+04   -1.6789814E+00
   5.3501281E-04   5.5827872E+04   -1.6784522E+00
   5.3748356E-04   5.5397864E+04   -1.6779236E+00
   5.3996571E-04   5.4971302E+04   -1.6773957E+00
   5.4245933E-04   5.4548156E+04   -1.6768685E+00
   5.4496446E-04   5.4128400E+04   -1.6763420E+00
   5.4748117E-04   5.3712004E+04   -1.6758162E+00
   5.5000949E-04   5.3298940E+04   -1.6752912E+00
   5.5254949E-04   5.2889181E+04   -1.6747668E+00
   5.5510123E-04   5.2482698E+04   -1.6742432E+00
   5.5766474E-04   5.2079465E+04   -1.6737204E+00
   5.6024010E-04   5.1679455E+04   -1.6731982E+00
   5.6282734E-04   5.1282640E+04   -1.6726768E+00
   5.6542654E-04   5.0888994E+04   -1.6721562E+00
   5.6803774E-04   5.0498491E+04   -1.6716362E+00
   5.7066099E-04   5.0111105E+04   -1.6711171E+00
   5.7329637E-04   4.9726809E+04   -1.6705987E+00
   5.7594391E-04   4.9345578E+04   -1.6700810E+00
   5.7860368E-04   4.8967386E+04   -1.6695641E+00
   5.8127573E-04   4.8592209E+04   -1.6690480E+00
   5.8396012E-04   4.8220021E+04   -1.6685326E+00
   5.8665691E-04   4.7850797E+04   -1.6680180E+00
   5.8936616E-04   4.7484512E+04   -1.6675042E+00
   5.9208791E-04   4.7121143E+04   -1.6669912E+00
   5.9482223E-04   4.6760665E+04   -1.6664789E+00
   5.9756919E-04   4.6403054E+04   -1.6659674E+00
   6.0032882E-04   4.6048287E+04   -1.6654568E+00
   6.0310120E-04   4.5696339E+04   -1.6649469E+00
   6.0588639E-04   4.5347188E+04   -1.6644378E+00
   6.0868443E-04   4.5000809E+04   -1.6639295E+00
   6.1149540E-04   4.4657181E+04   -1.6634220E+00
   6.1431935E-04   4.4316281E+04   -1.6629153E+00
   6.1715634E-04   4.3978086E+04   -1.6624095E+00
   6.2000644E-04   4.3642573E+04   -1.6619044E+00
   6.2286969E-04   4.3309720E+04   -1.6614002E+00
