#        a       HoverH0(a)       dlogHdloga_of_a(a)
   1.0000000E-04   1.1766572E+06   -1.8905057E+00
   1.0046181E-04   1.1664535E+06   -1.8901112E+00
   1.0092575E-04   1.1563405E+06   -1.8897156E+00
   1.0139184E-04   1.1463172E+06   -1.8893190E+00
   1.0186008E-04   1.1363828E+06   -1.8889214E+00
   1.0233048E-04   1.1265367E+06   -1.8885228E+00
   1.0280305E-04   1.1167779E+06   -1.8881232E+00
   1.0327781E-04   1.1071056E+06   -1.8877225E+00
   1.0375475E-04   1.0975192E+06   -1.8873209E+00
   1.0423390E-04   1.0880178E+06   -1.8869182E+00
   1.0471527E-04   1.0786007E+06   -1.8865145E+00
   1.0519885E-04   1.0692670E+06   -1.8861097E+00
   1.0568467E-04   1.0600161E+06   -1.8857040E+00
   1.0617274E-04   1.0508472E+06   -1.8852972E+00
   1.0666305E-04   1.0417596E+06   -1.8848895E+00
   1.0715563E-04   1.0327525E+06   -1.8844807E+00
   1.0765049E-04   1.0238252E+06   -1.8840709E+00
   1.0814763E-04   1.0149770E+06   -1.8836600E+00
   1.0864707E-04   1.0062072E+06   -1.8832482E+00
   1.0914881E-04   9.9751502E+05   -1.8828354E+00
   1.0965287E-04   9.8889984E+05   -1.8824215E+00
   1.1015926E-04   9.8036093E+05   -1.8820066E+00
   1.1066799E-04   9.7189761E+05   -1.8815908E+00
   1.1117906E-04   9.6350920E+05   -1.8811739E+00
   1.1169250E-04   9.5519503E+05   -1.8807560E+00
   1.1220831E-04   9.4695443E+05   -1.8803371E+00
   1.1272650E-04   9.3878673E+05   -1.8799172E+00
   1.1324708E-04   9.3069129E+05   -1.8794962E+00
   1.1377007E-04   9.2266744E+05   -1.8790743E+00
   1.1429547E-04   9.1471456E+05   -1.8786514E+00
   1.1482330E-04   9.0683200E+05   -1.8782274E+00
   1.1535356E-04   8.9901912E+05   -1.8778025E+00
   1.1588628E-04   8.9127529E+05   -1.8773766E+00
   1.1642145E-04   8.8359991E+05   -1.8769496E+00
   1.1695910E-04   8.7599235E+05   -1.8765217E+00
   1.1749923E-04   8.6845201E+05   -1.8760927E+00
   1.1804185E-04   8.6097827E+05   -1.8756628E+00
   1.1858698E-04   8.5357054E+05   -1.8752319E+00
   1.1913463E-04   8.4622823E+05   -1.8747999E+00
   1.1968481E-04   8.3895075E+05   -1.8743670E+00
   1.2023752E-04   8.3173752E+05   -1.8739331E+00
   1.2079279E-04   8.2458795E+05   -1.8734982E+00
   1.2135063E-04   8.1750149E+05   -1.8730623E+00
   1.2191104E-04   8.1047755E+05   -1.8726254E+00
   1.2247403E-04   8.0351559E+05   -1.8721875E+00
   1.2303963E-04   7.9661503E+05   -1.8717486E+00
   1.2360784E-04   7.8977534E+05   -1.8713088E+00
   1.2417868E-04   7.8299595E+05   -1.8708679E+00
   1.2475215E-04   7.7627634E+05   -1.8704261E+00
   1.2532826E-04   7.6961597E+05   -1.8699833E+00
   1.2590704E-04   7.6301430E+05   -1.8695395E+00
   1.2648850E-04   7.5647081E+05   -1.8690947E+00
   1.2707263E-04   7.4998497E+05   -1.8686490E+00
   1.2765947E-04   7.4355626E+05   -1.8682023E+00
   1.2824901E-04   7.3718419E+05   -1.8677546E+00
   1.2884128E-04   7.3086823E+05   -1.8673059E+00
   1.2943628E-04   7.2460788E+05   -1.8668563E+00
   1.3003403E-04   7.1840265E+05   -1.8664057E+00
   1.3063454E-04   7.1225203E+05   -1.8659541E+00
   1.3123783E-04   7.0615555E+05   -1.8655015E+00
   1.3184390E-04   7.0011271E+05   -1.8650480E+00
   1.3245277E-04   6.9412303E+05   -1.8645936E+00
   1.3306445E-04   6.8818603E+05   -1.8641381E+00
   1.3367895E-04   6.8230125E+05   -1.8636817E+00
   1.3429630E-04   6.7646822E+05   -1.8632244E+00
   1.3491649E-04   6.7068647E+05   -1.8627661E+00
   1.3553955E-04   6.6495554E+05   -1.8623068E+00
   1.3616548E-04   6.5927497E+05   -1.8618466E+00
   1.3679431E-04   6.5364433E+05   -1.8613855E+00
   1.3742604E-04   6.4806315E+05   -1.8609234E+00
   1.3806069E-04   6.4253099E+05   -1.8604603E+00
   1.3869827E-04   6.3704742E+05   -1.8599963E+00
   1.3933879E-04   6.3161200E+05   -1.8595314E+00
   1.3998227E-04   6.2622430E+05   -1.8590655E+00
   1.4062872E-04   6.2088389E+05   -1.8585987E+00
   1.4127816E-04   6.1559035E+05   -1.8581310E+00
   1.4193060E-04   6.1034326E+05   -1.8576623E+00
   1.4258605E-04   6.0514220E+05   -1.8571927E+00
   1.4324453E-04   5.9998676E+05   -1.8567221E+00
   1.4390605E-04   5.9487653E+05   -1.8562506E+00
   1.4457062E-04   5.8981111E+05   -1.8557783E+00
   1.4523826E-04   5.8479010E+05   -1.8553049E+00
   1.4590899E-04   5.7981309E+05   -1.8548307E+00
   1.4658281E-04   5.7487970E+05   -1.8543556E+00
   1.4725974E-04   5.6998954E+05   -1.8538795E+00
   1.4793981E-04   5.6514221E+05   -1.8534025E+00
   1.4862301E-04   5.6033734E+05   -1.8529246E+00
   1.4930936E-04   5.5557455E+05   -1.8524458E+00
   1.4999889E-04   5.5085346E+05   -1.8519661E+00
   1.5069160E-04   5.4617369E+05   -1.8514855E+00
   1.5138751E-04   5.4153488E+05   -1.8510040E+00
   1.5208663E-04   5.3693665E+05   -1.8505216E+00
   1.5278899E-04   5.3237866E+05   -1.8500383E+00
   1.5349458E-04   5.2786054E+05   -1.8495541E+00
   1.5420343E-04   5.2338193E+05   -1.8490690E+00
   1.5491556E-04   5.1894248E+05   -1.8485831E+00
   1.5563098E-04   5.1454184E+05   -1.8480962E+00
   1.5634970E-04   5.1017966E+05   -1.8476085E+00
   1.5707174E-04   5.0585560E+05   -1.8471199E+00
   1.5779711E-04   5.0156933E+05   -1.8466304E+00
   1.5852584E-04   4.9732049E+05   -1.8461400E+00
   1.5925792E-04   4.9310876E+05   -1.8456488E+00
   1.5999339E-04   4.8893380E+05   -1.8451567E+00
   1.6073226E-04   4.8479529E+05   -1.8446638E+00
   1.6147454E-04   4.8069291E+05   -1.8441699E+00
   1.6222024E-04   4.7662632E+05   -1.8436753E+00
   1.6296939E-04   4.7259522E+05   -1.8431797E+00
   1.6372200E-04   4.6859928E+05   -1.8426834E+00
   1.6447809E-04   4.6463819E+05   -1.8421861E+00
   1.6523767E-04   4.6071165E+05   -1.8416880E+00
   1.6600075E-04   4.5681933E+05   -1.8411891E+00
   1.6676736E-04   4.5296094E+05   -1.8406894E+00
   1.6753751E-04   4.4913617E+05   -1.8401888E+00
   1.6831122E-04   4.4534473E+05   -1.8396873E+00
   1.6908849E-04   4.4158631E+05   -1.8391851E+00
   1.6986936E-04   4.3786063E+05   -1.8386820E+00
   1.7065384E-04   4.3416738E+05   -1.8381781E+00
   1.7144193E-04   4.3050629E+05   -1.8376733E+00
   1.7223367E-04   4.2687707E+05   -1.8371678E+00
   1.7302906E-04   4.2327942E+05   -1.8366614E+00
   1.7382813E-04   4.1971308E+05   -1.8361543E+00
   1.7463089E-04   4.1617776E+05   -1.8356463E+00
   1.7543735E-04   4.1267318E+05   -1.8351375E+00
   1.7624754E-04   4.0919908E+05   -1.8346279E+00
   1.7706147E-04   4.0575517E+05   -1.8341176E+00
   1.7787916E-04   4.0234120E+05   -1.8336064E+00
   1.7870062E-04   3.9895689E+05   -1.8330945E+00
   1.7952588E-04   3.9560198E+05   -1.8325817E+00
   1.8035495E-04   3.9227622E+05   -1.8320682E+00
   1.8118785E-04   3.8897933E+05   -1.8315539E+00
   1.8202459E-04   3.8571106E+05   -1.8310388E+00
   1.8286520E-04   3.8247117E+05   -1.8305230E+00
   1.8370969E-04   3.7925939E+05   -1.8300064E+00
   1.8455808E-04   3.7607548E+05   -1.8294890E+00
   1.8541039E-04   3.7291919E+05   -1.8289709E+00
   1.8626663E-04   3.6979027E+05   -1.8284520E+00
   1.8712683E-04   3.6668848E+05   -1.8279324E+00
   1.8799100E-04   3.6361357E+05   -1.8274120E+00
   1.8885917E-04   3.6056532E+05   -1.8268909E+00
   1.8973134E-04   3.5754349E+05   -1.8263690E+00
   1.9060754E-04   3.5454783E+05   -1.8258464E+00
   1.9148778E-04   3.5157811E+05   -1.8253231E+00
   1.9237209E-04   3.4863411E+05   -1.8247990E+00
   1.9326049E-04   3.4571560E+05   -1.8242742E+00
   1.9415299E-04   3.4282236E+05   -1.8237487E+00
   1.9504960E-04   3.3995414E+05   -1.8232225E+00
   1.9595036E-04   3.3711075E+05   -1.8226956E+00
   1.9685528E-04   3.3429194E+05   -1.8221679E+00
   1.9776438E-04   3.3149752E+05   -1.8216396E+00
   1.9867768E-04   3.2872725E+05   -1.8211106E+00
   1.9959519E-04   3.2598093E+05   -1.8205808E+00
   2.0051694E-04   3.2325834E+05   -1.8200504E+00
   2.0144295E-04   3.2055928E+05   -1.8195193E+00
   2.0237324E-04   3.1788353E+05   -1.8189875E+00
   2.0330782E-04   3.1523089E+05   -1.8184551E+00
   2.0424671E-04   3.1260115E+05   -1.8179219E+00
   2.0518995E-04   3.0999411E+05   -1.8173881E+00
   2.0613754E-04   3.0740956E+05   -1.8168537E+00
   2.0708950E-04   3.0484732E+05   -1.8163185E+00
   2.0804586E-04   3.0230719E+05   -1.8157828E+00
   2.0900664E-04   2.9978895E+05   -1.8152463E+00
   2.0997185E-04   2.9729243E+05   -1.8147092E+00
   2.1094152E-04   2.9481743E+05   -1.8141715E+00
   2.1191567E-04   2.9236376E+05   -1.8136332E+00
   2.1289432E-04   2.8993123E+05   -1.8130942E+00
   2.1387749E-04   2.8751965E+05   -1.8125546E+00
   2.1486520E-04   2.8512884E+05   -1.8120143E+00
   2.1585747E-04   2.8275862E+05   -1.8114735E+00
   2.1685432E-04   2.8040880E+05   -1.8109320E+00
   2.1785578E-04   2.7807920E+05   -1.8103899E+00
   2.1886186E-04   2.7576964E+05   -1.8098473E+00
   2.1987259E-04   2.7347995E+05   -1.8093040E+00
   2.2088798E-04   2.7120995E+05   -1.8087601E+00
   2.2190807E-04   2.6895946E+05   -1.8082156E+00
   2.2293286E-04   2.6672832E+05   -1.8076706E+00
   2.2396239E-04   2.6451636E+05   -1.8071249E+00
   2.2499667E-04   2.6232339E+05   -1.8065787E+00
   2.2603573E-04   2.6014926E+05   -1.8060320E+00
   2.2707958E-04   2.5799381E+05   -1.8054846E+00
   2.2812826E-04   2.5585685E+05   -1.8049367E+00
   2.2918178E-04   2.5373824E+05   -1.8043883E+00
   2.3024017E-04   2.5163780E+05   -1.8038393E+00
   2.3130344E-04   2.4955539E+05   -1.8032897E+00
   2.3237162E-04   2.4749083E+05   -1.8027396E+00
   2.3344474E-04   2.4544398E+05   -1.8021890E+00
   2.3452281E-04   2.4341468E+05   -1.8016378E+00
   2.3560586E-04   2.4140276E+05   -1.8010861E+00
   2.3669392E-04   2.3940808E+05   -1.8005339E+00
   2.3778699E-04   2.3743049E+05   -1.7999812E+00
   2.3888512E-04   2.3546984E+05   -1.7994280E+00
   2.3998831E-04   2.3352597E+05   -1.7988743E+00
   2.4109661E-04   2.3159874E+05   -1.7983200E+00
   2.4221001E-04   2.2968800E+05   -1.7977653E+00
   2.4332857E-04   2.2779361E+05   -1.7972101E+00
   2.4445228E-04   2.2591542E+05   -1.7966544E+00
   2.4558119E-04   2.2405329E+05   -1.7960982E+00
   2.4671531E-04   2.2220707E+05   -1.7955415E+00
   2.4785467E-04   2.2037664E+05   -1.7949844E+00
   2.4899928E-04   2.1856185E+05   -1.7944268E+00
   2.5014919E-04   2.1676256E+05   -1.7938688E+00
   2.5130440E-04   2.1497863E+05   -1.7933103E+00
   2.5246495E-04   2.1320993E+05   -1.7927514E+00
   2.5363086E-04   2.1145633E+05   -1.7921920E+00
   2.5480216E-04   2.0971770E+05   -1.7916322E+00
   2.5597886E-04   2.0799389E+05   -1.7910719E+00
   2.5716100E-04   2.0628479E+05   -1.7905113E+00
   2.5834859E-04   2.0459026E+05   -1.7899502E+00
   2.5954168E-04   2.0291018E+05   -1.7893887E+00
   2.6074027E-04   2.0124441E+05   -1.7888268E+00
   2.6194439E-04   1.9959283E+05   -1.7882644E+00
   2.6315408E-04   1.9795532E+05   -1.7877017E+00
   2.6436935E-04   1.9633176E+05   -1.7871386E+00
   2.6559024E-04   1.9472202E+05   -1.7865751E+00
   2.6681676E-04   1.9312597E+05   -1.7860113E+00
   2.6804895E-04   1.9154351E+05   -1.7854470E+00
   2.6928683E-04   1.8997451E+05   -1.7848824E+00
   2.7053042E-04   1.8841884E+05   -1.7843174E+00
   2.7177976E-04   1.8687641E+05   -1.7837521E+00
   2.7303487E-04   1.8534708E+05   -1.7831864E+00
   2.7429577E-04   1.8383075E+05   -1.7826204E+00
   2.7556250E-04   1.8232730E+05   -1.7820540E+00
   2.7683507E-04   1.8083662E+05   -1.7814873E+00
   2.7811353E-04   1.7935860E+05   -1.7809203E+00
   2.7939788E-04   1.7789312E+05   -1.7803529E+00
   2.8068817E-04   1.7644007E+05   -1.7797852E+00
   2.8198442E-04   1.7499935E+05   -1.7792172E+00
   2.8328665E-04   1.7357085E+05   -1.7786489E+00
   2.8459490E-04   1.7215446E+05   -1.7780803E+00
   2.8590919E-04   1.7075008E+05   -1.7775114E+00
   2.8722955E-04   1.6935760E+05   -1.7769422E+00
   2.8855600E-04   1.6797691E+05   -1.7763728E+00
   2.8988859E-04   1.6660792E+05   -1.7758030E+00
   2.9122732E-04   1.6525052E+05   -1.7752330E+00
   2.9257224E-04   1.6390460E+05   -1.7746627E+00
   2.9392337E-04   1.6257008E+05   -1.7740922E+00
   2.9528074E-04   1.6124685E+05   -1.7735214E+00
   2.9664438E-04   1.5993481E+05   -1.7729504E+00
   2.9801431E-04   1.5863386E+05   -1.7723791E+00
   2.9939057E-04   1.5734391E+05   -1.7718075E+00
   3.0077319E-04   1.5606485E+05   -1.7712358E+00
   3.0216219E-04   1.5479661E+05   -1.7706638E+00
   3.0355761E-04   1.5353907E+05   -1.7700916E+00
   3.0495947E-04   1.5229216E+05   -1.7695192E+00
   3.0636780E-04   1.5105576E+05   -1.7689466E+00
   3.0778264E-04   1.4982980E+05   -1.7683738E+00
   3.0920401E-04   1.4861418E+05   -1.7678008E+00
   3.1063195E-04   1.4740882E+05   -1.7672276E+00
   3.1206648E-04   1.4621362E+05   -1.7666542E+00
   3.1350764E-04   1.4502849E+05   -1.7660806E+00
   3.1495545E-04   1.4385334E+05   -1.7655069E+00
   3.1640994E-04   1.4268810E+05   -1.7649330E+00
   3.1787116E-04   1.4153267E+05   -1.7643589E+00
   3.1933912E-04   1.4038697E+05   -1.7637847E+00
   3.2081386E-04   1.3925091E+05   -1.7632104E+00
   3.2229541E-04   1.3812440E+05   -1.7626359E+00
   3.2378381E-04   1.3700738E+05   -1.7620613E+00
   3.2527908E-04   1.3589975E+05   -1.7614865E+00
   3.2678125E-04   1.3480143E+05   -1.7609116E+00
   3.2829036E-04   1.3371234E+05   -1.7603366E+00
   3.2980644E-04   1.3263240E+05   -1.7597615E+00
   3.3132952E-04   1.3156153E+05   -1.7591863E+00
   3.3285963E-04   1.3049965E+05   -1.7586110E+00
   3.3439681E-04   1.2944669E+05   -1.7580356E+00
   3.3594109E-04   1.2840256E+05   -1.7574601E+00
   3.3749250E-04   1.2736720E+05   -1.7568846E+00
   3.3905108E-04   1.2634051E+05   -1.7563089E+00
   3.4061685E-04   1.2532244E+05   -1.7557332E+00
   3.4218986E-04   1.2431290E+05   -1.7551575E+00
   3.4377013E-04   1.2331182E+05   -1.7545816E+00
   3.4535769E-04   1.2231912E+05   -1.7540058E+00
   3.4695259E-04   1.2133474E+05   -1.7534299E+00
   3.4855485E-04   1.2035860E+05   -1.7528539E+00
   3.5016452E-04   1.1939063E+05   -1.7522779E+00
   3.5178161E-04   1.1843076E+05   -1.7517019E+00
   3.5340618E-04   1.1747892E+05   -1.7511259E+00
   3.5503824E-04   1.1653503E+05   -1.7505498E+00
   3.5667785E-04   1.1559904E+05   -1.7499738E+00
   3.5832502E-04   1.1467087E+05   -1.7493977E+00
   3.5997981E-04   1.1375045E+05   -1.7488217E+00
   3.6164223E-04   1.1283773E+05   -1.7482457E+00
   3.6331233E-04   1.1193262E+05   -1.7476697E+00
   3.6499015E-04   1.1103506E+05   -1.7470937E+00
   3.6667571E-04   1.1014500E+05   -1.7465177E+00
   3.6836906E-04   1.0926236E+05   -1.7459418E+00
   3.7007022E-04   1.0838708E+05   -1.7453659E+00
   3.7177925E-04   1.0751910E+05   -1.7447901E+00
   3.7349616E-04   1.0665835E+05   -1.7442143E+00
   3.7522101E-04   1.0580478E+05   -1.7436386E+00
   3.7695382E-04   1.0495831E+05   -1.7430629E+00
   3.7869463E-04   1.0411889E+05   -1.7424874E+00
   3.8044348E-04   1.0328646E+05   -1.7419119E+00
   3.8220041E-04   1.0246096E+05   -1.7413364E+00
   3.8396545E-04   1.0164232E+05   -1.7407611E+00
   3.8573864E-04   1.0083049E+05   -1.7401859E+00
   3.8752002E-04   1.0002541E+05   -1.7396108E+00
   3.8930963E-04   9.9227021E+04   -1.7390358E+00
   3.9110750E-04   9.8435265E+04   -1.7384609E+00
   3.9291368E-04   9.7650086E+04   -1.7378861E+00
   3.9472820E-04   9.6871426E+04   -1.7373114E+00
   3.9655109E-04   9.6099230E+04   -1.7367369E+00
   3.9838241E-04   9.5333441E+04   -1.7361626E+00
   4.0022218E-04   9.4574005E+04   -1.7355883E+00
   4.0207045E-04   9.3820867E+04   -1.7350142E+00
   4.0392725E-04   9.3073973E+04   -1.7344403E+00
   4.0579263E-04   9.2333269E+04   -1.7338666E+00
   4.0766662E-04   9.1598702E+04   -1.7332930E+00
   4.0954927E-04   9.0870219E+04   -1.7327196E+00
   4.1144061E-04   9.0147767E+04   -1.7321463E+00
   4.1334068E-04   8.9431296E+04   -1.7315733E+00
   4.1524953E-04   8.8720752E+04   -1.7310004E+00
   4.1716720E-04   8.8016087E+04   -1.7304278E+00
   4.1909372E-04   8.7317249E+04   -1.7298554E+00
   4.2102914E-04   8.6624187E+04   -1.7292831E+00
   4.2297350E-04   8.5936853E+04   -1.7287111E+00
   4.2492683E-04   8.5255198E+04   -1.7281393E+00
   4.2688919E-04   8.4579173E+04   -1.7275678E+00
   4.2886061E-04   8.3908729E+04   -1.7269964E+00
   4.3084113E-04   8.3243818E+04   -1.7264253E+00
   4.3283080E-04   8.2584394E+04   -1.7258545E+00
   4.3482966E-04   8.1930409E+04   -1.7252839E+00
   4.3683775E-04   8.1281816E+04   -1.7247136E+00
   4.3885511E-04   8.0638570E+04   -1.7241435E+00
   4.4088179E-04   8.0000624E+04   -1.7235737E+00
   4.4291783E-04   7.9367933E+04   -1.7230042E+00
   4.4496327E-04   7.8740453E+04   -1.7224350E+00
   4.4701816E-04   7.8118138E+04   -1.7218660E+00
   4.4908253E-04   7.7500945E+04   -1.7212974E+00
   4.5115644E-04   7.6888829E+04   -1.7207290E+00
   4.5323993E-04   7.6281748E+04   -1.7201610E+00
   4.5533304E-04   7.5679659E+04   -1.7195933E+00
   4.5743582E-04   7.5082517E+04   -1.7190258E+00
   4.5954830E-04   7.4490283E+04   -1.7184587E+00
   4.6167054E-04   7.3902912E+04   -1.7178920E+00
   4.6380259E-04   7.3320365E+04   -1.7173255E+00
   4.6594448E-04   7.2742599E+04   -1.7167595E+00
   4.6809626E-04   7.2169574E+04   -1.7161937E+00
   4.7025797E-04   7.1601250E+04   -1.7156283E+00
   4.7242967E-04   7.1037586E+04   -1.7150633E+00
   4.7461140E-04   7.0478543E+04   -1.7144986E+00
   4.7680321E-04   6.9924082E+04   -1.7139343E+00
   4.7900514E-04   6.9374162E+04   -1.7133704E+00
   4.8121723E-04   6.8828747E+04   -1.7128068E+00
   4.8343954E-04   6.8287796E+04   -1.7122436E+00
   4.8567212E-04   6.7751273E+04   -1.7116809E+00
   4.8791500E-04   6.7219140E+04   -1.7111185E+00
   4.9016825E-04   6.6691358E+04   -1.7105565E+00
   4.9243189E-04   6.6167892E+04   -1.7099949E+00
   4.9470600E-04   6.5648705E+04   -1.7094338E+00
   4.9699060E-04   6.5133759E+04   -1.7088730E+00
   4.9928575E-04   6.4623020E+04   -1.7083127E+00
   5.0159151E-04   6.4116451E+04   -1.7077528E+00
   5.0390791E-04   6.3614017E+04   -1.7071933E+00
   5.0623501E-04   6.3115683E+04   -1.7066343E+00
   5.0857286E-04   6.2621414E+04   -1.7060758E+00
   5.1092150E-04   6.2131175E+04   -1.7055176E+00
   5.1328099E-04   6.1644933E+04   -1.7049600E+00
   5.1565137E-04   6.1162653E+04   -1.7044028E+00
   5.1803270E-04   6.0684302E+04   -1.7038460E+00
   5.2042503E-04   6.0209847E+04   -1.7032898E+00
   5.2282841E-04   5.9739254E+04   -1.7027340E+00
   5.2524289E-04   5.9272491E+04   -1.7021787E+00
   5.2766851E-04   5.8809525E+04   -1.7016239E+00
   5.3010534E-04   5.8350325E+04   -1.7010696E+00
   5.3255342E-04   5.7894858E+04   -1.7005157E+00
   5.3501281E-04   5.7443093E+04   -1.6999624E+00
   5.3748356E-04   5.6994998E+04   -1.6994096E+00
   5.3996571E-04   5.6550542E+04   -1.6988573E+00
   5.4245933E-04   5.6109695E+04   -1.6983055E+00
   5.4496446E-04   5.5672427E+04   -1.6977543E+00
   5.4748117E-04   5.5238706E+04   -1.6972036E+00
   5.5000949E-04   5.4808503E+04   -1.6966534E+00
   5.5254949E-04   5.4381789E+04   -1.6961037E+00
   5.5510123E-04   5.3958533E+04   -1.6955546E+00
   5.5766474E-04   5.3538707E+04   -1.6950060E+00
   5.6024010E-04   5.3122281E+04   -1.6944580E+00
   5.6282734E-04   5.2709228E+04   -1.6939106E+00
   5.6542654E-04   5.2299518E+04   -1.6933637E+00
   5.6803774E-04   5.1893123E+04   -1.6928174E+00
   5.7066099E-04   5.1490016E+04   -1.6922717E+00
   5.7329637E-04   5.1090169E+04   -1.6917265E+00
   5.7594391E-04   5.0693554E+04   -1.6911819E+00
   5.7860368E-04   5.0300144E+04   -1.6906380E+00
   5.8127573E-04   4.9909912E+04   -1.6900946E+00
   5.8396012E-04   4.9522831E+04   -1.6895518E+00
   5.8665691E-04   4.9138876E+04   -1.6890096E+00
   5.8936616E-04   4.8758018E+04   -1.6884680E+00
   5.9208791E-04   4.8380234E+04   -1.6879270E+00
   5.9482223E-04   4.8005496E+04   -1.6873867E+00
   5.9756919E-04   4.7633779E+04   -1.6868469E+00
   6.0032882E-04   4.7265058E+04   -1.6863078E+00
   6.0310120E-04   4.6899308E+04   -1.6857694E+00
   6.0588639E-04   4.6536503E+04   -1.6852315E+00
   6.0868443E-04   4.6176619E+04   -1.6846943E+00
   6.1149540E-04   4.5819632E+04   -1.6841578E+00
   6.1431935E-04   4.5465517E+04   -1.6836219E+00
   6.1715634E-04   4.5114250E+04   -1.6830866E+00
   6.2000644E-04   4.4765807E+04   -1.6825520E+00
   6.2286969E-04   4.4420165E+04   -1.6820181E+00
