#        a       HoverH0(a)       dlogHdloga_of_a(a)
   1.0000000E-04   1.1174194E+06   -1.8941373E+00
   1.0046181E-04   1.1077109E+06   -1.8937523E+00
   1.0092575E-04   1.0980887E+06   -1.8933662E+00
   1.0139184E-04   1.0885520E+06   -1.8929792E+00
   1.0186008E-04   1.0791001E+06   -1.8925911E+00
   1.0233048E-04   1.0697321E+06   -1.8922020E+00
   1.0280305E-04   1.0604474E+06   -1.8918119E+00
   1.0327781E-04   1.0512452E+06   -1.8914207E+00
   1.0375475E-04   1.0421246E+06   -1.8910286E+00
   1.0423390E-04   1.0330851E+06   -1.8906354E+00
   1.0471527E-04   1.0241259E+06   -1.8902412E+00
   1.0519885E-04   1.0152462E+06   -1.8898460E+00
   1.0568467E-04   1.0064453E+06   -1.8894497E+00
   1.0617274E-04   9.9772253E+05   -1.8890525E+00
   1.0666305E-04   9.8907719E+05   -1.8886542E+00
   1.0715563E-04   9.8050855E+05   -1.8882549E+00
   1.0765049E-04   9.7201594E+05   -1.8878546E+00
   1.0814763E-04   9.6359867E+05   -1.8874532E+00
   1.0864707E-04   9.5525606E+05   -1.8870509E+00
   1.0914881E-04   9.4698743E+05   -1.8866475E+00
   1.0965287E-04   9.3879212E+05   -1.8862431E+00
   1.1015926E-04   9.3066947E+05   -1.8858377E+00
   1.1066799E-04   9.2261883E+05   -1.8854313E+00
   1.1117906E-04   9.1463954E+05   -1.8850238E+00
   1.1169250E-04   9.0673096E+05   -1.8846154E+00
   1.1220831E-04   8.9889246E+05   -1.8842059E+00
   1.1272650E-04   8.9112341E+05   -1.8837954E+00
   1.1324708E-04   8.8342317E+05   -1.8833839E+00
   1.1377007E-04   8.7579114E+05   -1.8829714E+00
   1.1429547E-04   8.6822670E+05   -1.8825579E+00
   1.1482330E-04   8.6072923E+05   -1.8821433E+00
   1.1535356E-04   8.5329814E+05   -1.8817278E+00
   1.1588628E-04   8.4593282E+05   -1.8813112E+00
   1.1642145E-04   8.3863270E+05   -1.8808937E+00
   1.1695910E-04   8.3139717E+05   -1.8804751E+00
   1.1749923E-04   8.2422565E+05   -1.8800555E+00
   1.1804185E-04   8.1711758E+05   -1.8796349E+00
   1.1858698E-04   8.1007238E+05   -1.8792133E+00
   1.1913463E-04   8.0308949E+05   -1.8787907E+00
   1.1968481E-04   7.9616834E+05   -1.8783671E+00
   1.2023752E-04   7.8930838E+05   -1.8779425E+00
   1.2079279E-04   7.8250907E+05   -1.8775169E+00
   1.2135063E-04   7.7576984E+05   -1.8770903E+00
   1.2191104E-04   7.6909017E+05   -1.8766626E+00
   1.2247403E-04   7.6246952E+05   -1.8762340E+00
   1.2303963E-04   7.5590736E+05   -1.8758044E+00
   1.2360784E-04   7.4940316E+05   -1.8753738E+00
   1.2417868E-04   7.4295640E+05   -1.8749422E+00
   1.2475215E-04   7.3656656E+05   -1.8745096E+00
   1.2532826E-04   7.3023314E+05   -1.8740760E+00
   1.2590704E-04   7.2395562E+05   -1.8736414E+00
   1.2648850E-04   7.1773351E+05   -1.8732058E+00
   1.2707263E-04   7.1156630E+05   -1.8727693E+00
   1.2765947E-04   7.0545351E+05   -1.8723317E+00
   1.2824901E-04   6.9939464E+05   -1.8718931E+00
   1.2884128E-04   6.9338921E+05   -1.8714536E+00
   1.2943628E-04   6.8743675E+05   -1.8710131E+00
   1.3003403E-04   6.8153676E+05   -1.8705716E+00
   1.3063454E-04   6.7568879E+05   -1.8701291E+00
   1.3123783E-04   6.6989237E+05   -1.8696856E+00
   1.3184390E-04   6.6414703E+05   -1.8692412E+00
   1.3245277E-04   6.5845231E+05   -1.8687958E+00
   1.3306445E-04   6.5280776E+05   -1.8683494E+00
   1.3367895E-04   6.4721294E+05   -1.8679020E+00
   1.3429630E-04   6.4166738E+05   -1.8674536E+00
   1.3491649E-04   6.3617066E+05   -1.8670043E+00
   1.3553955E-04   6.3072234E+05   -1.8665540E+00
   1.3616548E-04   6.2532197E+05   -1.8661028E+00
   1.3679431E-04   6.1996913E+05   -1.8656506E+00
   1.3742604E-04   6.1466340E+05   -1.8651974E+00
   1.3806069E-04   6.0940435E+05   -1.8647432E+00
   1.3869827E-04   6.0419156E+05   -1.8642881E+00
   1.3933879E-04   5.9902461E+05   -1.8638320E+00
   1.3998227E-04   5.9390310E+05   -1.8633750E+00
   1.4062872E-04   5.8882662E+05   -1.8629170E+00
   1.4127816E-04   5.8379477E+05   -1.8624580E+00
   1.4193060E-04   5.7880714E+05   -1.8619982E+00
   1.4258605E-04   5.7386334E+05   -1.8615373E+00
   1.4324453E-04   5.6896297E+05   -1.8610755E+00
   1.4390605E-04   5.6410566E+05   -1.8606128E+00
   1.4457062E-04   5.5929100E+05   -1.8601491E+00
   1.4523826E-04   5.5451863E+05   -1.8596845E+00
   1.4590899E-04   5.4978815E+05   -1.8592189E+00
   1.4658281E-04   5.4509920E+05   -1.8587524E+00
   1.4725974E-04   5.4045140E+05   -1.8582849E+00
   1.4793981E-04   5.3584439E+05   -1.8578166E+00
   1.4862301E-04   5.3127779E+05   -1.8573472E+00
   1.4930936E-04   5.2675126E+05   -1.8568770E+00
   1.4999889E-04   5.2226442E+05   -1.8564058E+00
   1.5069160E-04   5.1781693E+05   -1.8559337E+00
   1.5138751E-04   5.1340843E+05   -1.8554607E+00
   1.5208663E-04   5.0903857E+05   -1.8549868E+00
   1.5278899E-04   5.0470700E+05   -1.8545119E+00
   1.5349458E-04   5.0041340E+05   -1.8540362E+00
   1.5420343E-04   4.9615741E+05   -1.8535595E+00
   1.5491556E-04   4.9193869E+05   -1.8530819E+00
   1.5563098E-04   4.8775693E+05   -1.8526034E+00
   1.5634970E-04   4.8361177E+05   -1.8521240E+00
   1.5707174E-04   4.7950291E+05   -1.8516437E+00
   1.5779711E-04   4.7543000E+05   -1.8511625E+00
   1.5852584E-04   4.7139274E+05   -1.8506804E+00
   1.5925792E-04   4.6739080E+05   -1.8501974E+00
   1.5999339E-04   4.6342387E+05   -1.8497135E+00
   1.6073226E-04   4.5949163E+05   -1.8492287E+00
   1.6147454E-04   4.5559378E+05   -1.8487430E+00
   1.6222024E-04   4.5173000E+05   -1.8482564E+00
   1.6296939E-04   4.4790000E+05   -1.8477690E+00
   1.6372200E-04   4.4410347E+05   -1.8472807E+00
   1.6447809E-04   4.4034011E+05   -1.8467915E+00
   1.6523767E-04   4.3660962E+05   -1.8463014E+00
   1.6600075E-04   4.3291172E+05   -1.8458104E+00
   1.6676736E-04   4.2924611E+05   -1.8453186E+00
   1.6753751E-04   4.2561250E+05   -1.8448260E+00
   1.6831122E-04   4.2201062E+05   -1.8443324E+00
   1.6908849E-04   4.1844016E+05   -1.8438380E+00
   1.6986936E-04   4.1490086E+05   -1.8433428E+00
   1.7065384E-04   4.1139243E+05   -1.8428467E+00
   1.7144193E-04   4.0791461E+05   -1.8423497E+00
   1.7223367E-04   4.0446711E+05   -1.8418519E+00
   1.7302906E-04   4.0104967E+05   -1.8413532E+00
   1.7382813E-04   3.9766202E+05   -1.8408538E+00
   1.7463089E-04   3.9430390E+05   -1.8403534E+00
   1.7543735E-04   3.9097503E+05   -1.8398523E+00
   1.7624754E-04   3.8767517E+05   -1.8393503E+00
   1.7706147E-04   3.8440404E+05   -1.8388475E+00
   1.7787916E-04   3.8116140E+05   -1.8383438E+00
   1.7870062E-04   3.7794699E+05   -1.8378394E+00
   1.7952588E-04   3.7476056E+05   -1.8373341E+00
   1.8035495E-04   3.7160186E+05   -1.8368280E+00
   1.8118785E-04   3.6847064E+05   -1.8363211E+00
   1.8202459E-04   3.6536666E+05   -1.8358134E+00
   1.8286520E-04   3.6228968E+05   -1.8353048E+00
   1.8370969E-04   3.5923945E+05   -1.8347955E+00
   1.8455808E-04   3.5621574E+05   -1.8342854E+00
   1.8541039E-04   3.5321832E+05   -1.8337745E+00
   1.8626663E-04   3.5024694E+05   -1.8332628E+00
   1.8712683E-04   3.4730137E+05   -1.8327503E+00
   1.8799100E-04   3.4438139E+05   -1.8322371E+00
   1.8885917E-04   3.4148677E+05   -1.8317230E+00
   1.8973134E-04   3.3861728E+05   -1.8312082E+00
   1.9060754E-04   3.3577270E+05   -1.8306926E+00
   1.9148778E-04   3.3295281E+05   -1.8301762E+00
   1.9237209E-04   3.3015739E+05   -1.8296591E+00
   1.9326049E-04   3.2738621E+05   -1.8291412E+00
   1.9415299E-04   3.2463908E+05   -1.8286226E+00
   1.9504960E-04   3.2191576E+05   -1.8281032E+00
   1.9595036E-04   3.1921605E+05   -1.8275831E+00
   1.9685528E-04   3.1653975E+05   -1.8270622E+00
   1.9776438E-04   3.1388663E+05   -1.8265405E+00
   1.9867768E-04   3.1125651E+05   -1.8260182E+00
   1.9959519E-04   3.0864916E+05   -1.8254951E+00
   2.0051694E-04   3.0606439E+05   -1.8249713E+00
   2.0144295E-04   3.0350200E+05   -1.8244467E+00
   2.0237324E-04   3.0096179E+05   -1.8239214E+00
   2.0330782E-04   2.9844357E+05   -1.8233955E+00
   2.0424671E-04   2.9594713E+05   -1.8228688E+00
   2.0518995E-04   2.9347229E+05   -1.8223414E+00
   2.0613754E-04   2.9101885E+05   -1.8218132E+00
   2.0708950E-04   2.8858663E+05   -1.8212844E+00
   2.0804586E-04   2.8617543E+05   -1.8207549E+00
   2.0900664E-04   2.8378507E+05   -1.8202247E+00
   2.0997185E-04   2.8141536E+05   -1.8196939E+00
   2.1094152E-04   2.7906613E+05   -1.8191623E+00
   2.1191567E-04   2.7673718E+05   -1.8186300E+00
   2.1289432E-04   2.7442835E+05   -1.8180971E+00
   2.1387749E-04   2.7213944E+05   -1.8175635E+00
   2.1486520E-04   2.6987029E+05   -1.8170293E+00
   2.1585747E-04   2.6762072E+05   -1.8164944E+00
   2.1685432E-04   2.6539056E+05   -1.8159588E+00
   2.1785578E-04   2.6317963E+05   -1.8154226E+00
   2.1886186E-04   2.6098776E+05   -1.8148857E+00
   2.1987259E-04   2.5881479E+05   -1.8143482E+00
   2.2088798E-04   2.5666055E+05   -1.8138100E+00
   2.2190807E-04   2.5452487E+05   -1.8132713E+00
   2.2293286E-04   2.5240759E+05   -1.8127318E+00
   2.2396239E-04   2.5030854E+05   -1.8121918E+00
   2.2499667E-04   2.4822757E+05   -1.8116511E+00
   2.2603573E-04   2.4616451E+05   -1.8111099E+00
   2.2707958E-04   2.4411921E+05   -1.8105680E+00
   2.2812826E-04   2.4209150E+05   -1.8100255E+00
   2.2918178E-04   2.4008124E+05   -1.8094824E+00
   2.3024017E-04   2.3808827E+05   -1.8089387E+00
   2.3130344E-04   2.3611243E+05   -1.8083944E+00
   2.3237162E-04   2.3415358E+05   -1.8078496E+00
   2.3344474E-04   2.3221156E+05   -1.8073041E+00
   2.3452281E-04   2.3028623E+05   -1.8067581E+00
   2.3560586E-04   2.2837744E+05   -1.8062115E+00
   2.3669392E-04   2.2648503E+05   -1.8056644E+00
   2.3778699E-04   2.2460888E+05   -1.8051166E+00
   2.3888512E-04   2.2274883E+05   -1.8045684E+00
   2.3998831E-04   2.2090474E+05   -1.8040195E+00
   2.4109661E-04   2.1907648E+05   -1.8034701E+00
   2.4221001E-04   2.1726389E+05   -1.8029202E+00
   2.4332857E-04   2.1546685E+05   -1.8023698E+00
   2.4445228E-04   2.1368521E+05   -1.8018188E+00
   2.4558119E-04   2.1191884E+05   -1.8012673E+00
   2.4671531E-04   2.1016761E+05   -1.8007152E+00
   2.4785467E-04   2.0843138E+05   -1.8001627E+00
   2.4899928E-04   2.0671002E+05   -1.7996096E+00
   2.5014919E-04   2.0500340E+05   -1.7990560E+00
   2.5130440E-04   2.0331139E+05   -1.7985019E+00
   2.5246495E-04   2.0163386E+05   -1.7979474E+00
   2.5363086E-04   1.9997068E+05   -1.7973923E+00
   2.5480216E-04   1.9832173E+05   -1.7968368E+00
   2.5597886E-04   1.9668688E+05   -1.7962807E+00
   2.5716100E-04   1.9506600E+05   -1.7957242E+00
   2.5834859E-04   1.9345898E+05   -1.7951673E+00
   2.5954168E-04   1.9186569E+05   -1.7946098E+00
   2.6074027E-04   1.9028601E+05   -1.7940519E+00
   2.6194439E-04   1.8871983E+05   -1.7934936E+00
   2.6315408E-04   1.8716701E+05   -1.7929348E+00
   2.6436935E-04   1.8562745E+05   -1.7923755E+00
   2.6559024E-04   1.8410103E+05   -1.7918159E+00
   2.6681676E-04   1.8258763E+05   -1.7912557E+00
   2.6804895E-04   1.8108714E+05   -1.7906952E+00
   2.6928683E-04   1.7959944E+05   -1.7901342E+00
   2.7053042E-04   1.7812443E+05   -1.7895729E+00
   2.7177976E-04   1.7666199E+05   -1.7890111E+00
   2.7303487E-04   1.7521201E+05   -1.7884489E+00
   2.7429577E-04   1.7377438E+05   -1.7878863E+00
   2.7556250E-04   1.7234899E+05   -1.7873233E+00
   2.7683507E-04   1.7093574E+05   -1.7867600E+00
   2.7811353E-04   1.6953452E+05   -1.7861962E+00
   2.7939788E-04   1.6814522E+05   -1.7856321E+00
   2.8068817E-04   1.6676773E+05   -1.7850676E+00
   2.8198442E-04   1.6540197E+05   -1.7845027E+00
   2.8328665E-04   1.6404781E+05   -1.7839375E+00
   2.8459490E-04   1.6270517E+05   -1.7833719E+00
   2.8590919E-04   1.6137394E+05   -1.7828060E+00
   2.8722955E-04   1.6005401E+05   -1.7822397E+00
   2.8855600E-04   1.5874530E+05   -1.7816731E+00
   2.8988859E-04   1.5744769E+05   -1.7811062E+00
   2.9122732E-04   1.5616111E+05   -1.7805389E+00
   2.9257224E-04   1.5488544E+05   -1.7799713E+00
   2.9392337E-04   1.5362059E+05   -1.7794034E+00
   2.9528074E-04   1.5236647E+05   -1.7788352E+00
   2.9664438E-04   1.5112299E+05   -1.7782667E+00
   2.9801431E-04   1.4989004E+05   -1.7776979E+00
   2.9939057E-04   1.4866755E+05   -1.7771288E+00
   3.0077319E-04   1.4745541E+05   -1.7765594E+00
   3.0216219E-04   1.4625354E+05   -1.7759898E+00
   3.0355761E-04   1.4506185E+05   -1.7754198E+00
   3.0495947E-04   1.4388024E+05   -1.7748496E+00
   3.0636780E-04   1.4270864E+05   -1.7742792E+00
   3.0778264E-04   1.4154694E+05   -1.7737084E+00
   3.0920401E-04   1.4039507E+05   -1.7731375E+00
   3.1063195E-04   1.3925295E+05   -1.7725662E+00
   3.1206648E-04   1.3812047E+05   -1.7719948E+00
   3.1350764E-04   1.3699757E+05   -1.7714231E+00
   3.1495545E-04   1.3588416E+05   -1.7708512E+00
   3.1640994E-04   1.3478015E+05   -1.7702791E+00
   3.1787116E-04   1.3368546E+05   -1.7697067E+00
   3.1933912E-04   1.3260001E+05   -1.7691342E+00
   3.2081386E-04   1.3152372E+05   -1.7685614E+00
   3.2229541E-04   1.3045651E+05   -1.7679884E+00
   3.2378381E-04   1.2939831E+05   -1.7674153E+00
   3.2527908E-04   1.2834903E+05   -1.7668420E+00
   3.2678125E-04   1.2730859E+05   -1.7662684E+00
   3.2829036E-04   1.2627692E+05   -1.7656948E+00
   3.2980644E-04   1.2525394E+05   -1.7651209E+00
   3.3132952E-04   1.2423957E+05   -1.7645469E+00
   3.3285963E-04   1.2323375E+05   -1.7639727E+00
   3.3439681E-04   1.2223639E+05   -1.7633984E+00
   3.3594109E-04   1.2124743E+05   -1.7628240E+00
   3.3749250E-04   1.2026679E+05   -1.7622494E+00
   3.3905108E-04   1.1929439E+05   -1.7616747E+00
   3.4061685E-04   1.1833017E+05   -1.7610998E+00
   3.4218986E-04   1.1737405E+05   -1.7605248E+00
   3.4377013E-04   1.1642597E+05   -1.7599498E+00
   3.4535769E-04   1.1548585E+05   -1.7593746E+00
   3.4695259E-04   1.1455363E+05   -1.7587993E+00
   3.4855485E-04   1.1362923E+05   -1.7582239E+00
   3.5016452E-04   1.1271259E+05   -1.7576485E+00
   3.5178161E-04   1.1180364E+05   -1.7570729E+00
   3.5340618E-04   1.1090232E+05   -1.7564973E+00
   3.5503824E-04   1.1000855E+05   -1.7559216E+00
   3.5667785E-04   1.0912228E+05   -1.7553458E+00
   3.5832502E-04   1.0824343E+05   -1.7547700E+00
   3.5997981E-04   1.0737195E+05   -1.7541941E+00
   3.6164223E-04   1.0650776E+05   -1.7536182E+00
   3.6331233E-04   1.0565081E+05   -1.7530423E+00
   3.6499015E-04   1.0480104E+05   -1.7524663E+00
   3.6667571E-04   1.0395837E+05   -1.7518903E+00
   3.6836906E-04   1.0312276E+05   -1.7513143E+00
   3.7007022E-04   1.0229413E+05   -1.7507382E+00
   3.7177925E-04   1.0147243E+05   -1.7501622E+00
   3.7349616E-04   1.0065760E+05   -1.7495861E+00
   3.7522101E-04   9.9849574E+04   -1.7490100E+00
   3.7695382E-04   9.9048299E+04   -1.7484340E+00
   3.7869463E-04   9.8253716E+04   -1.7478580E+00
   3.8044348E-04   9.7465765E+04   -1.7472820E+00
   3.8220041E-04   9.6684390E+04   -1.7467060E+00
   3.8396545E-04   9.5909533E+04   -1.7461300E+00
   3.8573864E-04   9.5141139E+04   -1.7455541E+00
   3.8752002E-04   9.4379151E+04   -1.7449783E+00
   3.8930963E-04   9.3623515E+04   -1.7444025E+00
   3.9110750E-04   9.2874175E+04   -1.7438267E+00
   3.9291368E-04   9.2131076E+04   -1.7432510E+00
   3.9472820E-04   9.1394166E+04   -1.7426754E+00
   3.9655109E-04   9.0663390E+04   -1.7420999E+00
   3.9838241E-04   8.9938696E+04   -1.7415244E+00
   4.0022218E-04   8.9220032E+04   -1.7409491E+00
   4.0207045E-04   8.8507344E+04   -1.7403738E+00
   4.0392725E-04   8.7800582E+04   -1.7397986E+00
   4.0579263E-04   8.7099695E+04   -1.7392236E+00
   4.0766662E-04   8.6404632E+04   -1.7386486E+00
   4.0954927E-04   8.5715342E+04   -1.7380738E+00
   4.1144061E-04   8.5031776E+04   -1.7374991E+00
   4.1334068E-04   8.4353885E+04   -1.7369245E+00
   4.1524953E-04   8.3681619E+04   -1.7363501E+00
   4.1716720E-04   8.3014931E+04   -1.7357758E+00
   4.1909372E-04   8.2353773E+04   -1.7352017E+00
   4.2102914E-04   8.1698096E+04   -1.7346277E+00
   4.2297350E-04   8.1047853E+04   -1.7340539E+00
   4.2492683E-04   8.0402999E+04   -1.7334802E+00
   4.2688919E-04   7.9763486E+04   -1.7329067E+00
   4.2886061E-04   7.9129269E+04   -1.7323334E+00
   4.3084113E-04   7.8500302E+04   -1.7317603E+00
   4.3283080E-04   7.7876540E+04   -1.7311874E+00
   4.3482966E-04   7.7257938E+04   -1.7306146E+00
   4.3683775E-04   7.6644453E+04   -1.7300421E+00
   4.3885511E-04   7.6036039E+04   -1.7294698E+00
   4.4088179E-04   7.5432654E+04   -1.7288977E+00
   4.4291783E-04   7.4834254E+04   -1.7283258E+00
   4.4496327E-04   7.4240797E+04   -1.7277542E+00
   4.4701816E-04   7.3652240E+04   -1.7271828E+00
   4.4908253E-04   7.3068541E+04   -1.7266116E+00
   4.5115644E-04   7.2489659E+04   -1.7260406E+00
   4.5323993E-04   7.1915552E+04   -1.7254700E+00
   4.5533304E-04   7.1346180E+04   -1.7248995E+00
   4.5743582E-04   7.0781502E+04   -1.7243294E+00
   4.5954830E-04   7.0221477E+04   -1.7237595E+00
   4.6167054E-04   6.9666066E+04   -1.7231899E+00
   4.6380259E-04   6.9115229E+04   -1.7226205E+00
   4.6594448E-04   6.8568927E+04   -1.7220515E+00
   4.6809626E-04   6.8027122E+04   -1.7214827E+00
   4.7025797E-04   6.7489775E+04   -1.7209142E+00
   4.7242967E-04   6.6956847E+04   -1.7203461E+00
   4.7461140E-04   6.6428302E+04   -1.7197782E+00
   4.7680321E-04   6.5904101E+04   -1.7192107E+00
   4.7900514E-04   6.5384208E+04   -1.7186435E+00
   4.8121723E-04   6.4868586E+04   -1.7180766E+00
   4.8343954E-04   6.4357198E+04   -1.7175100E+00
   4.8567212E-04   6.3850008E+04   -1.7169438E+00
   4.8791500E-04   6.3346980E+04   -1.7163779E+00
   4.9016825E-04   6.2848079E+04   -1.7158124E+00
   4.9243189E-04   6.2353270E+04   -1.7152472E+00
   4.9470600E-04   6.1862517E+04   -1.7146824E+00
   4.9699060E-04   6.1375787E+04   -1.7141180E+00
   4.9928575E-04   6.0893044E+04   -1.7135539E+00
   5.0159151E-04   6.0414255E+04   -1.7129902E+00
   5.0390791E-04   5.9939387E+04   -1.7124269E+00
   5.0623501E-04   5.9468405E+04   -1.7118640E+00
   5.0857286E-04   5.9001277E+04   -1.7113015E+00
   5.1092150E-04   5.8537970E+04   -1.7107393E+00
   5.1328099E-04   5.8078452E+04   -1.7101776E+00
   5.1565137E-04   5.7622690E+04   -1.7096163E+00
   5.1803270E-04   5.7170652E+04   -1.7090554E+00
   5.2042503E-04   5.6722307E+04   -1.7084949E+00
   5.2282841E-04   5.6277623E+04   -1.7079349E+00
   5.2524289E-04   5.5836570E+04   -1.7073753E+00
   5.2766851E-04   5.5399115E+04   -1.7068161E+00
   5.3010534E-04   5.4965230E+04   -1.7062574E+00
   5.3255342E-04   5.4534883E+04   -1.7056991E+00
   5.3501281E-04   5.4108045E+04   -1.7051412E+00
   5.3748356E-04   5.3684685E+04   -1.7045839E+00
   5.3996571E-04   5.3264774E+04   -1.7040270E+00
   5.4245933E-04   5.2848284E+04   -1.7034705E+00
   5.4496446E-04   5.2435185E+04   -1.7029146E+00
   5.4748117E-04   5.2025448E+04   -1.7023591E+00
   5.5000949E-04   5.1619044E+04   -1.7018041E+00
   5.5254949E-04   5.1215947E+04   -1.7012496E+00
   5.5510123E-04   5.0816126E+04   -1.7006956E+00
   5.5766474E-04   5.0419556E+04   -1.7001421E+00
   5.6024010E-04   5.0026208E+04   -1.6995891E+00
   5.6282734E-04   4.9636055E+04   -1.6990366E+00
   5.6542654E-04   4.9249071E+04   -1.6984847E+00
   5.6803774E-04   4.8865227E+04   -1.6979332E+00
   5.7066099E-04   4.8484498E+04   -1.6973823E+00
   5.7329637E-04   4.8106858E+04   -1.6968319E+00
   5.7594391E-04   4.7732280E+04   -1.6962821E+00
   5.7860368E-04   4.7360739E+04   -1.6957328E+00
   5.8127573E-04   4.6992209E+04   -1.6951840E+00
   5.8396012E-04   4.6626664E+04   -1.6946358E+00
   5.8665691E-04   4.6264080E+04   -1.6940882E+00
   5.8936616E-04   4.5904430E+04   -1.6935411E+00
   5.9208791E-04   4.5547692E+04   -1.6929946E+00
   5.9482223E-04   4.5193839E+04   -1.6924486E+00
   5.9756919E-04   4.4842848E+04   -1.6919033E+00
   6.0032882E-04   4.4494695E+04   -1.6913585E+00
   6.0310120E-04   4.4149356E+04   -1.6908143E+00
   6.0588639E-04   4.3806807E+04   -1.6902707E+00
   6.0868443E-04   4.3467024E+04   -1.6897277E+00
   6.1149540E-04   4.3129985E+04   -1.6891853E+00
   6.1431935E-04   4.2795666E+04   -1.6886435E+00
   6.1715634E-04   4.2464044E+04   -1.6881023E+00
   6.2000644E-04   4.2135097E+04   -1.6875617E+00
   6.2286969E-04   4.1808802E+04   -1.6870217E+00
