#        a       HoverH0(a)       dlogHdloga_of_a(a)
   1.0000000E-04   1.0862078E+06   -1.8639457E+00
   1.0046181E-04   1.0769205E+06   -1.8634890E+00
   1.0092575E-04   1.0677148E+06   -1.8630312E+00
   1.0139184E-04   1.0585900E+06   -1.8625725E+00
   1.0186008E-04   1.0495454E+06   -1.8621129E+00
   1.0233048E-04   1.0405803E+06   -1.8616523E+00
   1.0280305E-04   1.0316940E+06   -1.8611907E+00
   1.0327781E-04   1.0228857E+06   -1.8607282E+00
   1.0375475E-04   1.0141548E+06   -1.8602648E+00
   1.0423390E-04   1.0055006E+06   -1.8598004E+00
   1.0471527E-04   9.9692237E+05   -1.8593351E+00
   1.0519885E-04   9.8841944E+05   -1.8588688E+00
   1.0568467E-04   9.7999114E+05   -1.8584016E+00
   1.0617274E-04   9.7163679E+05   -1.8579335E+00
   1.0666305E-04   9.6335575E+05   -1.8574644E+00
   1.0715563E-04   9.5514736E+05   -1.8569945E+00
   1.0765049E-04   9.4701096E+05   -1.8565235E+00
   1.0814763E-04   9.3894590E+05   -1.8560517E+00
   1.0864707E-04   9.3095156E+05   -1.8555789E+00
   1.0914881E-04   9.2302730E+05   -1.8551052E+00
   1.0965287E-04   9.1517248E+05   -1.8546306E+00
   1.1015926E-04   9.0738650E+05   -1.8541551E+00
   1.1066799E-04   8.9966872E+05   -1.8536786E+00
   1.1117906E-04   8.9201856E+05   -1.8532013E+00
   1.1169250E-04   8.8443539E+05   -1.8527230E+00
   1.1220831E-04   8.7691861E+05   -1.8522439E+00
   1.1272650E-04   8.6946765E+05   -1.8517638E+00
   1.1324708E-04   8.6208190E+05   -1.8512828E+00
   1.1377007E-04   8.5476079E+05   -1.8508010E+00
   1.1429547E-04   8.4750374E+05   -1.8503182E+00
   1.1482330E-04   8.4031017E+05   -1.8498345E+00
   1.1535356E-04   8.3317952E+05   -1.8493500E+00
   1.1588628E-04   8.2611122E+05   -1.8488645E+00
   1.1642145E-04   8.1910472E+05   -1.8483782E+00
   1.1695910E-04   8.1215946E+05   -1.8478910E+00
   1.1749923E-04   8.0527491E+05   -1.8474029E+00
   1.1804185E-04   7.9845051E+05   -1.8469140E+00
   1.1858698E-04   7.9168573E+05   -1.8464241E+00
   1.1913463E-04   7.8498003E+05   -1.8459334E+00
   1.1968481E-04   7.7833290E+05   -1.8454418E+00
   1.2023752E-04   7.7174380E+05   -1.8449494E+00
   1.2079279E-04   7.6521222E+05   -1.8444561E+00
   1.2135063E-04   7.5873765E+05   -1.8439619E+00
   1.2191104E-04   7.5231958E+05   -1.8434669E+00
   1.2247403E-04   7.4595750E+05   -1.8429710E+00
   1.2303963E-04   7.3965091E+05   -1.8424743E+00
   1.2360784E-04   7.3339931E+05   -1.8419767E+00
   1.2417868E-04   7.2720223E+05   -1.8414783E+00
   1.2475215E-04   7.2105917E+05   -1.8409790E+00
   1.2532826E-04   7.1496964E+05   -1.8404789E+00
   1.2590704E-04   7.0893318E+05   -1.8399780E+00
   1.2648850E-04   7.0294931E+05   -1.8394762E+00
   1.2707263E-04   6.9701756E+05   -1.8389736E+00
   1.2765947E-04   6.9113746E+05   -1.8384702E+00
   1.2824901E-04   6.8530856E+05   -1.8379660E+00
   1.2884128E-04   6.7953040E+05   -1.8374609E+00
   1.2943628E-04   6.7380253E+05   -1.8369551E+00
   1.3003403E-04   6.6812450E+05   -1.8364484E+00
   1.3063454E-04   6.6249587E+05   -1.8359409E+00
   1.3123783E-04   6.5691619E+05   -1.8354326E+00
   1.3184390E-04   6.5138503E+05   -1.8349235E+00
   1.3245277E-04   6.4590195E+05   -1.8344136E+00
   1.3306445E-04   6.4046654E+05   -1.8339029E+00
   1.3367895E-04   6.3507836E+05   -1.8333914E+00
   1.3429630E-04   6.2973700E+05   -1.8328792E+00
   1.3491649E-04   6.2444204E+05   -1.8323661E+00
   1.3553955E-04   6.1919306E+05   -1.8318523E+00
   1.3616548E-04   6.1398966E+05   -1.8313377E+00
   1.3679431E-04   6.0883143E+05   -1.8308223E+00
   1.3742604E-04   6.0371798E+05   -1.8303061E+00
   1.3806069E-04   5.9864889E+05   -1.8297892E+00
   1.3869827E-04   5.9362378E+05   -1.8292716E+00
   1.3933879E-04   5.8864226E+05   -1.8287531E+00
   1.3998227E-04   5.8370393E+05   -1.8282340E+00
   1.4062872E-04   5.7880842E+05   -1.8277140E+00
   1.4127816E-04   5.7395535E+05   -1.8271933E+00
   1.4193060E-04   5.6914433E+05   -1.8266719E+00
   1.4258605E-04   5.6437499E+05   -1.8261498E+00
   1.4324453E-04   5.5964697E+05   -1.8256269E+00
   1.4390605E-04   5.5495990E+05   -1.8251033E+00
   1.4457062E-04   5.5031341E+05   -1.8245789E+00
   1.4523826E-04   5.4570714E+05   -1.8240539E+00
   1.4590899E-04   5.4114074E+05   -1.8235281E+00
   1.4658281E-04   5.3661385E+05   -1.8230016E+00
   1.4725974E-04   5.3212612E+05   -1.8224744E+00
   1.4793981E-04   5.2767720E+05   -1.8219465E+00
   1.4862301E-04   5.2326676E+05   -1.8214179E+00
   1.4930936E-04   5.1889444E+05   -1.8208886E+00
   1.4999889E-04   5.1455991E+05   -1.8203586E+00
   1.5069160E-04   5.1026284E+05   -1.8198279E+00
   1.5138751E-04   5.0600289E+05   -1.8192965E+00
   1.5208663E-04   5.0177973E+05   -1.8187644E+00
   1.5278899E-04   4.9759304E+05   -1.8182317E+00
   1.5349458E-04   4.9344250E+05   -1.8176983E+00
   1.5420343E-04   4.8932778E+05   -1.8171643E+00
   1.5491556E-04   4.8524856E+05   -1.8166295E+00
   1.5563098E-04   4.8120454E+05   -1.8160942E+00
   1.5634970E-04   4.7719540E+05   -1.8155581E+00
   1.5707174E-04   4.7322083E+05   -1.8150215E+00
   1.5779711E-04   4.6928052E+05   -1.8144841E+00
   1.5852584E-04   4.6537418E+05   -1.8139462E+00
   1.5925792E-04   4.6150150E+05   -1.8134076E+00
   1.5999339E-04   4.5766218E+05   -1.8128683E+00
   1.6073226E-04   4.5385593E+05   -1.8123285E+00
   1.6147454E-04   4.5008246E+05   -1.8117880E+00
   1.6222024E-04   4.4634147E+05   -1.8112469E+00
   1.6296939E-04   4.4263268E+05   -1.8107052E+00
   1.6372200E-04   4.3895580E+05   -1.8101629E+00
   1.6447809E-04   4.3531056E+05   -1.8096200E+00
   1.6523767E-04   4.3169667E+05   -1.8090765E+00
   1.6600075E-04   4.2811385E+05   -1.8085324E+00
   1.6676736E-04   4.2456183E+05   -1.8079877E+00
   1.6753751E-04   4.2104034E+05   -1.8074424E+00
   1.6831122E-04   4.1754911E+05   -1.8068966E+00
   1.6908849E-04   4.1408787E+05   -1.8063502E+00
   1.6986936E-04   4.1065635E+05   -1.8058032E+00
   1.7065384E-04   4.0725430E+05   -1.8052556E+00
   1.7144193E-04   4.0388145E+05   -1.8047075E+00
   1.7223367E-04   4.0053755E+05   -1.8041589E+00
   1.7302906E-04   3.9722234E+05   -1.8036096E+00
   1.7382813E-04   3.9393557E+05   -1.8030599E+00
   1.7463089E-04   3.9067698E+05   -1.8025096E+00
   1.7543735E-04   3.8744633E+05   -1.8019588E+00
   1.7624754E-04   3.8424337E+05   -1.8014074E+00
   1.7706147E-04   3.8106786E+05   -1.8008555E+00
   1.7787916E-04   3.7791955E+05   -1.8003032E+00
   1.7870062E-04   3.7479820E+05   -1.7997502E+00
   1.7952588E-04   3.7170359E+05   -1.7991968E+00
   1.8035495E-04   3.6863546E+05   -1.7986429E+00
   1.8118785E-04   3.6559360E+05   -1.7980885E+00
   1.8202459E-04   3.6257776E+05   -1.7975336E+00
   1.8286520E-04   3.5958772E+05   -1.7969782E+00
   1.8370969E-04   3.5662325E+05   -1.7964223E+00
   1.8455808E-04   3.5368413E+05   -1.7958660E+00
   1.8541039E-04   3.5077012E+05   -1.7953092E+00
   1.8626663E-04   3.4788102E+05   -1.7947519E+00
   1.8712683E-04   3.4501661E+05   -1.7941941E+00
   1.8799100E-04   3.4217665E+05   -1.7936359E+00
   1.8885917E-04   3.3936095E+05   -1.7930773E+00
   1.8973134E-04   3.3656928E+05   -1.7925182E+00
   1.9060754E-04   3.3380144E+05   -1.7919587E+00
   1.9148778E-04   3.3105722E+05   -1.7913987E+00
   1.9237209E-04   3.2833640E+05   -1.7908383E+00
   1.9326049E-04   3.2563878E+05   -1.7902775E+00
   1.9415299E-04   3.2296416E+05   -1.7897163E+00
   1.9504960E-04   3.2031234E+05   -1.7891546E+00
   1.9595036E-04   3.1768312E+05   -1.7885926E+00
   1.9685528E-04   3.1507629E+05   -1.7880301E+00
   1.9776438E-04   3.1249167E+05   -1.7874673E+00
   1.9867768E-04   3.0992905E+05   -1.7869040E+00
   1.9959519E-04   3.0738824E+05   -1.7863404E+00
   2.0051694E-04   3.0486906E+05   -1.7857764E+00
   2.0144295E-04   3.0237130E+05   -1.7852121E+00
   2.0237324E-04   2.9989479E+05   -1.7846473E+00
   2.0330782E-04   2.9743934E+05   -1.7840822E+00
   2.0424671E-04   2.9500476E+05   -1.7835168E+00
   2.0518995E-04   2.9259087E+05   -1.7829510E+00
   2.0613754E-04   2.9019749E+05   -1.7823848E+00
   2.0708950E-04   2.8782444E+05   -1.7818184E+00
   2.0804586E-04   2.8547154E+05   -1.7812516E+00
   2.0900664E-04   2.8313861E+05   -1.7806844E+00
   2.0997185E-04   2.8082548E+05   -1.7801169E+00
   2.1094152E-04   2.7853198E+05   -1.7795492E+00
   2.1191567E-04   2.7625793E+05   -1.7789811E+00
   2.1289432E-04   2.7400317E+05   -1.7784127E+00
   2.1387749E-04   2.7176752E+05   -1.7778440E+00
   2.1486520E-04   2.6955082E+05   -1.7772750E+00
   2.1585747E-04   2.6735290E+05   -1.7767058E+00
   2.1685432E-04   2.6517359E+05   -1.7761362E+00
   2.1785578E-04   2.6301275E+05   -1.7755664E+00
   2.1886186E-04   2.6087019E+05   -1.7749963E+00
   2.1987259E-04   2.5874577E+05   -1.7744259E+00
   2.2088798E-04   2.5663932E+05   -1.7738553E+00
   2.2190807E-04   2.5455070E+05   -1.7732845E+00
   2.2293286E-04   2.5247973E+05   -1.7727134E+00
   2.2396239E-04   2.5042627E+05   -1.7721420E+00
   2.2499667E-04   2.4839017E+05   -1.7715704E+00
   2.2603573E-04   2.4637127E+05   -1.7709986E+00
   2.2707958E-04   2.4436942E+05   -1.7704266E+00
   2.2812826E-04   2.4238448E+05   -1.7698543E+00
   2.2918178E-04   2.4041630E+05   -1.7692819E+00
   2.3024017E-04   2.3846472E+05   -1.7687092E+00
   2.3130344E-04   2.3652962E+05   -1.7681364E+00
   2.3237162E-04   2.3461083E+05   -1.7675633E+00
   2.3344474E-04   2.3270823E+05   -1.7669901E+00
   2.3452281E-04   2.3082166E+05   -1.7664167E+00
   2.3560586E-04   2.2895100E+05   -1.7658431E+00
   2.3669392E-04   2.2709609E+05   -1.7652693E+00
   2.3778699E-04   2.2525681E+05   -1.7646954E+00
   2.3888512E-04   2.2343302E+05   -1.7641213E+00
   2.3998831E-04   2.2162457E+05   -1.7635471E+00
   2.4109661E-04   2.1983135E+05   -1.7629727E+00
   2.4221001E-04   2.1805322E+05   -1.7623982E+00
   2.4332857E-04   2.1629004E+05   -1.7618236E+00
   2.4445228E-04   2.1454168E+05   -1.7612488E+00
   2.4558119E-04   2.1280802E+05   -1.7606739E+00
   2.4671531E-04   2.1108893E+05   -1.7600989E+00
   2.4785467E-04   2.0938428E+05   -1.7595238E+00
   2.4899928E-04   2.0769395E+05   -1.7589486E+00
   2.5014919E-04   2.0601781E+05   -1.7583733E+00
   2.5130440E-04   2.0435574E+05   -1.7577979E+00
   2.5246495E-04   2.0270761E+05   -1.7572225E+00
   2.5363086E-04   2.0107331E+05   -1.7566469E+00
   2.5480216E-04   1.9945271E+05   -1.7560713E+00
   2.5597886E-04   1.9784570E+05   -1.7554956E+00
   2.5716100E-04   1.9625216E+05   -1.7549199E+00
   2.5834859E-04   1.9467197E+05   -1.7543441E+00
   2.5954168E-04   1.9310502E+05   -1.7537682E+00
   2.6074027E-04   1.9155119E+05   -1.7531924E+00
   2.6194439E-04   1.9001036E+05   -1.7526164E+00
   2.6315408E-04   1.8848243E+05   -1.7520405E+00
   2.6436935E-04   1.8696728E+05   -1.7514645E+00
   2.6559024E-04   1.8546481E+05   -1.7508885E+00
   2.6681676E-04   1.8397490E+05   -1.7503125E+00
   2.6804895E-04   1.8249744E+05   -1.7497365E+00
   2.6928683E-04   1.8103232E+05   -1.7491605E+00
   2.7053042E-04   1.7957944E+05   -1.7485846E+00
   2.7177976E-04   1.7813870E+05   -1.7480086E+00
   2.7303487E-04   1.7670999E+05   -1.7474326E+00
   2.7429577E-04   1.7529319E+05   -1.7468567E+00
   2.7556250E-04   1.7388822E+05   -1.7462808E+00
   2.7683507E-04   1.7249497E+05   -1.7457050E+00
   2.7811353E-04   1.7111333E+05   -1.7451292E+00
   2.7939788E-04   1.6974322E+05   -1.7445534E+00
   2.8068817E-04   1.6838452E+05   -1.7439777E+00
   2.8198442E-04   1.6703713E+05   -1.7434021E+00
   2.8328665E-04   1.6570097E+05   -1.7428265E+00
   2.8459490E-04   1.6437593E+05   -1.7422510E+00
   2.8590919E-04   1.6306193E+05   -1.7416756E+00
   2.8722955E-04   1.6175885E+05   -1.7411003E+00
   2.8855600E-04   1.6046661E+05   -1.7405250E+00
   2.8988859E-04   1.5918512E+05   -1.7399499E+00
   2.9122732E-04   1.5791428E+05   -1.7393749E+00
   2.9257224E-04   1.5665400E+05   -1.7388000E+00
   2.9392337E-04   1.5540419E+05   -1.7382252E+00
   2.9528074E-04   1.5416476E+05   -1.7376505E+00
   2.9664438E-04   1.5293562E+05   -1.7370760E+00
   2.9801431E-04   1.5171668E+05   -1.7365016E+00
   2.9939057E-04   1.5050785E+05   -1.7359273E+00
   3.0077319E-04   1.4930905E+05   -1.7353532E+00
   3.0216219E-04   1.4812019E+05   -1.7347793E+00
   3.0355761E-04   1.4694119E+05   -1.7342055E+00
   3.0495947E-04   1.4577196E+05   -1.7336318E+00
   3.0636780E-04   1.4461241E+05   -1.7330584E+00
   3.0778264E-04   1.4346246E+05   -1.7324851E+00
   3.0920401E-04   1.4232204E+05   -1.7319120E+00
   3.1063195E-04   1.4119105E+05   -1.7313391E+00
   3.1206648E-04   1.4006942E+05   -1.7307664E+00
   3.1350764E-04   1.3895707E+05   -1.7301939E+00
   3.1495545E-04   1.3785391E+05   -1.7296216E+00
   3.1640994E-04   1.3675987E+05   -1.7290495E+00
   3.1787116E-04   1.3567488E+05   -1.7284777E+00
   3.1933912E-04   1.3459884E+05   -1.7279060E+00
   3.2081386E-04   1.3353169E+05   -1.7273346E+00
   3.2229541E-04   1.3247335E+05   -1.7267635E+00
   3.2378381E-04   1.3142375E+05   -1.7261925E+00
   3.2527908E-04   1.3038280E+05   -1.7256219E+00
   3.2678125E-04   1.2935044E+05   -1.7250515E+00
   3.2829036E-04   1.2832659E+05   -1.7244813E+00
   3.2980644E-04   1.2731117E+05   -1.7239114E+00
   3.3132952E-04   1.2630413E+05   -1.7233418E+00
   3.3285963E-04   1.2530538E+05   -1.7227725E+00
   3.3439681E-04   1.2431485E+05   -1.7222034E+00
   3.3594109E-04   1.2333248E+05   -1.7216347E+00
   3.3749250E-04   1.2235819E+05   -1.7210662E+00
   3.3905108E-04   1.2139191E+05   -1.7204981E+00
   3.4061685E-04   1.2043358E+05   -1.7199302E+00
   3.4218986E-04   1.1948313E+05   -1.7193627E+00
   3.4377013E-04   1.1854049E+05   -1.7187955E+00
   3.4535769E-04   1.1760559E+05   -1.7182286E+00
   3.4695259E-04   1.1667837E+05   -1.7176620E+00
   3.4855485E-04   1.1575876E+05   -1.7170958E+00
   3.5016452E-04   1.1484670E+05   -1.7165299E+00
   3.5178161E-04   1.1394213E+05   -1.7159644E+00
   3.5340618E-04   1.1304497E+05   -1.7153992E+00
   3.5503824E-04   1.1215517E+05   -1.7148344E+00
   3.5667785E-04   1.1127266E+05   -1.7142699E+00
   3.5832502E-04   1.1039738E+05   -1.7137058E+00
   3.5997981E-04   1.0952928E+05   -1.7131421E+00
   3.6164223E-04   1.0866828E+05   -1.7125788E+00
   3.6331233E-04   1.0781433E+05   -1.7120159E+00
   3.6499015E-04   1.0696736E+05   -1.7114533E+00
   3.6667571E-04   1.0612733E+05   -1.7108912E+00
   3.6836906E-04   1.0529417E+05   -1.7103295E+00
   3.7007022E-04   1.0446781E+05   -1.7097681E+00
   3.7177925E-04   1.0364821E+05   -1.7092072E+00
   3.7349616E-04   1.0283531E+05   -1.7086467E+00
   3.7522101E-04   1.0202904E+05   -1.7080867E+00
   3.7695382E-04   1.0122936E+05   -1.7075270E+00
   3.7869463E-04   1.0043620E+05   -1.7069678E+00
   3.8044348E-04   9.9649516E+04   -1.7064091E+00
   3.8220041E-04   9.8869247E+04   -1.7058508E+00
   3.8396545E-04   9.8095340E+04   -1.7052929E+00
   3.8573864E-04   9.7327741E+04   -1.7047355E+00
   3.8752002E-04   9.6566397E+04   -1.7041786E+00
   3.8930963E-04   9.5811253E+04   -1.7036221E+00
   3.9110750E-04   9.5062259E+04   -1.7030661E+00
   3.9291368E-04   9.4319361E+04   -1.7025106E+00
   3.9472820E-04   9.3582508E+04   -1.7019556E+00
   3.9655109E-04   9.2851648E+04   -1.7014011E+00
   3.9838241E-04   9.2126732E+04   -1.7008470E+00
   4.0022218E-04   9.1407709E+04   -1.7002935E+00
   4.0207045E-04   9.0694529E+04   -1.6997405E+00
   4.0392725E-04   8.9987143E+04   -1.6991880E+00
   4.0579263E-04   8.9285501E+04   -1.6986360E+00
   4.0766662E-04   8.8589555E+04   -1.6980845E+00
   4.0954927E-04   8.7899257E+04   -1.6975335E+00
   4.1144061E-04   8.7214559E+04   -1.6969831E+00
   4.1334068E-04   8.6535414E+04   -1.6964332E+00
   4.1524953E-04   8.5861775E+04   -1.6958839E+00
   4.1716720E-04   8.5193595E+04   -1.6953351E+00
   4.1909372E-04   8.4530829E+04   -1.6947869E+00
   4.2102914E-04   8.3873431E+04   -1.6942392E+00
   4.2297350E-04   8.3221355E+04   -1.6936921E+00
   4.2492683E-04   8.2574556E+04   -1.6931455E+00
   4.2688919E-04   8.1932991E+04   -1.6925995E+00
   4.2886061E-04   8.1296615E+04   -1.6920541E+00
   4.3084113E-04   8.0665385E+04   -1.6915093E+00
   4.3283080E-04   8.0039256E+04   -1.6909650E+00
   4.3482966E-04   7.9418186E+04   -1.6904214E+00
   4.3683775E-04   7.8802133E+04   -1.6898783E+00
   4.3885511E-04   7.8191055E+04   -1.6893359E+00
   4.4088179E-04   7.7584908E+04   -1.6887940E+00
   4.4291783E-04   7.6983653E+04   -1.6882528E+00
   4.4496327E-04   7.6387247E+04   -1.6877122E+00
   4.4701816E-04   7.5795651E+04   -1.6871722E+00
   4.4908253E-04   7.5208823E+04   -1.6866328E+00
   4.5115644E-04   7.4626725E+04   -1.6860940E+00
   4.5323993E-04   7.4049315E+04   -1.6855559E+00
   4.5533304E-04   7.3476555E+04   -1.6850184E+00
   4.5743582E-04   7.2908405E+04   -1.6844816E+00
   4.5954830E-04   7.2344828E+04   -1.6839454E+00
   4.6167054E-04   7.1785784E+04   -1.6834099E+00
   4.6380259E-04   7.1231236E+04   -1.6828750E+00
   4.6594448E-04   7.0681146E+04   -1.6823407E+00
   4.6809626E-04   7.0135476E+04   -1.6818072E+00
   4.7025797E-04   6.9594190E+04   -1.6812743E+00
   4.7242967E-04   6.9057251E+04   -1.6807421E+00
   4.7461140E-04   6.8524623E+04   -1.6802105E+00
   4.7680321E-04   6.7996269E+04   -1.6796797E+00
   4.7900514E-04   6.7472154E+04   -1.6791495E+00
   4.8121723E-04   6.6952242E+04   -1.6786200E+00
   4.8343954E-04   6.6436498E+04   -1.6780913E+00
   4.8567212E-04   6.5924888E+04   -1.6775632E+00
   4.8791500E-04   6.5417377E+04   -1.6770358E+00
   4.9016825E-04   6.4913930E+04   -1.6765091E+00
   4.9243189E-04   6.4414514E+04   -1.6759832E+00
   4.9470600E-04   6.3919095E+04   -1.6754579E+00
   4.9699060E-04   6.3427640E+04   -1.6749334E+00
   4.9928575E-04   6.2940115E+04   -1.6744096E+00
   5.0159151E-04   6.2456488E+04   -1.6738865E+00
   5.0390791E-04   6.1976727E+04   -1.6733642E+00
   5.0623501E-04   6.1500798E+04   -1.6728426E+00
   5.0857286E-04   6.1028671E+04   -1.6723217E+00
   5.1092150E-04   6.0560314E+04   -1.6718016E+00
   5.1328099E-04   6.0095695E+04   -1.6712822E+00
   5.1565137E-04   5.9634783E+04   -1.6707636E+00
   5.1803270E-04   5.9177548E+04   -1.6702458E+00
   5.2042503E-04   5.8723958E+04   -1.6697287E+00
   5.2282841E-04   5.8273984E+04   -1.6692123E+00
   5.2524289E-04   5.7827595E+04   -1.6686967E+00
   5.2766851E-04   5.7384762E+04   -1.6681819E+00
   5.3010534E-04   5.6945455E+04   -1.6676679E+00
   5.3255342E-04   5.6509644E+04   -1.6671547E+00
   5.3501281E-04   5.6077302E+04   -1.6666422E+00
   5.3748356E-04   5.5648398E+04   -1.6661305E+00
   5.3996571E-04   5.5222905E+04   -1.6656196E+00
   5.4245933E-04   5.4800795E+04   -1.6651095E+00
   5.4496446E-04   5.4382038E+04   -1.6646002E+00
   5.4748117E-04   5.3966609E+04   -1.6640917E+00
   5.5000949E-04   5.3554477E+04   -1.6635840E+00
   5.5254949E-04   5.3145618E+04   -1.6630771E+00
   5.5510123E-04   5.2740003E+04   -1.6625711E+00
   5.5766474E-04   5.2337606E+04   -1.6620658E+00
   5.6024010E-04   5.1938399E+04   -1.6615613E+00
   5.6282734E-04   5.1542358E+04   -1.6610577E+00
   5.6542654E-04   5.1149454E+04   -1.6605549E+00
   5.6803774E-04   5.0759664E+04   -1.6600529E+00
   5.7066099E-04   5.0372960E+04   -1.6595518E+00
   5.7329637E-04   4.9989317E+04   -1.6590515E+00
   5.7594391E-04   4.9608711E+04   -1.6585520E+00
   5.7860368E-04   4.9231116E+04   -1.6580533E+00
   5.8127573E-04   4.8856507E+04   -1.6575555E+00
   5.8396012E-04   4.8484859E+04   -1.6570586E+00
   5.8665691E-04   4.8116149E+04   -1.6565625E+00
   5.8936616E-04   4.7750352E+04   -1.6560672E+00
   5.9208791E-04   4.7387444E+04   -1.6555729E+00
   5.9482223E-04   4.7027400E+04   -1.6550793E+00
   5.9756919E-04   4.6670199E+04   -1.6545866E+00
   6.0032882E-04   4.6315815E+04   -1.6540948E+00
   6.0310120E-04   4.5964227E+04   -1.6536039E+00
   6.0588639E-04   4.5615411E+04   -1.6531138E+00
   6.0868443E-04   4.5269343E+04   -1.6526246E+00
   6.1149540E-04   4.4926003E+04   -1.6521363E+00
   6.1431935E-04   4.4585367E+04   -1.6516489E+00
   6.1715634E-04   4.4247413E+04   -1.6511623E+00
   6.2000644E-04   4.3912119E+04   -1.6506766E+00
   6.2286969E-04   4.3579463E+04   -1.6501918E+00
