#        a       HoverH0(a)       dlogHdloga_of_a(a)
   1.0000000E-04   1.1105065E+06   -1.8660094E+00
   1.0046181E-04   1.1010009E+06   -1.8655570E+00
   1.0092575E-04   1.0915789E+06   -1.8651036E+00
   1.0139184E-04   1.0822399E+06   -1.8646493E+00
   1.0186008E-04   1.0729830E+06   -1.8641940E+00
   1.0233048E-04   1.0638075E+06   -1.8637377E+00
   1.0280305E-04   1.0547126E+06   -1.8632805E+00
   1.0327781E-04   1.0456978E+06   -1.8628223E+00
   1.0375475E-04   1.0367621E+06   -1.8623632E+00
   1.0423390E-04   1.0279051E+06   -1.8619031E+00
   1.0471527E-04   1.0191258E+06   -1.8614421E+00
   1.0519885E-04   1.0104237E+06   -1.8609801E+00
   1.0568467E-04   1.0017980E+06   -1.8605171E+00
   1.0617274E-04   9.9324804E+05   -1.8600533E+00
   1.0666305E-04   9.8477318E+05   -1.8595885E+00
   1.0715563E-04   9.7637273E+05   -1.8591227E+00
   1.0765049E-04   9.6804602E+05   -1.8586560E+00
   1.0814763E-04   9.5979239E+05   -1.8581884E+00
   1.0864707E-04   9.5161117E+05   -1.8577199E+00
   1.0914881E-04   9.4350174E+05   -1.8572504E+00
   1.0965287E-04   9.3546344E+05   -1.8567799E+00
   1.1015926E-04   9.2749563E+05   -1.8563086E+00
   1.1066799E-04   9.1959768E+05   -1.8558363E+00
   1.1117906E-04   9.1176898E+05   -1.8553631E+00
   1.1169250E-04   9.0400889E+05   -1.8548890E+00
   1.1220831E-04   8.9631682E+05   -1.8544140E+00
   1.1272650E-04   8.8869213E+05   -1.8539381E+00
   1.1324708E-04   8.8113425E+05   -1.8534612E+00
   1.1377007E-04   8.7364256E+05   -1.8529834E+00
   1.1429547E-04   8.6621648E+05   -1.8525048E+00
   1.1482330E-04   8.5885542E+05   -1.8520252E+00
   1.1535356E-04   8.5155879E+05   -1.8515447E+00
   1.1588628E-04   8.4432603E+05   -1.8510633E+00
   1.1642145E-04   8.3715655E+05   -1.8505810E+00
   1.1695910E-04   8.3004980E+05   -1.8500979E+00
   1.1749923E-04   8.2300522E+05   -1.8496138E+00
   1.1804185E-04   8.1602224E+05   -1.8491288E+00
   1.1858698E-04   8.0910032E+05   -1.8486430E+00
   1.1913463E-04   8.0223891E+05   -1.8481563E+00
   1.1968481E-04   7.9543748E+05   -1.8476687E+00
   1.2023752E-04   7.8869548E+05   -1.8471802E+00
   1.2079279E-04   7.8201239E+05   -1.8466908E+00
   1.2135063E-04   7.7538768E+05   -1.8462006E+00
   1.2191104E-04   7.6882082E+05   -1.8457095E+00
   1.2247403E-04   7.6231131E+05   -1.8452175E+00
   1.2303963E-04   7.5585863E+05   -1.8447246E+00
   1.2360784E-04   7.4946227E+05   -1.8442309E+00
   1.2417868E-04   7.4312174E+05   -1.8437364E+00
   1.2475215E-04   7.3683652E+05   -1.8432410E+00
   1.2532826E-04   7.3060613E+05   -1.8427447E+00
   1.2590704E-04   7.2443008E+05   -1.8422476E+00
   1.2648850E-04   7.1830789E+05   -1.8417496E+00
   1.2707263E-04   7.1223907E+05   -1.8412508E+00
   1.2765947E-04   7.0622315E+05   -1.8407512E+00
   1.2824901E-04   7.0025965E+05   -1.8402507E+00
   1.2884128E-04   6.9434812E+05   -1.8397494E+00
   1.2943628E-04   6.8848808E+05   -1.8392473E+00
   1.3003403E-04   6.8267908E+05   -1.8387443E+00
   1.3063454E-04   6.7692066E+05   -1.8382405E+00
   1.3123783E-04   6.7121238E+05   -1.8377359E+00
   1.3184390E-04   6.6555378E+05   -1.8372304E+00
   1.3245277E-04   6.5994442E+05   -1.8367242E+00
   1.3306445E-04   6.5438386E+05   -1.8362171E+00
   1.3367895E-04   6.4887168E+05   -1.8357093E+00
   1.3429630E-04   6.4340743E+05   -1.8352006E+00
   1.3491649E-04   6.3799069E+05   -1.8346912E+00
   1.3553955E-04   6.3262104E+05   -1.8341809E+00
   1.3616548E-04   6.2729807E+05   -1.8336699E+00
   1.3679431E-04   6.2202134E+05   -1.8331580E+00
   1.3742604E-04   6.1679046E+05   -1.8326454E+00
   1.3806069E-04   6.1160502E+05   -1.8321320E+00
   1.3869827E-04   6.0646460E+05   -1.8316178E+00
   1.3933879E-04   6.0136882E+05   -1.8311028E+00
   1.3998227E-04   5.9631726E+05   -1.8305871E+00
   1.4062872E-04   5.9130955E+05   -1.8300706E+00
   1.4127816E-04   5.8634529E+05   -1.8295534E+00
   1.4193060E-04   5.8142409E+05   -1.8290353E+00
   1.4258605E-04   5.7654557E+05   -1.8285166E+00
   1.4324453E-04   5.7170935E+05   -1.8279970E+00
   1.4390605E-04   5.6691505E+05   -1.8274768E+00
   1.4457062E-04   5.6216232E+05   -1.8269558E+00
   1.4523826E-04   5.5745076E+05   -1.8264340E+00
   1.4590899E-04   5.5278003E+05   -1.8259115E+00
   1.4658281E-04   5.4814974E+05   -1.8253883E+00
   1.4725974E-04   5.4355956E+05   -1.8248643E+00
   1.4793981E-04   5.3900911E+05   -1.8243397E+00
   1.4862301E-04   5.3449805E+05   -1.8238143E+00
   1.4930936E-04   5.3002603E+05   -1.8232882E+00
   1.4999889E-04   5.2559270E+05   -1.8227613E+00
   1.5069160E-04   5.2119772E+05   -1.8222338E+00
   1.5138751E-04   5.1684075E+05   -1.8217056E+00
   1.5208663E-04   5.1252144E+05   -1.8211766E+00
   1.5278899E-04   5.0823948E+05   -1.8206470E+00
   1.5349458E-04   5.0399451E+05   -1.8201167E+00
   1.5420343E-04   4.9978623E+05   -1.8195857E+00
   1.5491556E-04   4.9561430E+05   -1.8190540E+00
   1.5563098E-04   4.9147840E+05   -1.8185217E+00
   1.5634970E-04   4.8737820E+05   -1.8179886E+00
   1.5707174E-04   4.8331341E+05   -1.8174549E+00
   1.5779711E-04   4.7928369E+05   -1.8169206E+00
   1.5852584E-04   4.7528874E+05   -1.8163856E+00
   1.5925792E-04   4.7132825E+05   -1.8158499E+00
   1.5999339E-04   4.6740192E+05   -1.8153135E+00
   1.6073226E-04   4.6350944E+05   -1.8147766E+00
   1.6147454E-04   4.5965052E+05   -1.8142389E+00
   1.6222024E-04   4.5582485E+05   -1.8137007E+00
   1.6296939E-04   4.5203215E+05   -1.8131618E+00
   1.6372200E-04   4.4827211E+05   -1.8126223E+00
   1.6447809E-04   4.4454446E+05   -1.8120822E+00
   1.6523767E-04   4.4084891E+05   -1.8115414E+00
   1.6600075E-04   4.3718517E+05   -1.8110000E+00
   1.6676736E-04   4.3355295E+05   -1.8104580E+00
   1.6753751E-04   4.2995199E+05   -1.8099155E+00
   1.6831122E-04   4.2638200E+05   -1.8093723E+00
   1.6908849E-04   4.2284272E+05   -1.8088285E+00
   1.6986936E-04   4.1933386E+05   -1.8082841E+00
   1.7065384E-04   4.1585516E+05   -1.8077392E+00
   1.7144193E-04   4.1240636E+05   -1.8071936E+00
   1.7223367E-04   4.0898719E+05   -1.8066475E+00
   1.7302906E-04   4.0559739E+05   -1.8061008E+00
   1.7382813E-04   4.0223670E+05   -1.8055536E+00
   1.7463089E-04   3.9890486E+05   -1.8050058E+00
   1.7543735E-04   3.9560162E+05   -1.8044574E+00
   1.7624754E-04   3.9232672E+05   -1.8039085E+00
   1.7706147E-04   3.8907992E+05   -1.8033591E+00
   1.7787916E-04   3.8586096E+05   -1.8028091E+00
   1.7870062E-04   3.8266961E+05   -1.8022585E+00
   1.7952588E-04   3.7950561E+05   -1.8017074E+00
   1.8035495E-04   3.7636873E+05   -1.8011559E+00
   1.8118785E-04   3.7325873E+05   -1.8006037E+00
   1.8202459E-04   3.7017537E+05   -1.8000511E+00
   1.8286520E-04   3.6711841E+05   -1.7994980E+00
   1.8370969E-04   3.6408763E+05   -1.7989443E+00
   1.8455808E-04   3.6108279E+05   -1.7983902E+00
   1.8541039E-04   3.5810367E+05   -1.7978355E+00
   1.8626663E-04   3.5515003E+05   -1.7972804E+00
   1.8712683E-04   3.5222165E+05   -1.7967248E+00
   1.8799100E-04   3.4931832E+05   -1.7961687E+00
   1.8885917E-04   3.4643980E+05   -1.7956121E+00
   1.8973134E-04   3.4358589E+05   -1.7950551E+00
   1.9060754E-04   3.4075636E+05   -1.7944976E+00
   1.9148778E-04   3.3795100E+05   -1.7939397E+00
   1.9237209E-04   3.3516960E+05   -1.7933812E+00
   1.9326049E-04   3.3241195E+05   -1.7928224E+00
   1.9415299E-04   3.2967783E+05   -1.7922631E+00
   1.9504960E-04   3.2696705E+05   -1.7917034E+00
   1.9595036E-04   3.2427939E+05   -1.7911432E+00
   1.9685528E-04   3.2161465E+05   -1.7905826E+00
   1.9776438E-04   3.1897264E+05   -1.7900216E+00
   1.9867768E-04   3.1635315E+05   -1.7894602E+00
   1.9959519E-04   3.1375598E+05   -1.7888984E+00
   2.0051694E-04   3.1118094E+05   -1.7883361E+00
   2.0144295E-04   3.0862783E+05   -1.7877735E+00
   2.0237324E-04   3.0609647E+05   -1.7872105E+00
   2.0330782E-04   3.0358665E+05   -1.7866471E+00
   2.0424671E-04   3.0109820E+05   -1.7860833E+00
   2.0518995E-04   2.9863092E+05   -1.7855191E+00
   2.0613754E-04   2.9618462E+05   -1.7849546E+00
   2.0708950E-04   2.9375913E+05   -1.7843897E+00
   2.0804586E-04   2.9135426E+05   -1.7838244E+00
   2.0900664E-04   2.8896983E+05   -1.7832588E+00
   2.0997185E-04   2.8660567E+05   -1.7826928E+00
   2.1094152E-04   2.8426158E+05   -1.7821265E+00
   2.1191567E-04   2.8193741E+05   -1.7815599E+00
   2.1289432E-04   2.7963297E+05   -1.7809929E+00
   2.1387749E-04   2.7734808E+05   -1.7804257E+00
   2.1486520E-04   2.7508259E+05   -1.7798580E+00
   2.1585747E-04   2.7283631E+05   -1.7792901E+00
   2.1685432E-04   2.7060909E+05   -1.7787219E+00
   2.1785578E-04   2.6840075E+05   -1.7781534E+00
   2.1886186E-04   2.6621113E+05   -1.7775845E+00
   2.1987259E-04   2.6404007E+05   -1.7770154E+00
   2.2088798E-04   2.6188739E+05   -1.7764460E+00
   2.2190807E-04   2.5975295E+05   -1.7758764E+00
   2.2293286E-04   2.5763659E+05   -1.7753064E+00
   2.2396239E-04   2.5553813E+05   -1.7747362E+00
   2.2499667E-04   2.5345744E+05   -1.7741657E+00
   2.2603573E-04   2.5139435E+05   -1.7735950E+00
   2.2707958E-04   2.4934870E+05   -1.7730240E+00
   2.2812826E-04   2.4732035E+05   -1.7724528E+00
   2.2918178E-04   2.4530915E+05   -1.7718813E+00
   2.3024017E-04   2.4331495E+05   -1.7713096E+00
   2.3130344E-04   2.4133759E+05   -1.7707377E+00
   2.3237162E-04   2.3937693E+05   -1.7701656E+00
   2.3344474E-04   2.3743283E+05   -1.7695933E+00
   2.3452281E-04   2.3550514E+05   -1.7690207E+00
   2.3560586E-04   2.3359371E+05   -1.7684479E+00
   2.3669392E-04   2.3169841E+05   -1.7678750E+00
   2.3778699E-04   2.2981909E+05   -1.7673019E+00
   2.3888512E-04   2.2795562E+05   -1.7667285E+00
   2.3998831E-04   2.2610786E+05   -1.7661550E+00
   2.4109661E-04   2.2427567E+05   -1.7655814E+00
   2.4221001E-04   2.2245891E+05   -1.7650075E+00
   2.4332857E-04   2.2065745E+05   -1.7644335E+00
   2.4445228E-04   2.1887116E+05   -1.7638594E+00
   2.4558119E-04   2.1709990E+05   -1.7632851E+00
   2.4671531E-04   2.1534355E+05   -1.7627107E+00
   2.4785467E-04   2.1360197E+05   -1.7621361E+00
   2.4899928E-04   2.1187504E+05   -1.7615614E+00
   2.5014919E-04   2.1016263E+05   -1.7609866E+00
   2.5130440E-04   2.0846460E+05   -1.7604116E+00
   2.5246495E-04   2.0678085E+05   -1.7598366E+00
   2.5363086E-04   2.0511124E+05   -1.7592614E+00
   2.5480216E-04   2.0345565E+05   -1.7586862E+00
   2.5597886E-04   2.0181396E+05   -1.7581108E+00
   2.5716100E-04   2.0018604E+05   -1.7575354E+00
   2.5834859E-04   1.9857178E+05   -1.7569599E+00
   2.5954168E-04   1.9697107E+05   -1.7563843E+00
   2.6074027E-04   1.9538377E+05   -1.7558087E+00
   2.6194439E-04   1.9380978E+05   -1.7552330E+00
   2.6315408E-04   1.9224898E+05   -1.7546572E+00
   2.6436935E-04   1.9070125E+05   -1.7540814E+00
   2.6559024E-04   1.8916649E+05   -1.7535055E+00
   2.6681676E-04   1.8764458E+05   -1.7529296E+00
   2.6804895E-04   1.8613540E+05   -1.7523537E+00
   2.6928683E-04   1.8463885E+05   -1.7517777E+00
   2.7053042E-04   1.8315483E+05   -1.7512017E+00
   2.7177976E-04   1.8168321E+05   -1.7506257E+00
   2.7303487E-04   1.8022389E+05   -1.7500497E+00
   2.7429577E-04   1.7877677E+05   -1.7494737E+00
   2.7556250E-04   1.7734174E+05   -1.7488977E+00
   2.7683507E-04   1.7591869E+05   -1.7483217E+00
   2.7811353E-04   1.7450753E+05   -1.7477458E+00
   2.7939788E-04   1.7310815E+05   -1.7471698E+00
   2.8068817E-04   1.7172044E+05   -1.7465939E+00
   2.8198442E-04   1.7034431E+05   -1.7460180E+00
   2.8328665E-04   1.6897966E+05   -1.7454422E+00
   2.8459490E-04   1.6762639E+05   -1.7448664E+00
   2.8590919E-04   1.6628439E+05   -1.7442907E+00
   2.8722955E-04   1.6495357E+05   -1.7437150E+00
   2.8855600E-04   1.6363384E+05   -1.7431394E+00
   2.8988859E-04   1.6232510E+05   -1.7425639E+00
   2.9122732E-04   1.6102725E+05   -1.7419884E+00
   2.9257224E-04   1.5974021E+05   -1.7414130E+00
   2.9392337E-04   1.5846387E+05   -1.7408377E+00
   2.9528074E-04   1.5719814E+05   -1.7402626E+00
   2.9664438E-04   1.5594294E+05   -1.7396875E+00
   2.9801431E-04   1.5469817E+05   -1.7391125E+00
   2.9939057E-04   1.5346374E+05   -1.7385376E+00
   3.0077319E-04   1.5223957E+05   -1.7379629E+00
   3.0216219E-04   1.5102556E+05   -1.7373883E+00
   3.0355761E-04   1.4982163E+05   -1.7368138E+00
   3.0495947E-04   1.4862769E+05   -1.7362395E+00
   3.0636780E-04   1.4744366E+05   -1.7356653E+00
   3.0778264E-04   1.4626944E+05   -1.7350912E+00
   3.0920401E-04   1.4510496E+05   -1.7345174E+00
   3.1063195E-04   1.4395013E+05   -1.7339436E+00
   3.1206648E-04   1.4280487E+05   -1.7333701E+00
   3.1350764E-04   1.4166909E+05   -1.7327967E+00
   3.1495545E-04   1.4054272E+05   -1.7322235E+00
   3.1640994E-04   1.3942567E+05   -1.7316505E+00
   3.1787116E-04   1.3831787E+05   -1.7310777E+00
   3.1933912E-04   1.3721923E+05   -1.7305051E+00
   3.2081386E-04   1.3612967E+05   -1.7299326E+00
   3.2229541E-04   1.3504913E+05   -1.7293604E+00
   3.2378381E-04   1.3397751E+05   -1.7287885E+00
   3.2527908E-04   1.3291475E+05   -1.7282167E+00
   3.2678125E-04   1.3186076E+05   -1.7276452E+00
   3.2829036E-04   1.3081548E+05   -1.7270739E+00
   3.2980644E-04   1.2977882E+05   -1.7265028E+00
   3.3132952E-04   1.2875072E+05   -1.7259320E+00
   3.3285963E-04   1.2773110E+05   -1.7253614E+00
   3.3439681E-04   1.2671988E+05   -1.7247911E+00
   3.3594109E-04   1.2571700E+05   -1.7242211E+00
   3.3749250E-04   1.2472239E+05   -1.7236513E+00
   3.3905108E-04   1.2373597E+05   -1.7230818E+00
   3.4061685E-04   1.2275767E+05   -1.7225126E+00
   3.4218986E-04   1.2178743E+05   -1.7219437E+00
   3.4377013E-04   1.2082518E+05   -1.7213751E+00
   3.4535769E-04   1.1987083E+05   -1.7208068E+00
   3.4695259E-04   1.1892434E+05   -1.7202387E+00
   3.4855485E-04   1.1798563E+05   -1.7196710E+00
   3.5016452E-04   1.1705464E+05   -1.7191036E+00
   3.5178161E-04   1.1613130E+05   -1.7185366E+00
   3.5340618E-04   1.1521554E+05   -1.7179698E+00
   3.5503824E-04   1.1430730E+05   -1.7174034E+00
   3.5667785E-04   1.1340651E+05   -1.7168373E+00
   3.5832502E-04   1.1251312E+05   -1.7162716E+00
   3.5997981E-04   1.1162706E+05   -1.7157062E+00
   3.6164223E-04   1.1074826E+05   -1.7151412E+00
   3.6331233E-04   1.0987667E+05   -1.7145766E+00
   3.6499015E-04   1.0901222E+05   -1.7140123E+00
   3.6667571E-04   1.0815485E+05   -1.7134484E+00
   3.6836906E-04   1.0730451E+05   -1.7128848E+00
   3.7007022E-04   1.0646112E+05   -1.7123217E+00
   3.7177925E-04   1.0562464E+05   -1.7117589E+00
   3.7349616E-04   1.0479500E+05   -1.7111966E+00
   3.7522101E-04   1.0397215E+05   -1.7106346E+00
   3.7695382E-04   1.0315603E+05   -1.7100730E+00
   3.7869463E-04   1.0234658E+05   -1.7095119E+00
   3.8044348E-04   1.0154374E+05   -1.7089512E+00
   3.8220041E-04   1.0074746E+05   -1.7083909E+00
   3.8396545E-04   9.9957679E+04   -1.7078310E+00
   3.8573864E-04   9.9174348E+04   -1.7072716E+00
   3.8752002E-04   9.8397409E+04   -1.7067126E+00
   3.8930963E-04   9.7626808E+04   -1.7061540E+00
   3.9110750E-04   9.6862491E+04   -1.7055959E+00
   3.9291368E-04   9.6104405E+04   -1.7050382E+00
   3.9472820E-04   9.5352496E+04   -1.7044811E+00
   3.9655109E-04   9.4606714E+04   -1.7039243E+00
   3.9838241E-04   9.3867005E+04   -1.7033681E+00
   4.0022218E-04   9.3133318E+04   -1.7028123E+00
   4.0207045E-04   9.2405602E+04   -1.7022570E+00
   4.0392725E-04   9.1683808E+04   -1.7017022E+00
   4.0579263E-04   9.0967883E+04   -1.7011479E+00
   4.0766662E-04   9.0257780E+04   -1.7005941E+00
   4.0954927E-04   8.9553448E+04   -1.7000408E+00
   4.1144061E-04   8.8854838E+04   -1.6994880E+00
   4.1334068E-04   8.8161903E+04   -1.6989357E+00
   4.1524953E-04   8.7474595E+04   -1.6983839E+00
   4.1716720E-04   8.6792865E+04   -1.6978327E+00
   4.1909372E-04   8.6116666E+04   -1.6972820E+00
   4.2102914E-04   8.5445953E+04   -1.6967318E+00
   4.2297350E-04   8.4780678E+04   -1.6961822E+00
   4.2492683E-04   8.4120796E+04   -1.6956331E+00
   4.2688919E-04   8.3466261E+04   -1.6950845E+00
   4.2886061E-04   8.2817029E+04   -1.6945365E+00
   4.3084113E-04   8.2173053E+04   -1.6939891E+00
   4.3283080E-04   8.1534291E+04   -1.6934422E+00
   4.3482966E-04   8.0900698E+04   -1.6928959E+00
   4.3683775E-04   8.0272230E+04   -1.6923502E+00
   4.3885511E-04   7.9648845E+04   -1.6918050E+00
   4.4088179E-04   7.9030499E+04   -1.6912605E+00
   4.4291783E-04   7.8417150E+04   -1.6907165E+00
   4.4496327E-04   7.7808756E+04   -1.6901731E+00
   4.4701816E-04   7.7205276E+04   -1.6896303E+00
   4.4908253E-04   7.6606667E+04   -1.6890881E+00
   4.5115644E-04   7.6012890E+04   -1.6885466E+00
   4.5323993E-04   7.5423903E+04   -1.6880056E+00
   4.5533304E-04   7.4839667E+04   -1.6874653E+00
   4.5743582E-04   7.4260140E+04   -1.6869255E+00
   4.5954830E-04   7.3685285E+04   -1.6863864E+00
   4.6167054E-04   7.3115061E+04   -1.6858480E+00
   4.6380259E-04   7.2549430E+04   -1.6853101E+00
   4.6594448E-04   7.1988352E+04   -1.6847729E+00
   4.6809626E-04   7.1431791E+04   -1.6842364E+00
   4.7025797E-04   7.0879708E+04   -1.6837005E+00
   4.7242967E-04   7.0332065E+04   -1.6831652E+00
   4.7461140E-04   6.9788825E+04   -1.6826307E+00
   4.7680321E-04   6.9249952E+04   -1.6820967E+00
   4.7900514E-04   6.8715408E+04   -1.6815635E+00
   4.8121723E-04   6.8185159E+04   -1.6810309E+00
   4.8343954E-04   6.7659167E+04   -1.6804990E+00
   4.8567212E-04   6.7137397E+04   -1.6799677E+00
   4.8791500E-04   6.6619814E+04   -1.6794372E+00
   4.9016825E-04   6.6106382E+04   -1.6789073E+00
   4.9243189E-04   6.5597068E+04   -1.6783782E+00
   4.9470600E-04   6.5091836E+04   -1.6778497E+00
   4.9699060E-04   6.4590652E+04   -1.6773219E+00
   4.9928575E-04   6.4093483E+04   -1.6767949E+00
   5.0159151E-04   6.3600295E+04   -1.6762685E+00
   5.0390791E-04   6.3111056E+04   -1.6757429E+00
   5.0623501E-04   6.2625731E+04   -1.6752179E+00
   5.0857286E-04   6.2144288E+04   -1.6746937E+00
   5.1092150E-04   6.1666696E+04   -1.6741703E+00
   5.1328099E-04   6.1192922E+04   -1.6736475E+00
   5.1565137E-04   6.0722933E+04   -1.6731255E+00
   5.1803270E-04   6.0256699E+04   -1.6726043E+00
   5.2042503E-04   5.9794189E+04   -1.6720837E+00
   5.2282841E-04   5.9335370E+04   -1.6715639E+00
   5.2524289E-04   5.8880214E+04   -1.6710449E+00
   5.2766851E-04   5.8428688E+04   -1.6705266E+00
   5.3010534E-04   5.7980763E+04   -1.6700091E+00
   5.3255342E-04   5.7536409E+04   -1.6694923E+00
   5.3501281E-04   5.7095597E+04   -1.6689763E+00
   5.3748356E-04   5.6658296E+04   -1.6684611E+00
   5.3996571E-04   5.6224478E+04   -1.6679467E+00
   5.4245933E-04   5.5794114E+04   -1.6674330E+00
   5.4496446E-04   5.5367175E+04   -1.6669201E+00
   5.4748117E-04   5.4943632E+04   -1.6664080E+00
   5.5000949E-04   5.4523459E+04   -1.6658966E+00
   5.5254949E-04   5.4106625E+04   -1.6653861E+00
   5.5510123E-04   5.3693105E+04   -1.6648764E+00
   5.5766474E-04   5.3282870E+04   -1.6643674E+00
   5.6024010E-04   5.2875894E+04   -1.6638593E+00
   5.6282734E-04   5.2472148E+04   -1.6633519E+00
   5.6542654E-04   5.2071607E+04   -1.6628454E+00
   5.6803774E-04   5.1674244E+04   -1.6623397E+00
   5.7066099E-04   5.1280033E+04   -1.6618348E+00
   5.7329637E-04   5.0888947E+04   -1.6613307E+00
   5.7594391E-04   5.0500962E+04   -1.6608275E+00
   5.7860368E-04   5.0116050E+04   -1.6603250E+00
   5.8127573E-04   4.9734187E+04   -1.6598234E+00
   5.8396012E-04   4.9355348E+04   -1.6593226E+00
   5.8665691E-04   4.8979508E+04   -1.6588227E+00
   5.8936616E-04   4.8606641E+04   -1.6583236E+00
   5.9208791E-04   4.8236724E+04   -1.6578253E+00
   5.9482223E-04   4.7869732E+04   -1.6573279E+00
   5.9756919E-04   4.7505640E+04   -1.6568313E+00
   6.0032882E-04   4.7144426E+04   -1.6563356E+00
   6.0310120E-04   4.6786065E+04   -1.6558408E+00
   6.0588639E-04   4.6430533E+04   -1.6553468E+00
   6.0868443E-04   4.6077809E+04   -1.6548536E+00
   6.1149540E-04   4.5727867E+04   -1.6543613E+00
   6.1431935E-04   4.5380686E+04   -1.6538699E+00
   6.1715634E-04   4.5036243E+04   -1.6533794E+00
   6.2000644E-04   4.4694516E+04   -1.6528897E+00
   6.2286969E-04   4.4355481E+04   -1.6524009E+00
