#        a       HoverH0(a)       dlogHdloga_of_a(a)
   1.0000000E-04   1.1248803E+06   -1.8463758E+00
   1.0046181E-04   1.1153526E+06   -1.8458850E+00
   1.0092575E-04   1.1059082E+06   -1.8453933E+00
   1.0139184E-04   1.0965462E+06   -1.8449008E+00
   1.0186008E-04   1.0872659E+06   -1.8444074E+00
   1.0233048E-04   1.0780667E+06   -1.8439132E+00
   1.0280305E-04   1.0689477E+06   -1.8434181E+00
   1.0327781E-04   1.0599082E+06   -1.8429221E+00
   1.0375475E-04   1.0509476E+06   -1.8424253E+00
   1.0423390E-04   1.0420651E+06   -1.8419277E+00
   1.0471527E-04   1.0332601E+06   -1.8414292E+00
   1.0519885E-04   1.0245319E+06   -1.8409298E+00
   1.0568467E-04   1.0158797E+06   -1.8404297E+00
   1.0617274E-04   1.0073029E+06   -1.8399287E+00
   1.0666305E-04   9.9880077E+05   -1.8394268E+00
   1.0715563E-04   9.9037274E+05   -1.8389242E+00
   1.0765049E-04   9.8201810E+05   -1.8384207E+00
   1.0814763E-04   9.7373620E+05   -1.8379163E+00
   1.0864707E-04   9.6552640E+05   -1.8374112E+00
   1.0914881E-04   9.5738804E+05   -1.8369053E+00
   1.0965287E-04   9.4932049E+05   -1.8363985E+00
   1.1015926E-04   9.4132313E+05   -1.8358909E+00
   1.1066799E-04   9.3339532E+05   -1.8353826E+00
   1.1117906E-04   9.2553645E+05   -1.8348734E+00
   1.1169250E-04   9.1774590E+05   -1.8343634E+00
   1.1220831E-04   9.1002307E+05   -1.8338527E+00
   1.1272650E-04   9.0236735E+05   -1.8333411E+00
   1.1324708E-04   8.9477815E+05   -1.8328288E+00
   1.1377007E-04   8.8725487E+05   -1.8323157E+00
   1.1429547E-04   8.7979693E+05   -1.8318018E+00
   1.1482330E-04   8.7240374E+05   -1.8312871E+00
   1.1535356E-04   8.6507474E+05   -1.8307716E+00
   1.1588628E-04   8.5780934E+05   -1.8302554E+00
   1.1642145E-04   8.5060699E+05   -1.8297385E+00
   1.1695910E-04   8.4346712E+05   -1.8292207E+00
   1.1749923E-04   8.3638918E+05   -1.8287022E+00
   1.1804185E-04   8.2937261E+05   -1.8281830E+00
   1.1858698E-04   8.2241688E+05   -1.8276630E+00
   1.1913463E-04   8.1552143E+05   -1.8271422E+00
   1.1968481E-04   8.0868575E+05   -1.8266207E+00
   1.2023752E-04   8.0190928E+05   -1.8260985E+00
   1.2079279E-04   7.9519152E+05   -1.8255756E+00
   1.2135063E-04   7.8853194E+05   -1.8250519E+00
   1.2191104E-04   7.8193001E+05   -1.8245275E+00
   1.2247403E-04   7.7538524E+05   -1.8240024E+00
   1.2303963E-04   7.6889711E+05   -1.8234765E+00
   1.2360784E-04   7.6246511E+05   -1.8229499E+00
   1.2417868E-04   7.5608875E+05   -1.8224227E+00
   1.2475215E-04   7.4976755E+05   -1.8218947E+00
   1.2532826E-04   7.4350100E+05   -1.8213660E+00
   1.2590704E-04   7.3728862E+05   -1.8208367E+00
   1.2648850E-04   7.3112993E+05   -1.8203066E+00
   1.2707263E-04   7.2502446E+05   -1.8197759E+00
   1.2765947E-04   7.1897174E+05   -1.8192444E+00
   1.2824901E-04   7.1297129E+05   -1.8187123E+00
   1.2884128E-04   7.0702266E+05   -1.8181795E+00
   1.2943628E-04   7.0112538E+05   -1.8176461E+00
   1.3003403E-04   6.9527900E+05   -1.8171120E+00
   1.3063454E-04   6.8948307E+05   -1.8165772E+00
   1.3123783E-04   6.8373714E+05   -1.8160418E+00
   1.3184390E-04   6.7804076E+05   -1.8155057E+00
   1.3245277E-04   6.7239351E+05   -1.8149689E+00
   1.3306445E-04   6.6679494E+05   -1.8144316E+00
   1.3367895E-04   6.6124463E+05   -1.8138935E+00
   1.3429630E-04   6.5574214E+05   -1.8133549E+00
   1.3491649E-04   6.5028705E+05   -1.8128156E+00
   1.3553955E-04   6.4487895E+05   -1.8122757E+00
   1.3616548E-04   6.3951742E+05   -1.8117352E+00
   1.3679431E-04   6.3420205E+05   -1.8111940E+00
   1.3742604E-04   6.2893242E+05   -1.8106523E+00
   1.3806069E-04   6.2370813E+05   -1.8101099E+00
   1.3869827E-04   6.1852879E+05   -1.8095670E+00
   1.3933879E-04   6.1339400E+05   -1.8090234E+00
   1.3998227E-04   6.0830335E+05   -1.8084793E+00
   1.4062872E-04   6.0325646E+05   -1.8079345E+00
   1.4127816E-04   5.9825295E+05   -1.8073892E+00
   1.4193060E-04   5.9329244E+05   -1.8068433E+00
   1.4258605E-04   5.8837453E+05   -1.8062968E+00
   1.4324453E-04   5.8349886E+05   -1.8057498E+00
   1.4390605E-04   5.7866505E+05   -1.8052022E+00
   1.4457062E-04   5.7387273E+05   -1.8046541E+00
   1.4523826E-04   5.6912154E+05   -1.8041054E+00
   1.4590899E-04   5.6441112E+05   -1.8035561E+00
   1.4658281E-04   5.5974109E+05   -1.8030063E+00
   1.4725974E-04   5.5511112E+05   -1.8024560E+00
   1.4793981E-04   5.5052084E+05   -1.8019051E+00
   1.4862301E-04   5.4596990E+05   -1.8013537E+00
   1.4930936E-04   5.4145796E+05   -1.8008018E+00
   1.4999889E-04   5.3698467E+05   -1.8002494E+00
   1.5069160E-04   5.3254970E+05   -1.7996964E+00
   1.5138751E-04   5.2815270E+05   -1.7991430E+00
   1.5208663E-04   5.2379334E+05   -1.7985890E+00
   1.5278899E-04   5.1947129E+05   -1.7980346E+00
   1.5349458E-04   5.1518622E+05   -1.7974796E+00
   1.5420343E-04   5.1093780E+05   -1.7969242E+00
   1.5491556E-04   5.0672572E+05   -1.7963683E+00
   1.5563098E-04   5.0254964E+05   -1.7958119E+00
   1.5634970E-04   4.9840926E+05   -1.7952550E+00
   1.5707174E-04   4.9430426E+05   -1.7946977E+00
   1.5779711E-04   4.9023433E+05   -1.7941399E+00
   1.5852584E-04   4.8619916E+05   -1.7935817E+00
   1.5925792E-04   4.8219845E+05   -1.7930230E+00
   1.5999339E-04   4.7823188E+05   -1.7924639E+00
   1.6073226E-04   4.7429917E+05   -1.7919043E+00
   1.6147454E-04   4.7040001E+05   -1.7913443E+00
   1.6222024E-04   4.6653411E+05   -1.7907839E+00
   1.6296939E-04   4.6270118E+05   -1.7902231E+00
   1.6372200E-04   4.5890092E+05   -1.7896618E+00
   1.6447809E-04   4.5513305E+05   -1.7891001E+00
   1.6523767E-04   4.5139729E+05   -1.7885381E+00
   1.6600075E-04   4.4769335E+05   -1.7879756E+00
   1.6676736E-04   4.4402096E+05   -1.7874127E+00
   1.6753751E-04   4.4037983E+05   -1.7868495E+00
   1.6831122E-04   4.3676970E+05   -1.7862858E+00
   1.6908849E-04   4.3319028E+05   -1.7857218E+00
   1.6986936E-04   4.2964131E+05   -1.7851574E+00
   1.7065384E-04   4.2612253E+05   -1.7845927E+00
   1.7144193E-04   4.2263367E+05   -1.7840275E+00
   1.7223367E-04   4.1917447E+05   -1.7834621E+00
   1.7302906E-04   4.1574466E+05   -1.7828962E+00
   1.7382813E-04   4.1234399E+05   -1.7823301E+00
   1.7463089E-04   4.0897220E+05   -1.7817636E+00
   1.7543735E-04   4.0562905E+05   -1.7811967E+00
   1.7624754E-04   4.0231427E+05   -1.7806296E+00
   1.7706147E-04   3.9902763E+05   -1.7800621E+00
   1.7787916E-04   3.9576887E+05   -1.7794943E+00
   1.7870062E-04   3.9253775E+05   -1.7789262E+00
   1.7952588E-04   3.8933403E+05   -1.7783578E+00
   1.8035495E-04   3.8615747E+05   -1.7777891E+00
   1.8118785E-04   3.8300783E+05   -1.7772201E+00
   1.8202459E-04   3.7988488E+05   -1.7766508E+00
   1.8286520E-04   3.7678837E+05   -1.7760813E+00
   1.8370969E-04   3.7371809E+05   -1.7755114E+00
   1.8455808E-04   3.7067381E+05   -1.7749413E+00
   1.8541039E-04   3.6765528E+05   -1.7743710E+00
   1.8626663E-04   3.6466230E+05   -1.7738003E+00
   1.8712683E-04   3.6169463E+05   -1.7732295E+00
   1.8799100E-04   3.5875206E+05   -1.7726583E+00
   1.8885917E-04   3.5583436E+05   -1.7720870E+00
   1.8973134E-04   3.5294132E+05   -1.7715154E+00
   1.9060754E-04   3.5007272E+05   -1.7709436E+00
   1.9148778E-04   3.4722836E+05   -1.7703715E+00
   1.9237209E-04   3.4440801E+05   -1.7697993E+00
   1.9326049E-04   3.4161147E+05   -1.7692268E+00
   1.9415299E-04   3.3883854E+05   -1.7686542E+00
   1.9504960E-04   3.3608899E+05   -1.7680813E+00
   1.9595036E-04   3.3336265E+05   -1.7675083E+00
   1.9685528E-04   3.3065929E+05   -1.7669350E+00
   1.9776438E-04   3.2797871E+05   -1.7663616E+00
   1.9867768E-04   3.2532073E+05   -1.7657880E+00
   1.9959519E-04   3.2268515E+05   -1.7652143E+00
   2.0051694E-04   3.2007176E+05   -1.7646403E+00
   2.0144295E-04   3.1748037E+05   -1.7640663E+00
   2.0237324E-04   3.1491080E+05   -1.7634920E+00
   2.0330782E-04   3.1236286E+05   -1.7629177E+00
   2.0424671E-04   3.0983635E+05   -1.7623432E+00
   2.0518995E-04   3.0733108E+05   -1.7617685E+00
   2.0613754E-04   3.0484688E+05   -1.7611938E+00
   2.0708950E-04   3.0238357E+05   -1.7606189E+00
   2.0804586E-04   2.9994095E+05   -1.7600439E+00
   2.0900664E-04   2.9751885E+05   -1.7594688E+00
   2.0997185E-04   2.9511710E+05   -1.7588936E+00
   2.1094152E-04   2.9273550E+05   -1.7583183E+00
   2.1191567E-04   2.9037390E+05   -1.7577429E+00
   2.1289432E-04   2.8803211E+05   -1.7571675E+00
   2.1387749E-04   2.8570997E+05   -1.7565919E+00
   2.1486520E-04   2.8340730E+05   -1.7560163E+00
   2.1585747E-04   2.8112393E+05   -1.7554406E+00
   2.1685432E-04   2.7885970E+05   -1.7548649E+00
   2.1785578E-04   2.7661444E+05   -1.7542891E+00
   2.1886186E-04   2.7438798E+05   -1.7537133E+00
   2.1987259E-04   2.7218017E+05   -1.7531374E+00
   2.2088798E-04   2.6999084E+05   -1.7525615E+00
   2.2190807E-04   2.6781983E+05   -1.7519856E+00
   2.2293286E-04   2.6566698E+05   -1.7514096E+00
   2.2396239E-04   2.6353214E+05   -1.7508337E+00
   2.2499667E-04   2.6141514E+05   -1.7502577E+00
   2.2603573E-04   2.5931584E+05   -1.7496817E+00
   2.2707958E-04   2.5723408E+05   -1.7491057E+00
   2.2812826E-04   2.5516971E+05   -1.7485298E+00
   2.2918178E-04   2.5312258E+05   -1.7479538E+00
   2.3024017E-04   2.5109254E+05   -1.7473779E+00
   2.3130344E-04   2.4907944E+05   -1.7468020E+00
   2.3237162E-04   2.4708314E+05   -1.7462261E+00
   2.3344474E-04   2.4510348E+05   -1.7456503E+00
   2.3452281E-04   2.4314034E+05   -1.7450745E+00
   2.3560586E-04   2.4119355E+05   -1.7444988E+00
   2.3669392E-04   2.3926299E+05   -1.7439231E+00
   2.3778699E-04   2.3734851E+05   -1.7433475E+00
   2.3888512E-04   2.3544998E+05   -1.7427720E+00
   2.3998831E-04   2.3356725E+05   -1.7421965E+00
   2.4109661E-04   2.3170019E+05   -1.7416211E+00
   2.4221001E-04   2.2984866E+05   -1.7410458E+00
   2.4332857E-04   2.2801253E+05   -1.7404706E+00
   2.4445228E-04   2.2619167E+05   -1.7398955E+00
   2.4558119E-04   2.2438594E+05   -1.7393205E+00
   2.4671531E-04   2.2259522E+05   -1.7387457E+00
   2.4785467E-04   2.2081938E+05   -1.7381709E+00
   2.4899928E-04   2.1905828E+05   -1.7375963E+00
   2.5014919E-04   2.1731181E+05   -1.7370218E+00
   2.5130440E-04   2.1557983E+05   -1.7364474E+00
   2.5246495E-04   2.1386222E+05   -1.7358732E+00
   2.5363086E-04   2.1215885E+05   -1.7352991E+00
   2.5480216E-04   2.1046961E+05   -1.7347252E+00
   2.5597886E-04   2.0879437E+05   -1.7341514E+00
   2.5716100E-04   2.0713301E+05   -1.7335778E+00
   2.5834859E-04   2.0548541E+05   -1.7330044E+00
   2.5954168E-04   2.0385146E+05   -1.7324312E+00
   2.6074027E-04   2.0223104E+05   -1.7318581E+00
   2.6194439E-04   2.0062402E+05   -1.7312853E+00
   2.6315408E-04   1.9903030E+05   -1.7307126E+00
   2.6436935E-04   1.9744976E+05   -1.7301401E+00
   2.6559024E-04   1.9588229E+05   -1.7295679E+00
   2.6681676E-04   1.9432778E+05   -1.7289958E+00
   2.6804895E-04   1.9278611E+05   -1.7284240E+00
   2.6928683E-04   1.9125717E+05   -1.7278524E+00
   2.7053042E-04   1.8974086E+05   -1.7272811E+00
   2.7177976E-04   1.8823707E+05   -1.7267100E+00
   2.7303487E-04   1.8674569E+05   -1.7261391E+00
   2.7429577E-04   1.8526660E+05   -1.7255685E+00
   2.7556250E-04   1.8379972E+05   -1.7249981E+00
   2.7683507E-04   1.8234493E+05   -1.7244280E+00
   2.7811353E-04   1.8090213E+05   -1.7238582E+00
   2.7939788E-04   1.7947122E+05   -1.7232886E+00
   2.8068817E-04   1.7805209E+05   -1.7227193E+00
   2.8198442E-04   1.7664465E+05   -1.7221503E+00
   2.8328665E-04   1.7524879E+05   -1.7215816E+00
   2.8459490E-04   1.7386442E+05   -1.7210132E+00
   2.8590919E-04   1.7249144E+05   -1.7204451E+00
   2.8722955E-04   1.7112974E+05   -1.7198773E+00
   2.8855600E-04   1.6977924E+05   -1.7193098E+00
   2.8988859E-04   1.6843984E+05   -1.7187427E+00
   2.9122732E-04   1.6711144E+05   -1.7181759E+00
   2.9257224E-04   1.6579395E+05   -1.7176094E+00
   2.9392337E-04   1.6448727E+05   -1.7170432E+00
   2.9528074E-04   1.6319132E+05   -1.7164774E+00
   2.9664438E-04   1.6190601E+05   -1.7159119E+00
   2.9801431E-04   1.6063123E+05   -1.7153468E+00
   2.9939057E-04   1.5936691E+05   -1.7147820E+00
   3.0077319E-04   1.5811294E+05   -1.7142176E+00
   3.0216219E-04   1.5686926E+05   -1.7136536E+00
   3.0355761E-04   1.5563576E+05   -1.7130900E+00
   3.0495947E-04   1.5441236E+05   -1.7125267E+00
   3.0636780E-04   1.5319897E+05   -1.7119638E+00
   3.0778264E-04   1.5199551E+05   -1.7114014E+00
   3.0920401E-04   1.5080190E+05   -1.7108393E+00
   3.1063195E-04   1.4961805E+05   -1.7102776E+00
   3.1206648E-04   1.4844388E+05   -1.7097164E+00
   3.1350764E-04   1.4727930E+05   -1.7091555E+00
   3.1495545E-04   1.4612423E+05   -1.7085951E+00
   3.1640994E-04   1.4497860E+05   -1.7080351E+00
   3.1787116E-04   1.4384232E+05   -1.7074755E+00
   3.1933912E-04   1.4271532E+05   -1.7069164E+00
   3.2081386E-04   1.4159751E+05   -1.7063577E+00
   3.2229541E-04   1.4048881E+05   -1.7057995E+00
   3.2378381E-04   1.3938916E+05   -1.7052417E+00
   3.2527908E-04   1.3829847E+05   -1.7046844E+00
   3.2678125E-04   1.3721666E+05   -1.7041275E+00
   3.2829036E-04   1.3614367E+05   -1.7035712E+00
   3.2980644E-04   1.3507941E+05   -1.7030152E+00
   3.3132952E-04   1.3402381E+05   -1.7024598E+00
   3.3285963E-04   1.3297681E+05   -1.7019049E+00
   3.3439681E-04   1.3193832E+05   -1.7013504E+00
   3.3594109E-04   1.3090827E+05   -1.7007965E+00
   3.3749250E-04   1.2988660E+05   -1.7002430E+00
   3.3905108E-04   1.2887323E+05   -1.6996901E+00
   3.4061685E-04   1.2786810E+05   -1.6991376E+00
   3.4218986E-04   1.2687112E+05   -1.6985857E+00
   3.4377013E-04   1.2588224E+05   -1.6980343E+00
   3.4535769E-04   1.2490138E+05   -1.6974834E+00
   3.4695259E-04   1.2392848E+05   -1.6969331E+00
   3.4855485E-04   1.2296347E+05   -1.6963833E+00
   3.5016452E-04   1.2200628E+05   -1.6958340E+00
   3.5178161E-04   1.2105685E+05   -1.6952853E+00
   3.5340618E-04   1.2011511E+05   -1.6947372E+00
   3.5503824E-04   1.1918100E+05   -1.6941896E+00
   3.5667785E-04   1.1825446E+05   -1.6936425E+00
   3.5832502E-04   1.1733541E+05   -1.6930961E+00
   3.5997981E-04   1.1642379E+05   -1.6925502E+00
   3.6164223E-04   1.1551955E+05   -1.6920049E+00
   3.6331233E-04   1.1462262E+05   -1.6914601E+00
   3.6499015E-04   1.1373294E+05   -1.6909160E+00
   3.6667571E-04   1.1285045E+05   -1.6903724E+00
   3.6836906E-04   1.1197508E+05   -1.6898294E+00
   3.7007022E-04   1.1110679E+05   -1.6892871E+00
   3.7177925E-04   1.1024550E+05   -1.6887453E+00
   3.7349616E-04   1.0939116E+05   -1.6882042E+00
   3.7522101E-04   1.0854371E+05   -1.6876636E+00
   3.7695382E-04   1.0770310E+05   -1.6871237E+00
   3.7869463E-04   1.0686926E+05   -1.6865844E+00
   3.8044348E-04   1.0604214E+05   -1.6860458E+00
   3.8220041E-04   1.0522168E+05   -1.6855078E+00
   3.8396545E-04   1.0440783E+05   -1.6849704E+00
   3.8573864E-04   1.0360053E+05   -1.6844336E+00
   3.8752002E-04   1.0279973E+05   -1.6838976E+00
   3.8930963E-04   1.0200537E+05   -1.6833621E+00
   3.9110750E-04   1.0121740E+05   -1.6828273E+00
   3.9291368E-04   1.0043576E+05   -1.6822932E+00
   3.9472820E-04   9.9660398E+04   -1.6817597E+00
   3.9655109E-04   9.8891268E+04   -1.6812270E+00
   3.9838241E-04   9.8128315E+04   -1.6806948E+00
   4.0022218E-04   9.7371487E+04   -1.6801634E+00
   4.0207045E-04   9.6620733E+04   -1.6796327E+00
   4.0392725E-04   9.5876001E+04   -1.6791026E+00
   4.0579263E-04   9.5137242E+04   -1.6785732E+00
   4.0766662E-04   9.4404405E+04   -1.6780445E+00
   4.0954927E-04   9.3677442E+04   -1.6775166E+00
   4.1144061E-04   9.2956302E+04   -1.6769893E+00
   4.1334068E-04   9.2240937E+04   -1.6764627E+00
   4.1524953E-04   9.1531300E+04   -1.6759369E+00
   4.1716720E-04   9.0827342E+04   -1.6754117E+00
   4.1909372E-04   9.0129016E+04   -1.6748873E+00
   4.2102914E-04   8.9436275E+04   -1.6743636E+00
   4.2297350E-04   8.8749073E+04   -1.6738407E+00
   4.2492683E-04   8.8067363E+04   -1.6733184E+00
   4.2688919E-04   8.7391099E+04   -1.6727969E+00
   4.2886061E-04   8.6720237E+04   -1.6722762E+00
   4.3084113E-04   8.6054731E+04   -1.6717562E+00
   4.3283080E-04   8.5394537E+04   -1.6712369E+00
   4.3482966E-04   8.4739610E+04   -1.6707184E+00
   4.3683775E-04   8.4089907E+04   -1.6702007E+00
   4.3885511E-04   8.3445384E+04   -1.6696837E+00
   4.4088179E-04   8.2805998E+04   -1.6691674E+00
   4.4291783E-04   8.2171706E+04   -1.6686520E+00
   4.4496327E-04   8.1542467E+04   -1.6681373E+00
   4.4701816E-04   8.0918238E+04   -1.6676234E+00
   4.4908253E-04   8.0298977E+04   -1.6671103E+00
   4.5115644E-04   7.9684644E+04   -1.6665979E+00
   4.5323993E-04   7.9075198E+04   -1.6660863E+00
   4.5533304E-04   7.8470597E+04   -1.6655756E+00
   4.5743582E-04   7.7870803E+04   -1.6650656E+00
   4.5954830E-04   7.7275774E+04   -1.6645564E+00
   4.6167054E-04   7.6685472E+04   -1.6640480E+00
   4.6380259E-04   7.6099858E+04   -1.6635405E+00
   4.6594448E-04   7.5518891E+04   -1.6630337E+00
   4.6809626E-04   7.4942535E+04   -1.6625277E+00
   4.7025797E-04   7.4370751E+04   -1.6620226E+00
   4.7242967E-04   7.3803501E+04   -1.6615182E+00
   4.7461140E-04   7.3240748E+04   -1.6610147E+00
   4.7680321E-04   7.2682454E+04   -1.6605121E+00
   4.7900514E-04   7.2128582E+04   -1.6600102E+00
   4.8121723E-04   7.1579097E+04   -1.6595092E+00
   4.8343954E-04   7.1033962E+04   -1.6590090E+00
   4.8567212E-04   7.0493141E+04   -1.6585096E+00
   4.8791500E-04   6.9956598E+04   -1.6580111E+00
   4.9016825E-04   6.9424298E+04   -1.6575134E+00
   4.9243189E-04   6.8896207E+04   -1.6570166E+00
   4.9470600E-04   6.8372289E+04   -1.6565206E+00
   4.9699060E-04   6.7852509E+04   -1.6560255E+00
   4.9928575E-04   6.7336835E+04   -1.6555313E+00
   5.0159151E-04   6.6825232E+04   -1.6550379E+00
   5.0390791E-04   6.6317667E+04   -1.6545453E+00
   5.0623501E-04   6.5814105E+04   -1.6540536E+00
   5.0857286E-04   6.5314516E+04   -1.6535628E+00
   5.1092150E-04   6.4818865E+04   -1.6530729E+00
   5.1328099E-04   6.4327120E+04   -1.6525838E+00
   5.1565137E-04   6.3839250E+04   -1.6520956E+00
   5.1803270E-04   6.3355223E+04   -1.6516083E+00
   5.2042503E-04   6.2875006E+04   -1.6511219E+00
   5.2282841E-04   6.2398569E+04   -1.6506363E+00
   5.2524289E-04   6.1925881E+04   -1.6501517E+00
   5.2766851E-04   6.1456910E+04   -1.6496679E+00
   5.3010534E-04   6.0991627E+04   -1.6491851E+00
   5.3255342E-04   6.0530001E+04   -1.6487031E+00
   5.3501281E-04   6.0072002E+04   -1.6482220E+00
   5.3748356E-04   5.9617601E+04   -1.6477418E+00
   5.3996571E-04   5.9166767E+04   -1.6472625E+00
   5.4245933E-04   5.8719473E+04   -1.6467842E+00
   5.4496446E-04   5.8275688E+04   -1.6463067E+00
   5.4748117E-04   5.7835384E+04   -1.6458302E+00
   5.5000949E-04   5.7398533E+04   -1.6453545E+00
   5.5254949E-04   5.6965107E+04   -1.6448798E+00
   5.5510123E-04   5.6535077E+04   -1.6444060E+00
   5.5766474E-04   5.6108415E+04   -1.6439331E+00
   5.6024010E-04   5.5685095E+04   -1.6434611E+00
   5.6282734E-04   5.5265088E+04   -1.6429901E+00
   5.6542654E-04   5.4848369E+04   -1.6425200E+00
   5.6803774E-04   5.4434909E+04   -1.6420508E+00
   5.7066099E-04   5.4024683E+04   -1.6415826E+00
   5.7329637E-04   5.3617663E+04   -1.6411152E+00
   5.7594391E-04   5.3213825E+04   -1.6406489E+00
   5.7860368E-04   5.2813142E+04   -1.6401834E+00
   5.8127573E-04   5.2415588E+04   -1.6397189E+00
   5.8396012E-04   5.2021138E+04   -1.6392554E+00
   5.8665691E-04   5.1629766E+04   -1.6387928E+00
   5.8936616E-04   5.1241449E+04   -1.6383311E+00
   5.9208791E-04   5.0856159E+04   -1.6378704E+00
   5.9482223E-04   5.0473874E+04   -1.6374106E+00
   5.9756919E-04   5.0094568E+04   -1.6369518E+00
   6.0032882E-04   4.9718218E+04   -1.6364939E+00
   6.0310120E-04   4.9344799E+04   -1.6360370E+00
   6.0588639E-04   4.8974288E+04   -1.6355810E+00
   6.0868443E-04   4.8606661E+04   -1.6351261E+00
   6.1149540E-04   4.8241895E+04   -1.6346720E+00
   6.1431935E-04   4.7879966E+04   -1.6342190E+00
   6.1715634E-04   4.7520851E+04   -1.6337669E+00
   6.2000644E-04   4.7164528E+04   -1.6333157E+00
   6.2286969E-04   4.6810974E+04   -1.6328655E+00
