#        a       HoverH0(a)       dlogHdloga_of_a(a)
   1.0000000E-04   1.2277025E+06   -1.8748330E+00
   1.0046181E-04   1.2171441E+06   -1.8744002E+00
   1.0092575E-04   1.2066791E+06   -1.8739663E+00
   1.0139184E-04   1.1963063E+06   -1.8735315E+00
   1.0186008E-04   1.1860252E+06   -1.8730957E+00
   1.0233048E-04   1.1758347E+06   -1.8726589E+00
   1.0280305E-04   1.1657341E+06   -1.8722211E+00
   1.0327781E-04   1.1557227E+06   -1.8717823E+00
   1.0375475E-04   1.1457995E+06   -1.8713425E+00
   1.0423390E-04   1.1359639E+06   -1.8709017E+00
   1.0471527E-04   1.1262150E+06   -1.8704600E+00
   1.0519885E-04   1.1165520E+06   -1.8700173E+00
   1.0568467E-04   1.1069742E+06   -1.8695736E+00
   1.0617274E-04   1.0974807E+06   -1.8691289E+00
   1.0666305E-04   1.0880710E+06   -1.8686832E+00
   1.0715563E-04   1.0787441E+06   -1.8682366E+00
   1.0765049E-04   1.0694994E+06   -1.8677890E+00
   1.0814763E-04   1.0603361E+06   -1.8673404E+00
   1.0864707E-04   1.0512535E+06   -1.8668908E+00
   1.0914881E-04   1.0422508E+06   -1.8664403E+00
   1.0965287E-04   1.0333274E+06   -1.8659888E+00
   1.1015926E-04   1.0244825E+06   -1.8655363E+00
   1.1066799E-04   1.0157155E+06   -1.8650829E+00
   1.1117906E-04   1.0070256E+06   -1.8646285E+00
   1.1169250E-04   9.9841209E+05   -1.8641732E+00
   1.1220831E-04   9.8987436E+05   -1.8637169E+00
   1.1272650E-04   9.8141171E+05   -1.8632596E+00
   1.1324708E-04   9.7302345E+05   -1.8628014E+00
   1.1377007E-04   9.6470894E+05   -1.8623422E+00
   1.1429547E-04   9.5646749E+05   -1.8618821E+00
   1.1482330E-04   9.4829847E+05   -1.8614210E+00
   1.1535356E-04   9.4020122E+05   -1.8609590E+00
   1.1588628E-04   9.3217509E+05   -1.8604960E+00
   1.1642145E-04   9.2421945E+05   -1.8600321E+00
   1.1695910E-04   9.1633366E+05   -1.8595672E+00
   1.1749923E-04   9.0851711E+05   -1.8591014E+00
   1.1804185E-04   9.0076918E+05   -1.8586347E+00
   1.1858698E-04   8.9308924E+05   -1.8581670E+00
   1.1913463E-04   8.8547668E+05   -1.8576984E+00
   1.1968481E-04   8.7793092E+05   -1.8572289E+00
   1.2023752E-04   8.7045134E+05   -1.8567584E+00
   1.2079279E-04   8.6303736E+05   -1.8562870E+00
   1.2135063E-04   8.5568839E+05   -1.8558147E+00
   1.2191104E-04   8.4840384E+05   -1.8553415E+00
   1.2247403E-04   8.4118314E+05   -1.8548673E+00
   1.2303963E-04   8.3402572E+05   -1.8543923E+00
   1.2360784E-04   8.2693102E+05   -1.8539163E+00
   1.2417868E-04   8.1989846E+05   -1.8534394E+00
   1.2475215E-04   8.1292750E+05   -1.8529616E+00
   1.2532826E-04   8.0601759E+05   -1.8524828E+00
   1.2590704E-04   7.9916817E+05   -1.8520032E+00
   1.2648850E-04   7.9237871E+05   -1.8515227E+00
   1.2707263E-04   7.8564867E+05   -1.8510413E+00
   1.2765947E-04   7.7897753E+05   -1.8505589E+00
   1.2824901E-04   7.7236475E+05   -1.8500757E+00
   1.2884128E-04   7.6580981E+05   -1.8495916E+00
   1.2943628E-04   7.5931220E+05   -1.8491066E+00
   1.3003403E-04   7.5287140E+05   -1.8486207E+00
   1.3063454E-04   7.4648691E+05   -1.8481339E+00
   1.3123783E-04   7.4015822E+05   -1.8476463E+00
   1.3184390E-04   7.3388484E+05   -1.8471578E+00
   1.3245277E-04   7.2766627E+05   -1.8466684E+00
   1.3306445E-04   7.2150201E+05   -1.8461781E+00
   1.3367895E-04   7.1539160E+05   -1.8456869E+00
   1.3429630E-04   7.0933454E+05   -1.8451949E+00
   1.3491649E-04   7.0333036E+05   -1.8447020E+00
   1.3553955E-04   6.9737858E+05   -1.8442083E+00
   1.3616548E-04   6.9147875E+05   -1.8437137E+00
   1.3679431E-04   6.8563040E+05   -1.8432182E+00
   1.3742604E-04   6.7983306E+05   -1.8427219E+00
   1.3806069E-04   6.7408629E+05   -1.8422248E+00
   1.3869827E-04   6.6838962E+05   -1.8417268E+00
   1.3933879E-04   6.6274262E+05   -1.8412279E+00
   1.3998227E-04   6.5714484E+05   -1.8407282E+00
   1.4062872E-04   6.5159584E+05   -1.8402277E+00
   1.4127816E-04   6.4609519E+05   -1.8397263E+00
   1.4193060E-04   6.4064246E+05   -1.8392242E+00
   1.4258605E-04   6.3523721E+05   -1.8387212E+00
   1.4324453E-04   6.2987904E+05   -1.8382173E+00
   1.4390605E-04   6.2456750E+05   -1.8377127E+00
   1.4457062E-04   6.1930221E+05   -1.8372072E+00
   1.4523826E-04   6.1408273E+05   -1.8367009E+00
   1.4590899E-04   6.0890866E+05   -1.8361938E+00
   1.4658281E-04   6.0377960E+05   -1.8356859E+00
   1.4725974E-04   5.9869514E+05   -1.8351772E+00
   1.4793981E-04   5.9365490E+05   -1.8346677E+00
   1.4862301E-04   5.8865846E+05   -1.8341574E+00
   1.4930936E-04   5.8370546E+05   -1.8336463E+00
   1.4999889E-04   5.7879549E+05   -1.8331344E+00
   1.5069160E-04   5.7392818E+05   -1.8326218E+00
   1.5138751E-04   5.6910314E+05   -1.8321083E+00
   1.5208663E-04   5.6432001E+05   -1.8315941E+00
   1.5278899E-04   5.5957840E+05   -1.8310791E+00
   1.5349458E-04   5.5487795E+05   -1.8305633E+00
   1.5420343E-04   5.5021830E+05   -1.8300468E+00
   1.5491556E-04   5.4559907E+05   -1.8295295E+00
   1.5563098E-04   5.4101991E+05   -1.8290114E+00
   1.5634970E-04   5.3648047E+05   -1.8284926E+00
   1.5707174E-04   5.3198039E+05   -1.8279731E+00
   1.5779711E-04   5.2751932E+05   -1.8274527E+00
   1.5852584E-04   5.2309691E+05   -1.8269317E+00
   1.5925792E-04   5.1871283E+05   -1.8264099E+00
   1.5999339E-04   5.1436672E+05   -1.8258874E+00
   1.6073226E-04   5.1005826E+05   -1.8253641E+00
   1.6147454E-04   5.0578710E+05   -1.8248401E+00
   1.6222024E-04   5.0155293E+05   -1.8243154E+00
   1.6296939E-04   4.9735540E+05   -1.8237900E+00
   1.6372200E-04   4.9319420E+05   -1.8232638E+00
   1.6447809E-04   4.8906900E+05   -1.8227370E+00
   1.6523767E-04   4.8497949E+05   -1.8222094E+00
   1.6600075E-04   4.8092533E+05   -1.8216811E+00
   1.6676736E-04   4.7690623E+05   -1.8211522E+00
   1.6753751E-04   4.7292188E+05   -1.8206225E+00
   1.6831122E-04   4.6897195E+05   -1.8200921E+00
   1.6908849E-04   4.6505615E+05   -1.8195611E+00
   1.6986936E-04   4.6117418E+05   -1.8190294E+00
   1.7065384E-04   4.5732573E+05   -1.8184970E+00
   1.7144193E-04   4.5351051E+05   -1.8179639E+00
   1.7223367E-04   4.4972822E+05   -1.8174302E+00
   1.7302906E-04   4.4597858E+05   -1.8168958E+00
   1.7382813E-04   4.4226129E+05   -1.8163607E+00
   1.7463089E-04   4.3857606E+05   -1.8158250E+00
   1.7543735E-04   4.3492262E+05   -1.8152887E+00
   1.7624754E-04   4.3130067E+05   -1.8147516E+00
   1.7706147E-04   4.2770995E+05   -1.8142140E+00
   1.7787916E-04   4.2415018E+05   -1.8136757E+00
   1.7870062E-04   4.2062107E+05   -1.8131368E+00
   1.7952588E-04   4.1712236E+05   -1.8125972E+00
   1.8035495E-04   4.1365379E+05   -1.8120571E+00
   1.8118785E-04   4.1021508E+05   -1.8115163E+00
   1.8202459E-04   4.0680597E+05   -1.8109749E+00
   1.8286520E-04   4.0342620E+05   -1.8104328E+00
   1.8370969E-04   4.0007551E+05   -1.8098902E+00
   1.8455808E-04   3.9675364E+05   -1.8093470E+00
   1.8541039E-04   3.9346033E+05   -1.8088032E+00
   1.8626663E-04   3.9019535E+05   -1.8082588E+00
   1.8712683E-04   3.8695842E+05   -1.8077138E+00
   1.8799100E-04   3.8374932E+05   -1.8071682E+00
   1.8885917E-04   3.8056778E+05   -1.8066221E+00
   1.8973134E-04   3.7741357E+05   -1.8060754E+00
   1.9060754E-04   3.7428645E+05   -1.8055281E+00
   1.9148778E-04   3.7118617E+05   -1.8049802E+00
   1.9237209E-04   3.6811250E+05   -1.8044319E+00
   1.9326049E-04   3.6506521E+05   -1.8038829E+00
   1.9415299E-04   3.6204406E+05   -1.8033334E+00
   1.9504960E-04   3.5904882E+05   -1.8027834E+00
   1.9595036E-04   3.5607927E+05   -1.8022328E+00
   1.9685528E-04   3.5313517E+05   -1.8016817E+00
   1.9776438E-04   3.5021630E+05   -1.8011301E+00
   1.9867768E-04   3.4732244E+05   -1.8005779E+00
   1.9959519E-04   3.4445337E+05   -1.8000253E+00
   2.0051694E-04   3.4160887E+05   -1.7994721E+00
   2.0144295E-04   3.3878873E+05   -1.7989184E+00
   2.0237324E-04   3.3599272E+05   -1.7983643E+00
   2.0330782E-04   3.3322064E+05   -1.7978096E+00
   2.0424671E-04   3.3047228E+05   -1.7972544E+00
   2.0518995E-04   3.2774742E+05   -1.7966988E+00
   2.0613754E-04   3.2504586E+05   -1.7961427E+00
   2.0708950E-04   3.2236740E+05   -1.7955861E+00
   2.0804586E-04   3.1971183E+05   -1.7950290E+00
   2.0900664E-04   3.1707895E+05   -1.7944715E+00
   2.0997185E-04   3.1446856E+05   -1.7939135E+00
   2.1094152E-04   3.1188046E+05   -1.7933551E+00
   2.1191567E-04   3.0931446E+05   -1.7927962E+00
   2.1289432E-04   3.0677036E+05   -1.7922369E+00
   2.1387749E-04   3.0424797E+05   -1.7916771E+00
   2.1486520E-04   3.0174710E+05   -1.7911169E+00
   2.1585747E-04   2.9926756E+05   -1.7905563E+00
   2.1685432E-04   2.9680916E+05   -1.7899953E+00
   2.1785578E-04   2.9437171E+05   -1.7894338E+00
   2.1886186E-04   2.9195504E+05   -1.7888719E+00
   2.1987259E-04   2.8955896E+05   -1.7883097E+00
   2.2088798E-04   2.8718329E+05   -1.7877470E+00
   2.2190807E-04   2.8482785E+05   -1.7871840E+00
   2.2293286E-04   2.8249246E+05   -1.7866205E+00
   2.2396239E-04   2.8017694E+05   -1.7860567E+00
   2.2499667E-04   2.7788113E+05   -1.7854925E+00
   2.2603573E-04   2.7560484E+05   -1.7849280E+00
   2.2707958E-04   2.7334792E+05   -1.7843630E+00
   2.2812826E-04   2.7111018E+05   -1.7837978E+00
   2.2918178E-04   2.6889146E+05   -1.7832321E+00
   2.3024017E-04   2.6669159E+05   -1.7826661E+00
   2.3130344E-04   2.6451042E+05   -1.7820998E+00
   2.3237162E-04   2.6234776E+05   -1.7815332E+00
   2.3344474E-04   2.6020347E+05   -1.7809662E+00
   2.3452281E-04   2.5807738E+05   -1.7803989E+00
   2.3560586E-04   2.5596933E+05   -1.7798312E+00
   2.3669392E-04   2.5387916E+05   -1.7792633E+00
   2.3778699E-04   2.5180672E+05   -1.7786950E+00
   2.3888512E-04   2.4975185E+05   -1.7781265E+00
   2.3998831E-04   2.4771440E+05   -1.7775576E+00
   2.4109661E-04   2.4569421E+05   -1.7769885E+00
   2.4221001E-04   2.4369114E+05   -1.7764191E+00
   2.4332857E-04   2.4170503E+05   -1.7758494E+00
   2.4445228E-04   2.3973574E+05   -1.7752794E+00
   2.4558119E-04   2.3778312E+05   -1.7747092E+00
   2.4671531E-04   2.3584702E+05   -1.7741387E+00
   2.4785467E-04   2.3392730E+05   -1.7735679E+00
   2.4899928E-04   2.3202382E+05   -1.7729969E+00
   2.5014919E-04   2.3013644E+05   -1.7724257E+00
   2.5130440E-04   2.2826500E+05   -1.7718542E+00
   2.5246495E-04   2.2640938E+05   -1.7712825E+00
   2.5363086E-04   2.2456944E+05   -1.7707105E+00
   2.5480216E-04   2.2274504E+05   -1.7701384E+00
   2.5597886E-04   2.2093604E+05   -1.7695660E+00
   2.5716100E-04   2.1914231E+05   -1.7689935E+00
   2.5834859E-04   2.1736371E+05   -1.7684207E+00
   2.5954168E-04   2.1560013E+05   -1.7678477E+00
   2.6074027E-04   2.1385141E+05   -1.7672746E+00
   2.6194439E-04   2.1211744E+05   -1.7667012E+00
   2.6315408E-04   2.1039808E+05   -1.7661277E+00
   2.6436935E-04   2.0869322E+05   -1.7655540E+00
   2.6559024E-04   2.0700271E+05   -1.7649802E+00
   2.6681676E-04   2.0532644E+05   -1.7644061E+00
   2.6804895E-04   2.0366428E+05   -1.7638320E+00
   2.6928683E-04   2.0201612E+05   -1.7632577E+00
   2.7053042E-04   2.0038182E+05   -1.7626832E+00
   2.7177976E-04   1.9876127E+05   -1.7621086E+00
   2.7303487E-04   1.9715435E+05   -1.7615339E+00
   2.7429577E-04   1.9556093E+05   -1.7609591E+00
   2.7556250E-04   1.9398091E+05   -1.7603841E+00
   2.7683507E-04   1.9241417E+05   -1.7598091E+00
   2.7811353E-04   1.9086058E+05   -1.7592339E+00
   2.7939788E-04   1.8932004E+05   -1.7586586E+00
   2.8068817E-04   1.8779243E+05   -1.7580833E+00
   2.8198442E-04   1.8627764E+05   -1.7575078E+00
   2.8328665E-04   1.8477556E+05   -1.7569323E+00
   2.8459490E-04   1.8328608E+05   -1.7563567E+00
   2.8590919E-04   1.8180909E+05   -1.7557810E+00
   2.8722955E-04   1.8034448E+05   -1.7552053E+00
   2.8855600E-04   1.7889214E+05   -1.7546295E+00
   2.8988859E-04   1.7745197E+05   -1.7540537E+00
   2.9122732E-04   1.7602386E+05   -1.7534778E+00
   2.9257224E-04   1.7460771E+05   -1.7529019E+00
   2.9392337E-04   1.7320340E+05   -1.7523259E+00
   2.9528074E-04   1.7181085E+05   -1.7517499E+00
   2.9664438E-04   1.7042995E+05   -1.7511739E+00
   2.9801431E-04   1.6906060E+05   -1.7505979E+00
   2.9939057E-04   1.6770269E+05   -1.7500219E+00
   3.0077319E-04   1.6635613E+05   -1.7494459E+00
   3.0216219E-04   1.6502082E+05   -1.7488699E+00
   3.0355761E-04   1.6369666E+05   -1.7482939E+00
   3.0495947E-04   1.6238356E+05   -1.7477179E+00
   3.0636780E-04   1.6108142E+05   -1.7471420E+00
   3.0778264E-04   1.5979015E+05   -1.7465660E+00
   3.0920401E-04   1.5850965E+05   -1.7459901E+00
   3.1063195E-04   1.5723982E+05   -1.7454143E+00
   3.1206648E-04   1.5598059E+05   -1.7448385E+00
   3.1350764E-04   1.5473184E+05   -1.7442628E+00
   3.1495545E-04   1.5349351E+05   -1.7436871E+00
   3.1640994E-04   1.5226548E+05   -1.7431114E+00
   3.1787116E-04   1.5104769E+05   -1.7425359E+00
   3.1933912E-04   1.4984002E+05   -1.7419604E+00
   3.2081386E-04   1.4864241E+05   -1.7413851E+00
   3.2229541E-04   1.4745477E+05   -1.7408098E+00
   3.2378381E-04   1.4627699E+05   -1.7402346E+00
   3.2527908E-04   1.4510901E+05   -1.7396595E+00
   3.2678125E-04   1.4395074E+05   -1.7390845E+00
   3.2829036E-04   1.4280209E+05   -1.7385096E+00
   3.2980644E-04   1.4166299E+05   -1.7379349E+00
   3.3132952E-04   1.4053334E+05   -1.7373602E+00
   3.3285963E-04   1.3941306E+05   -1.7367858E+00
   3.3439681E-04   1.3830209E+05   -1.7362114E+00
   3.3594109E-04   1.3720033E+05   -1.7356372E+00
   3.3749250E-04   1.3610771E+05   -1.7350632E+00
   3.3905108E-04   1.3502414E+05   -1.7344893E+00
   3.4061685E-04   1.3394956E+05   -1.7339155E+00
   3.4218986E-04   1.3288388E+05   -1.7333420E+00
   3.4377013E-04   1.3182703E+05   -1.7327686E+00
   3.4535769E-04   1.3077892E+05   -1.7321954E+00
   3.4695259E-04   1.2973950E+05   -1.7316224E+00
   3.4855485E-04   1.2870867E+05   -1.7310495E+00
   3.5016452E-04   1.2768637E+05   -1.7304769E+00
   3.5178161E-04   1.2667253E+05   -1.7299045E+00
   3.5340618E-04   1.2566706E+05   -1.7293323E+00
   3.5503824E-04   1.2466991E+05   -1.7287603E+00
   3.5667785E-04   1.2368099E+05   -1.7281885E+00
   3.5832502E-04   1.2270024E+05   -1.7276170E+00
   3.5997981E-04   1.2172759E+05   -1.7270457E+00
   3.6164223E-04   1.2076297E+05   -1.7264746E+00
   3.6331233E-04   1.1980631E+05   -1.7259038E+00
   3.6499015E-04   1.1885754E+05   -1.7253332E+00
   3.6667571E-04   1.1791659E+05   -1.7247629E+00
   3.6836906E-04   1.1698339E+05   -1.7241929E+00
   3.7007022E-04   1.1605789E+05   -1.7236231E+00
   3.7177925E-04   1.1514001E+05   -1.7230536E+00
   3.7349616E-04   1.1422969E+05   -1.7224844E+00
   3.7522101E-04   1.1332687E+05   -1.7219155E+00
   3.7695382E-04   1.1243147E+05   -1.7213469E+00
   3.7869463E-04   1.1154345E+05   -1.7207785E+00
   3.8044348E-04   1.1066272E+05   -1.7202105E+00
   3.8220041E-04   1.0978924E+05   -1.7196428E+00
   3.8396545E-04   1.0892294E+05   -1.7190754E+00
   3.8573864E-04   1.0806375E+05   -1.7185083E+00
   3.8752002E-04   1.0721162E+05   -1.7179416E+00
   3.8930963E-04   1.0636649E+05   -1.7173752E+00
   3.9110750E-04   1.0552830E+05   -1.7168091E+00
   3.9291368E-04   1.0469698E+05   -1.7162434E+00
   3.9472820E-04   1.0387248E+05   -1.7156780E+00
   3.9655109E-04   1.0305475E+05   -1.7151130E+00
   3.9838241E-04   1.0224372E+05   -1.7145483E+00
   4.0022218E-04   1.0143933E+05   -1.7139840E+00
   4.0207045E-04   1.0064154E+05   -1.7134201E+00
   4.0392725E-04   9.9850278E+04   -1.7128566E+00
   4.0579263E-04   9.9065496E+04   -1.7122934E+00
   4.0766662E-04   9.8287136E+04   -1.7117306E+00
   4.0954927E-04   9.7515145E+04   -1.7111683E+00
   4.1144061E-04   9.6749468E+04   -1.7106063E+00
   4.1334068E-04   9.5990051E+04   -1.7100448E+00
   4.1524953E-04   9.5236841E+04   -1.7094836E+00
   4.1716720E-04   9.4489786E+04   -1.7089229E+00
   4.1909372E-04   9.3748833E+04   -1.7083626E+00
   4.2102914E-04   9.3013930E+04   -1.7078027E+00
   4.2297350E-04   9.2285027E+04   -1.7072433E+00
   4.2492683E-04   9.1562071E+04   -1.7066843E+00
   4.2688919E-04   9.0845013E+04   -1.7061257E+00
   4.2886061E-04   9.0133802E+04   -1.7055676E+00
   4.3084113E-04   8.9428389E+04   -1.7050100E+00
   4.3283080E-04   8.8728725E+04   -1.7044528E+00
   4.3482966E-04   8.8034760E+04   -1.7038961E+00
   4.3683775E-04   8.7346447E+04   -1.7033398E+00
   4.3885511E-04   8.6663738E+04   -1.7027840E+00
   4.4088179E-04   8.5986585E+04   -1.7022288E+00
   4.4291783E-04   8.5314941E+04   -1.7016740E+00
   4.4496327E-04   8.4648760E+04   -1.7011196E+00
   4.4701816E-04   8.3987995E+04   -1.7005658E+00
   4.4908253E-04   8.3332600E+04   -1.7000125E+00
   4.5115644E-04   8.2682530E+04   -1.6994597E+00
   4.5323993E-04   8.2037741E+04   -1.6989075E+00
   4.5533304E-04   8.1398187E+04   -1.6983557E+00
   4.5743582E-04   8.0763824E+04   -1.6978044E+00
   4.5954830E-04   8.0134608E+04   -1.6972537E+00
   4.6167054E-04   7.9510496E+04   -1.6967036E+00
   4.6380259E-04   7.8891444E+04   -1.6961539E+00
   4.6594448E-04   7.8277411E+04   -1.6956048E+00
   4.6809626E-04   7.7668353E+04   -1.6950563E+00
   4.7025797E-04   7.7064228E+04   -1.6945083E+00
   4.7242967E-04   7.6464996E+04   -1.6939609E+00
   4.7461140E-04   7.5870614E+04   -1.6934140E+00
   4.7680321E-04   7.5281042E+04   -1.6928677E+00
   4.7900514E-04   7.4696240E+04   -1.6923220E+00
   4.8121723E-04   7.4116167E+04   -1.6917768E+00
   4.8343954E-04   7.3540783E+04   -1.6912323E+00
   4.8567212E-04   7.2970049E+04   -1.6906883E+00
   4.8791500E-04   7.2403926E+04   -1.6901449E+00
   4.9016825E-04   7.1842374E+04   -1.6896021E+00
   4.9243189E-04   7.1285356E+04   -1.6890599E+00
   4.9470600E-04   7.0732834E+04   -1.6885184E+00
   4.9699060E-04   7.0184768E+04   -1.6879774E+00
   4.9928575E-04   6.9641123E+04   -1.6874371E+00
   5.0159151E-04   6.9101861E+04   -1.6868973E+00
   5.0390791E-04   6.8566945E+04   -1.6863583E+00
   5.0623501E-04   6.8036339E+04   -1.6858198E+00
   5.0857286E-04   6.7510006E+04   -1.6852820E+00
   5.1092150E-04   6.6987911E+04   -1.6847448E+00
   5.1328099E-04   6.6470018E+04   -1.6842082E+00
   5.1565137E-04   6.5956292E+04   -1.6836723E+00
   5.1803270E-04   6.5446698E+04   -1.6831371E+00
   5.2042503E-04   6.4941201E+04   -1.6826025E+00
   5.2282841E-04   6.4439767E+04   -1.6820686E+00
   5.2524289E-04   6.3942362E+04   -1.6815353E+00
   5.2766851E-04   6.3448953E+04   -1.6810028E+00
   5.3010534E-04   6.2959505E+04   -1.6804708E+00
   5.3255342E-04   6.2473985E+04   -1.6799396E+00
   5.3501281E-04   6.1992362E+04   -1.6794091E+00
   5.3748356E-04   6.1514601E+04   -1.6788792E+00
   5.3996571E-04   6.1040672E+04   -1.6783501E+00
   5.4245933E-04   6.0570541E+04   -1.6778216E+00
   5.4496446E-04   6.0104178E+04   -1.6772938E+00
   5.4748117E-04   5.9641550E+04   -1.6767668E+00
   5.5000949E-04   5.9182627E+04   -1.6762404E+00
   5.5254949E-04   5.8727377E+04   -1.6757148E+00
   5.5510123E-04   5.8275771E+04   -1.6751899E+00
   5.5766474E-04   5.7827777E+04   -1.6746657E+00
   5.6024010E-04   5.7383365E+04   -1.6741422E+00
   5.6282734E-04   5.6942506E+04   -1.6736195E+00
   5.6542654E-04   5.6505170E+04   -1.6730975E+00
   5.6803774E-04   5.6071327E+04   -1.6725762E+00
   5.7066099E-04   5.5640949E+04   -1.6720557E+00
   5.7329637E-04   5.5214007E+04   -1.6715359E+00
   5.7594391E-04   5.4790472E+04   -1.6710169E+00
   5.7860368E-04   5.4370316E+04   -1.6704986E+00
   5.8127573E-04   5.3953510E+04   -1.6699811E+00
   5.8396012E-04   5.3540027E+04   -1.6694644E+00
   5.8665691E-04   5.3129840E+04   -1.6689484E+00
   5.8936616E-04   5.2722920E+04   -1.6684332E+00
   5.9208791E-04   5.2319241E+04   -1.6679187E+00
   5.9482223E-04   5.1918776E+04   -1.6674050E+00
   5.9756919E-04   5.1521498E+04   -1.6668921E+00
   6.0032882E-04   5.1127380E+04   -1.6663800E+00
   6.0310120E-04   5.0736397E+04   -1.6658687E+00
   6.0588639E-04   5.0348522E+04   -1.6653582E+00
   6.0868443E-04   4.9963730E+04   -1.6648485E+00
   6.1149540E-04   4.9581996E+04   -1.6643395E+00
   6.1431935E-04   4.9203293E+04   -1.6638314E+00
   6.1715634E-04   4.8827597E+04   -1.6633241E+00
   6.2000644E-04   4.8454882E+04   -1.6628175E+00
   6.2286969E-04   4.8085125E+04   -1.6623118E+00
