#        a       HoverH0(a)       dlogHdloga_of_a(a)
   1.0000000E-04   1.1748631E+06   -1.8637556E+00
   1.0046181E-04   1.1648188E+06   -1.8632985E+00
   1.0092575E-04   1.1548627E+06   -1.8628403E+00
   1.0139184E-04   1.1449941E+06   -1.8623812E+00
   1.0186008E-04   1.1352123E+06   -1.8619212E+00
   1.0233048E-04   1.1255165E+06   -1.8614602E+00
   1.0280305E-04   1.1159058E+06   -1.8609983E+00
   1.0327781E-04   1.1063796E+06   -1.8605354E+00
   1.0375475E-04   1.0969370E+06   -1.8600715E+00
   1.0423390E-04   1.0875773E+06   -1.8596068E+00
   1.0471527E-04   1.0782998E+06   -1.8591410E+00
   1.0519885E-04   1.0691037E+06   -1.8586744E+00
   1.0568467E-04   1.0599884E+06   -1.8582068E+00
   1.0617274E-04   1.0509530E+06   -1.8577383E+00
   1.0666305E-04   1.0419969E+06   -1.8572688E+00
   1.0715563E-04   1.0331194E+06   -1.8567985E+00
   1.0765049E-04   1.0243197E+06   -1.8563272E+00
   1.0814763E-04   1.0155972E+06   -1.8558549E+00
   1.0864707E-04   1.0069511E+06   -1.8553818E+00
   1.0914881E-04   9.9838088E+05   -1.8549077E+00
   1.0965287E-04   9.8988572E+05   -1.8544327E+00
   1.1015926E-04   9.8146499E+05   -1.8539568E+00
   1.1066799E-04   9.7311804E+05   -1.8534800E+00
   1.1117906E-04   9.6484419E+05   -1.8530022E+00
   1.1169250E-04   9.5664279E+05   -1.8525236E+00
   1.1220831E-04   9.4851321E+05   -1.8520441E+00
   1.1272650E-04   9.4045479E+05   -1.8515636E+00
   1.1324708E-04   9.3246690E+05   -1.8510823E+00
   1.1377007E-04   9.2454891E+05   -1.8506000E+00
   1.1429547E-04   9.1670019E+05   -1.8501169E+00
   1.1482330E-04   9.0892013E+05   -1.8496329E+00
   1.1535356E-04   9.0120811E+05   -1.8491479E+00
   1.1588628E-04   8.9356352E+05   -1.8486621E+00
   1.1642145E-04   8.8598577E+05   -1.8481754E+00
   1.1695910E-04   8.7847424E+05   -1.8476879E+00
   1.1749923E-04   8.7102836E+05   -1.8471994E+00
   1.1804185E-04   8.6364754E+05   -1.8467101E+00
   1.1858698E-04   8.5633119E+05   -1.8462199E+00
   1.1913463E-04   8.4907874E+05   -1.8457288E+00
   1.1968481E-04   8.4188961E+05   -1.8452369E+00
   1.2023752E-04   8.3476326E+05   -1.8447441E+00
   1.2079279E-04   8.2769910E+05   -1.8442504E+00
   1.2135063E-04   8.2069660E+05   -1.8437559E+00
   1.2191104E-04   8.1375520E+05   -1.8432605E+00
   1.2247403E-04   8.0687434E+05   -1.8427643E+00
   1.2303963E-04   8.0005350E+05   -1.8422672E+00
   1.2360784E-04   7.9329214E+05   -1.8417693E+00
   1.2417868E-04   7.8658973E+05   -1.8412705E+00
   1.2475215E-04   7.7994573E+05   -1.8407709E+00
   1.2532826E-04   7.7335964E+05   -1.8402704E+00
   1.2590704E-04   7.6683093E+05   -1.8397691E+00
   1.2648850E-04   7.6035909E+05   -1.8392670E+00
   1.2707263E-04   7.5394362E+05   -1.8387641E+00
   1.2765947E-04   7.4758402E+05   -1.8382603E+00
   1.2824901E-04   7.4127978E+05   -1.8377558E+00
   1.2884128E-04   7.3503042E+05   -1.8372504E+00
   1.2943628E-04   7.2883543E+05   -1.8367442E+00
   1.3003403E-04   7.2269435E+05   -1.8362371E+00
   1.3063454E-04   7.1660669E+05   -1.8357293E+00
   1.3123783E-04   7.1057197E+05   -1.8352207E+00
   1.3184390E-04   7.0458972E+05   -1.8347112E+00
   1.3245277E-04   6.9865948E+05   -1.8342010E+00
   1.3306445E-04   6.9278078E+05   -1.8336900E+00
   1.3367895E-04   6.8695316E+05   -1.8331782E+00
   1.3429630E-04   6.8117617E+05   -1.8326656E+00
   1.3491649E-04   6.7544936E+05   -1.8321522E+00
   1.3553955E-04   6.6977228E+05   -1.8316381E+00
   1.3616548E-04   6.6414450E+05   -1.8311231E+00
   1.3679431E-04   6.5856556E+05   -1.8306074E+00
   1.3742604E-04   6.5303504E+05   -1.8300910E+00
   1.3806069E-04   6.4755251E+05   -1.8295738E+00
   1.3869827E-04   6.4211754E+05   -1.8290558E+00
   1.3933879E-04   6.3672970E+05   -1.8285370E+00
   1.3998227E-04   6.3138859E+05   -1.8280175E+00
   1.4062872E-04   6.2609377E+05   -1.8274973E+00
   1.4127816E-04   6.2084485E+05   -1.8269763E+00
   1.4193060E-04   6.1564141E+05   -1.8264546E+00
   1.4258605E-04   6.1048305E+05   -1.8259321E+00
   1.4324453E-04   6.0536936E+05   -1.8254089E+00
   1.4390605E-04   6.0029997E+05   -1.8248850E+00
   1.4457062E-04   5.9527446E+05   -1.8243604E+00
   1.4523826E-04   5.9029245E+05   -1.8238350E+00
   1.4590899E-04   5.8535356E+05   -1.8233089E+00
   1.4658281E-04   5.8045739E+05   -1.8227821E+00
   1.4725974E-04   5.7560358E+05   -1.8222546E+00
   1.4793981E-04   5.7079174E+05   -1.8217264E+00
   1.4862301E-04   5.6602151E+05   -1.8211975E+00
   1.4930936E-04   5.6129251E+05   -1.8206679E+00
   1.4999889E-04   5.5660438E+05   -1.8201376E+00
   1.5069160E-04   5.5195676E+05   -1.8196067E+00
   1.5138751E-04   5.4734928E+05   -1.8190750E+00
   1.5208663E-04   5.4278160E+05   -1.8185427E+00
   1.5278899E-04   5.3825335E+05   -1.8180097E+00
   1.5349458E-04   5.3376420E+05   -1.8174760E+00
   1.5420343E-04   5.2931378E+05   -1.8169417E+00
   1.5491556E-04   5.2490177E+05   -1.8164067E+00
   1.5563098E-04   5.2052782E+05   -1.8158710E+00
   1.5634970E-04   5.1619159E+05   -1.8153347E+00
   1.5707174E-04   5.1189274E+05   -1.8147978E+00
   1.5779711E-04   5.0763096E+05   -1.8142602E+00
   1.5852584E-04   5.0340590E+05   -1.8137220E+00
   1.5925792E-04   4.9921725E+05   -1.8131831E+00
   1.5999339E-04   4.9506468E+05   -1.8126436E+00
   1.6073226E-04   4.9094787E+05   -1.8121035E+00
   1.6147454E-04   4.8686651E+05   -1.8115628E+00
   1.6222024E-04   4.8282028E+05   -1.8110214E+00
   1.6296939E-04   4.7880888E+05   -1.8104795E+00
   1.6372200E-04   4.7483199E+05   -1.8099369E+00
   1.6447809E-04   4.7088930E+05   -1.8093937E+00
   1.6523767E-04   4.6698053E+05   -1.8088500E+00
   1.6600075E-04   4.6310536E+05   -1.8083056E+00
   1.6676736E-04   4.5926350E+05   -1.8077607E+00
   1.6753751E-04   4.5545466E+05   -1.8072152E+00
   1.6831122E-04   4.5167854E+05   -1.8066691E+00
   1.6908849E-04   4.4793485E+05   -1.8061225E+00
   1.6986936E-04   4.4422332E+05   -1.8055752E+00
   1.7065384E-04   4.4054365E+05   -1.8050275E+00
   1.7144193E-04   4.3689556E+05   -1.8044791E+00
   1.7223367E-04   4.3327877E+05   -1.8039302E+00
   1.7302906E-04   4.2969302E+05   -1.8033808E+00
   1.7382813E-04   4.2613802E+05   -1.8028308E+00
   1.7463089E-04   4.2261350E+05   -1.8022803E+00
   1.7543735E-04   4.1911920E+05   -1.8017292E+00
   1.7624754E-04   4.1565485E+05   -1.8011777E+00
   1.7706147E-04   4.1222018E+05   -1.8006256E+00
   1.7787916E-04   4.0881493E+05   -1.8000730E+00
   1.7870062E-04   4.0543884E+05   -1.7995199E+00
   1.7952588E-04   4.0209166E+05   -1.7989662E+00
   1.8035495E-04   3.9877313E+05   -1.7984121E+00
   1.8118785E-04   3.9548300E+05   -1.7978575E+00
   1.8202459E-04   3.9222101E+05   -1.7973024E+00
   1.8286520E-04   3.8898693E+05   -1.7967468E+00
   1.8370969E-04   3.8578050E+05   -1.7961907E+00
   1.8455808E-04   3.8260149E+05   -1.7956342E+00
   1.8541039E-04   3.7944964E+05   -1.7950772E+00
   1.8626663E-04   3.7632473E+05   -1.7945197E+00
   1.8712683E-04   3.7322651E+05   -1.7939617E+00
   1.8799100E-04   3.7015474E+05   -1.7934034E+00
   1.8885917E-04   3.6710921E+05   -1.7928445E+00
   1.8973134E-04   3.6408967E+05   -1.7922852E+00
   1.9060754E-04   3.6109589E+05   -1.7917255E+00
   1.9148778E-04   3.5812766E+05   -1.7911654E+00
   1.9237209E-04   3.5518474E+05   -1.7906048E+00
   1.9326049E-04   3.5226692E+05   -1.7900438E+00
   1.9415299E-04   3.4937397E+05   -1.7894824E+00
   1.9504960E-04   3.4650568E+05   -1.7889206E+00
   1.9595036E-04   3.4366182E+05   -1.7883584E+00
   1.9685528E-04   3.4084219E+05   -1.7877958E+00
   1.9776438E-04   3.3804656E+05   -1.7872328E+00
   1.9867768E-04   3.3527474E+05   -1.7866694E+00
   1.9959519E-04   3.3252651E+05   -1.7861056E+00
   2.0051694E-04   3.2980166E+05   -1.7855415E+00
   2.0144295E-04   3.2709999E+05   -1.7849769E+00
   2.0237324E-04   3.2442130E+05   -1.7844121E+00
   2.0330782E-04   3.2176538E+05   -1.7838468E+00
   2.0424671E-04   3.1913204E+05   -1.7832812E+00
   2.0518995E-04   3.1652107E+05   -1.7827153E+00
   2.0613754E-04   3.1393228E+05   -1.7821490E+00
   2.0708950E-04   3.1136548E+05   -1.7815824E+00
   2.0804586E-04   3.0882047E+05   -1.7810154E+00
   2.0900664E-04   3.0629707E+05   -1.7804482E+00
   2.0997185E-04   3.0379507E+05   -1.7798806E+00
   2.1094152E-04   3.0131431E+05   -1.7793127E+00
   2.1191567E-04   2.9885458E+05   -1.7787444E+00
   2.1289432E-04   2.9641571E+05   -1.7781759E+00
   2.1387749E-04   2.9399751E+05   -1.7776071E+00
   2.1486520E-04   2.9159981E+05   -1.7770380E+00
   2.1585747E-04   2.8922241E+05   -1.7764686E+00
   2.1685432E-04   2.8686516E+05   -1.7758990E+00
   2.1785578E-04   2.8452786E+05   -1.7753290E+00
   2.1886186E-04   2.8221035E+05   -1.7747588E+00
   2.1987259E-04   2.7991245E+05   -1.7741884E+00
   2.2088798E-04   2.7763399E+05   -1.7736177E+00
   2.2190807E-04   2.7537480E+05   -1.7730467E+00
   2.2293286E-04   2.7313471E+05   -1.7724755E+00
   2.2396239E-04   2.7091356E+05   -1.7719040E+00
   2.2499667E-04   2.6871118E+05   -1.7713324E+00
   2.2603573E-04   2.6652740E+05   -1.7707605E+00
   2.2707958E-04   2.6436207E+05   -1.7701883E+00
   2.2812826E-04   2.6221503E+05   -1.7696160E+00
   2.2918178E-04   2.6008610E+05   -1.7690435E+00
   2.3024017E-04   2.5797514E+05   -1.7684707E+00
   2.3130344E-04   2.5588199E+05   -1.7678978E+00
   2.3237162E-04   2.5380649E+05   -1.7673246E+00
   2.3344474E-04   2.5174850E+05   -1.7667513E+00
   2.3452281E-04   2.4970785E+05   -1.7661778E+00
   2.3560586E-04   2.4768439E+05   -1.7656042E+00
   2.3669392E-04   2.4567799E+05   -1.7650304E+00
   2.3778699E-04   2.4368848E+05   -1.7644564E+00
   2.3888512E-04   2.4171572E+05   -1.7638822E+00
   2.3998831E-04   2.3975956E+05   -1.7633080E+00
   2.4109661E-04   2.3781986E+05   -1.7627335E+00
   2.4221001E-04   2.3589649E+05   -1.7621590E+00
   2.4332857E-04   2.3398928E+05   -1.7615843E+00
   2.4445228E-04   2.3209811E+05   -1.7610095E+00
   2.4558119E-04   2.3022284E+05   -1.7604345E+00
   2.4671531E-04   2.2836332E+05   -1.7598595E+00
   2.4785467E-04   2.2651942E+05   -1.7592843E+00
   2.4899928E-04   2.2469101E+05   -1.7587091E+00
   2.5014919E-04   2.2287794E+05   -1.7581338E+00
   2.5130440E-04   2.2108009E+05   -1.7575583E+00
   2.5246495E-04   2.1929733E+05   -1.7569828E+00
   2.5363086E-04   2.1752952E+05   -1.7564073E+00
   2.5480216E-04   2.1577653E+05   -1.7558316E+00
   2.5597886E-04   2.1403823E+05   -1.7552559E+00
   2.5716100E-04   2.1231450E+05   -1.7546801E+00
   2.5834859E-04   2.1060521E+05   -1.7541043E+00
   2.5954168E-04   2.0891024E+05   -1.7535284E+00
   2.6074027E-04   2.0722946E+05   -1.7529525E+00
   2.6194439E-04   2.0556275E+05   -1.7523766E+00
   2.6315408E-04   2.0390998E+05   -1.7518007E+00
   2.6436935E-04   2.0227104E+05   -1.7512247E+00
   2.6559024E-04   2.0064580E+05   -1.7506487E+00
   2.6681676E-04   1.9903416E+05   -1.7500727E+00
   2.6804895E-04   1.9743598E+05   -1.7494967E+00
   2.6928683E-04   1.9585115E+05   -1.7489207E+00
   2.7053042E-04   1.9427956E+05   -1.7483447E+00
   2.7177976E-04   1.9272109E+05   -1.7477688E+00
   2.7303487E-04   1.9117563E+05   -1.7471928E+00
   2.7429577E-04   1.8964307E+05   -1.7466169E+00
   2.7556250E-04   1.8812329E+05   -1.7460410E+00
   2.7683507E-04   1.8661619E+05   -1.7454652E+00
   2.7811353E-04   1.8512165E+05   -1.7448894E+00
   2.7939788E-04   1.8363957E+05   -1.7443137E+00
   2.8068817E-04   1.8216984E+05   -1.7437380E+00
   2.8198442E-04   1.8071235E+05   -1.7431624E+00
   2.8328665E-04   1.7926699E+05   -1.7425869E+00
   2.8459490E-04   1.7783367E+05   -1.7420114E+00
   2.8590919E-04   1.7641228E+05   -1.7414360E+00
   2.8722955E-04   1.7500271E+05   -1.7408607E+00
   2.8855600E-04   1.7360486E+05   -1.7402856E+00
   2.8988859E-04   1.7221864E+05   -1.7397105E+00
   2.9122732E-04   1.7084393E+05   -1.7391355E+00
   2.9257224E-04   1.6948065E+05   -1.7385606E+00
   2.9392337E-04   1.6812869E+05   -1.7379859E+00
   2.9528074E-04   1.6678796E+05   -1.7374113E+00
   2.9664438E-04   1.6545836E+05   -1.7368368E+00
   2.9801431E-04   1.6413979E+05   -1.7362625E+00
   2.9939057E-04   1.6283216E+05   -1.7356883E+00
   3.0077319E-04   1.6153538E+05   -1.7351142E+00
   3.0216219E-04   1.6024934E+05   -1.7345403E+00
   3.0355761E-04   1.5897397E+05   -1.7339666E+00
   3.0495947E-04   1.5770916E+05   -1.7333930E+00
   3.0636780E-04   1.5645483E+05   -1.7328197E+00
   3.0778264E-04   1.5521089E+05   -1.7322465E+00
   3.0920401E-04   1.5397724E+05   -1.7316734E+00
   3.1063195E-04   1.5275380E+05   -1.7311006E+00
   3.1206648E-04   1.5154048E+05   -1.7305280E+00
   3.1350764E-04   1.5033720E+05   -1.7299556E+00
   3.1495545E-04   1.4914386E+05   -1.7293834E+00
   3.1640994E-04   1.4796038E+05   -1.7288114E+00
   3.1787116E-04   1.4678669E+05   -1.7282396E+00
   3.1933912E-04   1.4562268E+05   -1.7276681E+00
   3.2081386E-04   1.4446829E+05   -1.7270968E+00
   3.2229541E-04   1.4332343E+05   -1.7265257E+00
   3.2378381E-04   1.4218801E+05   -1.7259549E+00
   3.2527908E-04   1.4106196E+05   -1.7253843E+00
   3.2678125E-04   1.3994520E+05   -1.7248140E+00
   3.2829036E-04   1.3883764E+05   -1.7242440E+00
   3.2980644E-04   1.3773920E+05   -1.7236742E+00
   3.3132952E-04   1.3664982E+05   -1.7231047E+00
   3.3285963E-04   1.3556941E+05   -1.7225355E+00
   3.3439681E-04   1.3449789E+05   -1.7219666E+00
   3.3594109E-04   1.3343519E+05   -1.7213979E+00
   3.3749250E-04   1.3238124E+05   -1.7208296E+00
   3.3905108E-04   1.3133595E+05   -1.7202616E+00
   3.4061685E-04   1.3029926E+05   -1.7196939E+00
   3.4218986E-04   1.2927109E+05   -1.7191265E+00
   3.4377013E-04   1.2825137E+05   -1.7185594E+00
   3.4535769E-04   1.2724002E+05   -1.7179926E+00
   3.4695259E-04   1.2623698E+05   -1.7174262E+00
   3.4855485E-04   1.2524217E+05   -1.7168601E+00
   3.5016452E-04   1.2425553E+05   -1.7162944E+00
   3.5178161E-04   1.2327698E+05   -1.7157290E+00
   3.5340618E-04   1.2230645E+05   -1.7151640E+00
   3.5503824E-04   1.2134388E+05   -1.7145993E+00
   3.5667785E-04   1.2038920E+05   -1.7140350E+00
   3.5832502E-04   1.1944234E+05   -1.7134711E+00
   3.5997981E-04   1.1850324E+05   -1.7129075E+00
   3.6164223E-04   1.1757183E+05   -1.7123444E+00
   3.6331233E-04   1.1664803E+05   -1.7117816E+00
   3.6499015E-04   1.1573180E+05   -1.7112192E+00
   3.6667571E-04   1.1482306E+05   -1.7106573E+00
   3.6836906E-04   1.1392175E+05   -1.7100957E+00
   3.7007022E-04   1.1302781E+05   -1.7095345E+00
   3.7177925E-04   1.1214117E+05   -1.7089738E+00
   3.7349616E-04   1.1126178E+05   -1.7084135E+00
   3.7522101E-04   1.1038957E+05   -1.7078536E+00
   3.7695382E-04   1.0952447E+05   -1.7072941E+00
   3.7869463E-04   1.0866644E+05   -1.7067351E+00
   3.8044348E-04   1.0781540E+05   -1.7061766E+00
   3.8220041E-04   1.0697131E+05   -1.7056184E+00
   3.8396545E-04   1.0613410E+05   -1.7050608E+00
   3.8573864E-04   1.0530371E+05   -1.7045036E+00
   3.8752002E-04   1.0448008E+05   -1.7039469E+00
   3.8930963E-04   1.0366316E+05   -1.7033906E+00
   3.9110750E-04   1.0285290E+05   -1.7028348E+00
   3.9291368E-04   1.0204923E+05   -1.7022795E+00
   3.9472820E-04   1.0125209E+05   -1.7017247E+00
   3.9655109E-04   1.0046144E+05   -1.7011704E+00
   3.9838241E-04   9.9677221E+04   -1.7006165E+00
   4.0022218E-04   9.8899373E+04   -1.7000632E+00
   4.0207045E-04   9.8127846E+04   -1.6995104E+00
   4.0392725E-04   9.7362586E+04   -1.6989581E+00
   4.0579263E-04   9.6603539E+04   -1.6984063E+00
   4.0766662E-04   9.5850653E+04   -1.6978550E+00
   4.0954927E-04   9.5103876E+04   -1.6973043E+00
   4.1144061E-04   9.4363157E+04   -1.6967541E+00
   4.1334068E-04   9.3628444E+04   -1.6962045E+00
   4.1524953E-04   9.2899687E+04   -1.6956554E+00
   4.1716720E-04   9.2176835E+04   -1.6951068E+00
   4.1909372E-04   9.1459838E+04   -1.6945588E+00
   4.2102914E-04   9.0748648E+04   -1.6940113E+00
   4.2297350E-04   9.0043215E+04   -1.6934644E+00
   4.2492683E-04   8.9343491E+04   -1.6929181E+00
   4.2688919E-04   8.8649427E+04   -1.6923724E+00
   4.2886061E-04   8.7960976E+04   -1.6918272E+00
   4.3084113E-04   8.7278091E+04   -1.6912826E+00
   4.3283080E-04   8.6600725E+04   -1.6907386E+00
   4.3482966E-04   8.5928831E+04   -1.6901952E+00
   4.3683775E-04   8.5262363E+04   -1.6896524E+00
   4.3885511E-04   8.4601276E+04   -1.6891102E+00
   4.4088179E-04   8.3945524E+04   -1.6885686E+00
   4.4291783E-04   8.3295062E+04   -1.6880276E+00
   4.4496327E-04   8.2649847E+04   -1.6874873E+00
   4.4701816E-04   8.2009834E+04   -1.6869475E+00
   4.4908253E-04   8.1374979E+04   -1.6864084E+00
   4.5115644E-04   8.0745238E+04   -1.6858699E+00
   4.5323993E-04   8.0120571E+04   -1.6853321E+00
   4.5533304E-04   7.9500932E+04   -1.6847949E+00
   4.5743582E-04   7.8886281E+04   -1.6842583E+00
   4.5954830E-04   7.8276576E+04   -1.6837224E+00
   4.6167054E-04   7.7671774E+04   -1.6831871E+00
   4.6380259E-04   7.7071836E+04   -1.6826525E+00
   4.6594448E-04   7.6476719E+04   -1.6821185E+00
   4.6809626E-04   7.5886384E+04   -1.6815853E+00
   4.7025797E-04   7.5300792E+04   -1.6810527E+00
   4.7242967E-04   7.4719901E+04   -1.6805207E+00
   4.7461140E-04   7.4143673E+04   -1.6799895E+00
   4.7680321E-04   7.3572068E+04   -1.6794589E+00
   4.7900514E-04   7.3005049E+04   -1.6789290E+00
   4.8121723E-04   7.2442577E+04   -1.6783998E+00
   4.8343954E-04   7.1884613E+04   -1.6778713E+00
   4.8567212E-04   7.1331121E+04   -1.6773435E+00
   4.8791500E-04   7.0782062E+04   -1.6768165E+00
   4.9016825E-04   7.0237400E+04   -1.6762901E+00
   4.9243189E-04   6.9697098E+04   -1.6757644E+00
   4.9470600E-04   6.9161120E+04   -1.6752395E+00
   4.9699060E-04   6.8629429E+04   -1.6747153E+00
   4.9928575E-04   6.8101990E+04   -1.6741918E+00
   5.0159151E-04   6.7578767E+04   -1.6736690E+00
   5.0390791E-04   6.7059726E+04   -1.6731470E+00
   5.0623501E-04   6.6544832E+04   -1.6726257E+00
   5.0857286E-04   6.6034049E+04   -1.6721051E+00
   5.1092150E-04   6.5527344E+04   -1.6715853E+00
   5.1328099E-04   6.5024682E+04   -1.6710663E+00
   5.1565137E-04   6.4526031E+04   -1.6705480E+00
   5.1803270E-04   6.4031357E+04   -1.6700304E+00
   5.2042503E-04   6.3540626E+04   -1.6695136E+00
   5.2282841E-04   6.3053807E+04   -1.6689976E+00
   5.2524289E-04   6.2570865E+04   -1.6684823E+00
   5.2766851E-04   6.2091770E+04   -1.6679679E+00
   5.3010534E-04   6.1616489E+04   -1.6674542E+00
   5.3255342E-04   6.1144991E+04   -1.6669412E+00
   5.3501281E-04   6.0677244E+04   -1.6664291E+00
   5.3748356E-04   6.0213218E+04   -1.6659178E+00
   5.3996571E-04   5.9752880E+04   -1.6654072E+00
   5.4245933E-04   5.9296201E+04   -1.6648974E+00
   5.4496446E-04   5.8843151E+04   -1.6643885E+00
   5.4748117E-04   5.8393699E+04   -1.6638803E+00
   5.5000949E-04   5.7947816E+04   -1.6633729E+00
   5.5254949E-04   5.7505472E+04   -1.6628664E+00
   5.5510123E-04   5.7066637E+04   -1.6623606E+00
   5.5766474E-04   5.6631283E+04   -1.6618557E+00
   5.6024010E-04   5.6199381E+04   -1.6613516E+00
   5.6282734E-04   5.5770902E+04   -1.6608483E+00
   5.6542654E-04   5.5345818E+04   -1.6603458E+00
   5.6803774E-04   5.4924102E+04   -1.6598442E+00
   5.7066099E-04   5.4505724E+04   -1.6593434E+00
   5.7329637E-04   5.4090658E+04   -1.6588434E+00
   5.7594391E-04   5.3678877E+04   -1.6583443E+00
   5.7860368E-04   5.3270353E+04   -1.6578460E+00
   5.8127573E-04   5.2865059E+04   -1.6573486E+00
   5.8396012E-04   5.2462969E+04   -1.6568520E+00
   5.8665691E-04   5.2064056E+04   -1.6563562E+00
   5.8936616E-04   5.1668294E+04   -1.6558614E+00
   5.9208791E-04   5.1275657E+04   -1.6553673E+00
   5.9482223E-04   5.0886120E+04   -1.6548741E+00
   5.9756919E-04   5.0499657E+04   -1.6543818E+00
   6.0032882E-04   5.0116242E+04   -1.6538904E+00
   6.0310120E-04   4.9735851E+04   -1.6533998E+00
   6.0588639E-04   4.9358459E+04   -1.6529101E+00
   6.0868443E-04   4.8984041E+04   -1.6524213E+00
   6.1149540E-04   4.8612572E+04   -1.6519333E+00
   6.1431935E-04   4.8244029E+04   -1.6514462E+00
   6.1715634E-04   4.7878387E+04   -1.6509601E+00
   6.2000644E-04   4.7515623E+04   -1.6504747E+00
   6.2286969E-04   4.7155712E+04   -1.6499903E+00
