#        a       HoverH0(a)       dlogHdloga_of_a(a)
   1.0000000E-04   1.0771623E+06   -1.8714348E+00
   1.0046181E-04   1.0679154E+06   -1.8709942E+00
   1.0092575E-04   1.0587500E+06   -1.8705527E+00
   1.0139184E-04   1.0496654E+06   -1.8701102E+00
   1.0186008E-04   1.0406609E+06   -1.8696667E+00
   1.0233048E-04   1.0317358E+06   -1.8692222E+00
   1.0280305E-04   1.0228893E+06   -1.8687767E+00
   1.0327781E-04   1.0141207E+06   -1.8683303E+00
   1.0375475E-04   1.0054294E+06   -1.8678829E+00
   1.0423390E-04   9.9681458E+05   -1.8674345E+00
   1.0471527E-04   9.8827565E+05   -1.8669852E+00
   1.0519885E-04   9.7981189E+05   -1.8665348E+00
   1.0568467E-04   9.7142263E+05   -1.8660835E+00
   1.0617274E-04   9.6310721E+05   -1.8656313E+00
   1.0666305E-04   9.5486497E+05   -1.8651781E+00
   1.0715563E-04   9.4669524E+05   -1.8647239E+00
   1.0765049E-04   9.3859738E+05   -1.8642687E+00
   1.0814763E-04   9.3057073E+05   -1.8638126E+00
   1.0864707E-04   9.2261467E+05   -1.8633556E+00
   1.0914881E-04   9.1472856E+05   -1.8628975E+00
   1.0965287E-04   9.0691177E+05   -1.8624386E+00
   1.1015926E-04   8.9916369E+05   -1.8619786E+00
   1.1066799E-04   8.9148369E+05   -1.8615178E+00
   1.1117906E-04   8.8387116E+05   -1.8610559E+00
   1.1169250E-04   8.7632551E+05   -1.8605932E+00
   1.1220831E-04   8.6884612E+05   -1.8601295E+00
   1.1272650E-04   8.6143242E+05   -1.8596648E+00
   1.1324708E-04   8.5408381E+05   -1.8591992E+00
   1.1377007E-04   8.4679970E+05   -1.8587327E+00
   1.1429547E-04   8.3957953E+05   -1.8582652E+00
   1.1482330E-04   8.3242271E+05   -1.8577968E+00
   1.1535356E-04   8.2532868E+05   -1.8573274E+00
   1.1588628E-04   8.1829688E+05   -1.8568572E+00
   1.1642145E-04   8.1132675E+05   -1.8563860E+00
   1.1695910E-04   8.0441773E+05   -1.8559139E+00
   1.1749923E-04   7.9756929E+05   -1.8554408E+00
   1.1804185E-04   7.9078088E+05   -1.8549669E+00
   1.1858698E-04   7.8405196E+05   -1.8544920E+00
   1.1913463E-04   7.7738200E+05   -1.8540162E+00
   1.1968481E-04   7.7077048E+05   -1.8535395E+00
   1.2023752E-04   7.6421686E+05   -1.8530619E+00
   1.2079279E-04   7.5772064E+05   -1.8525833E+00
   1.2135063E-04   7.5128129E+05   -1.8521039E+00
   1.2191104E-04   7.4489832E+05   -1.8516236E+00
   1.2247403E-04   7.3857122E+05   -1.8511423E+00
   1.2303963E-04   7.3229948E+05   -1.8506602E+00
   1.2360784E-04   7.2608261E+05   -1.8501772E+00
   1.2417868E-04   7.1992013E+05   -1.8496932E+00
   1.2475215E-04   7.1381154E+05   -1.8492084E+00
   1.2532826E-04   7.0775636E+05   -1.8487227E+00
   1.2590704E-04   7.0175412E+05   -1.8482361E+00
   1.2648850E-04   6.9580435E+05   -1.8477487E+00
   1.2707263E-04   6.8990657E+05   -1.8472603E+00
   1.2765947E-04   6.8406032E+05   -1.8467711E+00
   1.2824901E-04   6.7826515E+05   -1.8462810E+00
   1.2884128E-04   6.7252059E+05   -1.8457900E+00
   1.2943628E-04   6.6682619E+05   -1.8452982E+00
   1.3003403E-04   6.6118151E+05   -1.8448055E+00
   1.3063454E-04   6.5558610E+05   -1.8443119E+00
   1.3123783E-04   6.5003952E+05   -1.8438175E+00
   1.3184390E-04   6.4454134E+05   -1.8433223E+00
   1.3245277E-04   6.3909112E+05   -1.8428261E+00
   1.3306445E-04   6.3368844E+05   -1.8423291E+00
   1.3367895E-04   6.2833287E+05   -1.8418313E+00
   1.3429630E-04   6.2302400E+05   -1.8413327E+00
   1.3491649E-04   6.1776140E+05   -1.8408331E+00
   1.3553955E-04   6.1254466E+05   -1.8403328E+00
   1.3616548E-04   6.0737338E+05   -1.8398316E+00
   1.3679431E-04   6.0224715E+05   -1.8393296E+00
   1.3742604E-04   5.9716556E+05   -1.8388268E+00
   1.3806069E-04   5.9212823E+05   -1.8383231E+00
   1.3869827E-04   5.8713475E+05   -1.8378186E+00
   1.3933879E-04   5.8218474E+05   -1.8373133E+00
   1.3998227E-04   5.7727780E+05   -1.8368072E+00
   1.4062872E-04   5.7241356E+05   -1.8363003E+00
   1.4127816E-04   5.6759163E+05   -1.8357926E+00
   1.4193060E-04   5.6281164E+05   -1.8352840E+00
   1.4258605E-04   5.5807321E+05   -1.8347747E+00
   1.4324453E-04   5.5337597E+05   -1.8342646E+00
   1.4390605E-04   5.4871956E+05   -1.8337536E+00
   1.4457062E-04   5.4410362E+05   -1.8332419E+00
   1.4523826E-04   5.3952778E+05   -1.8327294E+00
   1.4590899E-04   5.3499168E+05   -1.8322161E+00
   1.4658281E-04   5.3049498E+05   -1.8317021E+00
   1.4725974E-04   5.2603732E+05   -1.8311873E+00
   1.4793981E-04   5.2161836E+05   -1.8306716E+00
   1.4862301E-04   5.1723775E+05   -1.8301553E+00
   1.4930936E-04   5.1289514E+05   -1.8296381E+00
   1.4999889E-04   5.0859021E+05   -1.8291202E+00
   1.5069160E-04   5.0432262E+05   -1.8286016E+00
   1.5138751E-04   5.0009203E+05   -1.8280822E+00
   1.5208663E-04   4.9589812E+05   -1.8275620E+00
   1.5278899E-04   4.9174055E+05   -1.8270411E+00
   1.5349458E-04   4.8761902E+05   -1.8265195E+00
   1.5420343E-04   4.8353320E+05   -1.8259971E+00
   1.5491556E-04   4.7948276E+05   -1.8254740E+00
   1.5563098E-04   4.7546740E+05   -1.8249502E+00
   1.5634970E-04   4.7148681E+05   -1.8244256E+00
   1.5707174E-04   4.6754067E+05   -1.8239003E+00
   1.5779711E-04   4.6362868E+05   -1.8233743E+00
   1.5852584E-04   4.5975054E+05   -1.8228476E+00
   1.5925792E-04   4.5590595E+05   -1.8223202E+00
   1.5999339E-04   4.5209460E+05   -1.8217921E+00
   1.6073226E-04   4.4831621E+05   -1.8212633E+00
   1.6147454E-04   4.4457048E+05   -1.8207338E+00
   1.6222024E-04   4.4085713E+05   -1.8202036E+00
   1.6296939E-04   4.3717586E+05   -1.8196727E+00
   1.6372200E-04   4.3352639E+05   -1.8191411E+00
   1.6447809E-04   4.2990843E+05   -1.8186089E+00
   1.6523767E-04   4.2632172E+05   -1.8180759E+00
   1.6600075E-04   4.2276597E+05   -1.8175423E+00
   1.6676736E-04   4.1924091E+05   -1.8170081E+00
   1.6753751E-04   4.1574627E+05   -1.8164732E+00
   1.6831122E-04   4.1228177E+05   -1.8159376E+00
   1.6908849E-04   4.0884715E+05   -1.8154014E+00
   1.6986936E-04   4.0544215E+05   -1.8148645E+00
   1.7065384E-04   4.0206650E+05   -1.8143270E+00
   1.7144193E-04   3.9871994E+05   -1.8137888E+00
   1.7223367E-04   3.9540222E+05   -1.8132500E+00
   1.7302906E-04   3.9211308E+05   -1.8127106E+00
   1.7382813E-04   3.8885226E+05   -1.8121706E+00
   1.7463089E-04   3.8561953E+05   -1.8116299E+00
   1.7543735E-04   3.8241462E+05   -1.8110886E+00
   1.7624754E-04   3.7923730E+05   -1.8105467E+00
   1.7706147E-04   3.7608731E+05   -1.8100043E+00
   1.7787916E-04   3.7296442E+05   -1.8094612E+00
   1.7870062E-04   3.6986839E+05   -1.8089175E+00
   1.7952588E-04   3.6679898E+05   -1.8083732E+00
   1.8035495E-04   3.6375595E+05   -1.8078283E+00
   1.8118785E-04   3.6073907E+05   -1.8072829E+00
   1.8202459E-04   3.5774811E+05   -1.8067369E+00
   1.8286520E-04   3.5478285E+05   -1.8061903E+00
   1.8370969E-04   3.5184305E+05   -1.8056431E+00
   1.8455808E-04   3.4892849E+05   -1.8050954E+00
   1.8541039E-04   3.4603895E+05   -1.8045471E+00
   1.8626663E-04   3.4317421E+05   -1.8039983E+00
   1.8712683E-04   3.4033404E+05   -1.8034489E+00
   1.8799100E-04   3.3751823E+05   -1.8028990E+00
   1.8885917E-04   3.3472657E+05   -1.8023486E+00
   1.8973134E-04   3.3195884E+05   -1.8017976E+00
   1.9060754E-04   3.2921483E+05   -1.8012461E+00
   1.9148778E-04   3.2649433E+05   -1.8006940E+00
   1.9237209E-04   3.2379714E+05   -1.8001415E+00
   1.9326049E-04   3.2112305E+05   -1.7995884E+00
   1.9415299E-04   3.1847185E+05   -1.7990348E+00
   1.9504960E-04   3.1584335E+05   -1.7984808E+00
   1.9595036E-04   3.1323734E+05   -1.7979262E+00
   1.9685528E-04   3.1065363E+05   -1.7973712E+00
   1.9776438E-04   3.0809202E+05   -1.7968156E+00
   1.9867768E-04   3.0555232E+05   -1.7962596E+00
   1.9959519E-04   3.0303432E+05   -1.7957031E+00
   2.0051694E-04   3.0053785E+05   -1.7951461E+00
   2.0144295E-04   2.9806271E+05   -1.7945887E+00
   2.0237324E-04   2.9560871E+05   -1.7940308E+00
   2.0330782E-04   2.9317567E+05   -1.7934725E+00
   2.0424671E-04   2.9076341E+05   -1.7929137E+00
   2.0518995E-04   2.8837173E+05   -1.7923545E+00
   2.0613754E-04   2.8600047E+05   -1.7917948E+00
   2.0708950E-04   2.8364943E+05   -1.7912347E+00
   2.0804586E-04   2.8131845E+05   -1.7906742E+00
   2.0900664E-04   2.7900735E+05   -1.7901133E+00
   2.0997185E-04   2.7671595E+05   -1.7895519E+00
   2.1094152E-04   2.7444407E+05   -1.7889901E+00
   2.1191567E-04   2.7219156E+05   -1.7884279E+00
   2.1289432E-04   2.6995823E+05   -1.7878654E+00
   2.1387749E-04   2.6774392E+05   -1.7873024E+00
   2.1486520E-04   2.6554846E+05   -1.7867391E+00
   2.1585747E-04   2.6337168E+05   -1.7861753E+00
   2.1685432E-04   2.6121343E+05   -1.7856112E+00
   2.1785578E-04   2.5907354E+05   -1.7850467E+00
   2.1886186E-04   2.5695185E+05   -1.7844819E+00
   2.1987259E-04   2.5484820E+05   -1.7839167E+00
   2.2088798E-04   2.5276242E+05   -1.7833511E+00
   2.2190807E-04   2.5069438E+05   -1.7827852E+00
   2.2293286E-04   2.4864390E+05   -1.7822190E+00
   2.2396239E-04   2.4661083E+05   -1.7816524E+00
   2.2499667E-04   2.4459503E+05   -1.7810855E+00
   2.2603573E-04   2.4259634E+05   -1.7805182E+00
   2.2707958E-04   2.4061461E+05   -1.7799507E+00
   2.2812826E-04   2.3864969E+05   -1.7793828E+00
   2.2918178E-04   2.3670144E+05   -1.7788146E+00
   2.3024017E-04   2.3476971E+05   -1.7782461E+00
   2.3130344E-04   2.3285435E+05   -1.7776773E+00
   2.3237162E-04   2.3095523E+05   -1.7771083E+00
   2.3344474E-04   2.2907219E+05   -1.7765389E+00
   2.3452281E-04   2.2720511E+05   -1.7759693E+00
   2.3560586E-04   2.2535383E+05   -1.7753994E+00
   2.3669392E-04   2.2351822E+05   -1.7748292E+00
   2.3778699E-04   2.2169815E+05   -1.7742587E+00
   2.3888512E-04   2.1989348E+05   -1.7736880E+00
   2.3998831E-04   2.1810407E+05   -1.7731171E+00
   2.4109661E-04   2.1632979E+05   -1.7725459E+00
   2.4221001E-04   2.1457051E+05   -1.7719745E+00
   2.4332857E-04   2.1282610E+05   -1.7714028E+00
   2.4445228E-04   2.1109643E+05   -1.7708310E+00
   2.4558119E-04   2.0938136E+05   -1.7702588E+00
   2.4671531E-04   2.0768078E+05   -1.7696865E+00
   2.4785467E-04   2.0599455E+05   -1.7691140E+00
   2.4899928E-04   2.0432256E+05   -1.7685413E+00
   2.5014919E-04   2.0266466E+05   -1.7679684E+00
   2.5130440E-04   2.0102076E+05   -1.7673952E+00
   2.5246495E-04   1.9939071E+05   -1.7668219E+00
   2.5363086E-04   1.9777440E+05   -1.7662485E+00
   2.5480216E-04   1.9617172E+05   -1.7656748E+00
   2.5597886E-04   1.9458253E+05   -1.7651010E+00
   2.5716100E-04   1.9300673E+05   -1.7645270E+00
   2.5834859E-04   1.9144420E+05   -1.7639529E+00
   2.5954168E-04   1.8989482E+05   -1.7633786E+00
   2.6074027E-04   1.8835847E+05   -1.7628042E+00
   2.6194439E-04   1.8683506E+05   -1.7622297E+00
   2.6315408E-04   1.8532445E+05   -1.7616550E+00
   2.6436935E-04   1.8382654E+05   -1.7610802E+00
   2.6559024E-04   1.8234123E+05   -1.7605052E+00
   2.6681676E-04   1.8086839E+05   -1.7599302E+00
   2.6804895E-04   1.7940793E+05   -1.7593551E+00
   2.6928683E-04   1.7795973E+05   -1.7587798E+00
   2.7053042E-04   1.7652369E+05   -1.7582045E+00
   2.7177976E-04   1.7509970E+05   -1.7576290E+00
   2.7303487E-04   1.7368766E+05   -1.7570535E+00
   2.7429577E-04   1.7228746E+05   -1.7564780E+00
   2.7556250E-04   1.7089901E+05   -1.7559023E+00
   2.7683507E-04   1.6952219E+05   -1.7553266E+00
   2.7811353E-04   1.6815691E+05   -1.7547508E+00
   2.7939788E-04   1.6680307E+05   -1.7541750E+00
   2.8068817E-04   1.6546057E+05   -1.7535991E+00
   2.8198442E-04   1.6412931E+05   -1.7530232E+00
   2.8328665E-04   1.6280919E+05   -1.7524473E+00
   2.8459490E-04   1.6150012E+05   -1.7518713E+00
   2.8590919E-04   1.6020199E+05   -1.7512953E+00
   2.8722955E-04   1.5891473E+05   -1.7507194E+00
   2.8855600E-04   1.5763823E+05   -1.7501433E+00
   2.8988859E-04   1.5637239E+05   -1.7495673E+00
   2.9122732E-04   1.5511713E+05   -1.7489913E+00
   2.9257224E-04   1.5387236E+05   -1.7484153E+00
   2.9392337E-04   1.5263798E+05   -1.7478394E+00
   2.9528074E-04   1.5141390E+05   -1.7472634E+00
   2.9664438E-04   1.5020004E+05   -1.7466875E+00
   2.9801431E-04   1.4899631E+05   -1.7461116E+00
   2.9939057E-04   1.4780261E+05   -1.7455357E+00
   3.0077319E-04   1.4661887E+05   -1.7449599E+00
   3.0216219E-04   1.4544500E+05   -1.7443842E+00
   3.0355761E-04   1.4428090E+05   -1.7438085E+00
   3.0495947E-04   1.4312650E+05   -1.7432329E+00
   3.0636780E-04   1.4198172E+05   -1.7426573E+00
   3.0778264E-04   1.4084646E+05   -1.7420818E+00
   3.0920401E-04   1.3972066E+05   -1.7415064E+00
   3.1063195E-04   1.3860421E+05   -1.7409311E+00
   3.1206648E-04   1.3749706E+05   -1.7403559E+00
   3.1350764E-04   1.3639911E+05   -1.7397808E+00
   3.1495545E-04   1.3531028E+05   -1.7392058E+00
   3.1640994E-04   1.3423051E+05   -1.7386309E+00
   3.1787116E-04   1.3315970E+05   -1.7380561E+00
   3.1933912E-04   1.3209778E+05   -1.7374815E+00
   3.2081386E-04   1.3104468E+05   -1.7369070E+00
   3.2229541E-04   1.3000032E+05   -1.7363326E+00
   3.2378381E-04   1.2896462E+05   -1.7357584E+00
   3.2527908E-04   1.2793752E+05   -1.7351843E+00
   3.2678125E-04   1.2691892E+05   -1.7346104E+00
   3.2829036E-04   1.2590878E+05   -1.7340366E+00
   3.2980644E-04   1.2490700E+05   -1.7334630E+00
   3.3132952E-04   1.2391352E+05   -1.7328896E+00
   3.3285963E-04   1.2292826E+05   -1.7323164E+00
   3.3439681E-04   1.2195116E+05   -1.7317433E+00
   3.3594109E-04   1.2098215E+05   -1.7311705E+00
   3.3749250E-04   1.2002115E+05   -1.7305978E+00
   3.3905108E-04   1.1906811E+05   -1.7300254E+00
   3.4061685E-04   1.1812294E+05   -1.7294531E+00
   3.4218986E-04   1.1718558E+05   -1.7288811E+00
   3.4377013E-04   1.1625597E+05   -1.7283093E+00
   3.4535769E-04   1.1533403E+05   -1.7277377E+00
   3.4695259E-04   1.1441971E+05   -1.7271663E+00
   3.4855485E-04   1.1351294E+05   -1.7265952E+00
   3.5016452E-04   1.1261364E+05   -1.7260244E+00
   3.5178161E-04   1.1172177E+05   -1.7254538E+00
   3.5340618E-04   1.1083725E+05   -1.7248834E+00
   3.5503824E-04   1.0996002E+05   -1.7243133E+00
   3.5667785E-04   1.0909002E+05   -1.7237435E+00
   3.5832502E-04   1.0822719E+05   -1.7231740E+00
   3.5997981E-04   1.0737147E+05   -1.7226047E+00
   3.6164223E-04   1.0652279E+05   -1.7220357E+00
   3.6331233E-04   1.0568110E+05   -1.7214670E+00
   3.6499015E-04   1.0484633E+05   -1.7208986E+00
   3.6667571E-04   1.0401842E+05   -1.7203306E+00
   3.6836906E-04   1.0319733E+05   -1.7197628E+00
   3.7007022E-04   1.0238298E+05   -1.7191953E+00
   3.7177925E-04   1.0157533E+05   -1.7186282E+00
   3.7349616E-04   1.0077431E+05   -1.7180614E+00
   3.7522101E-04   9.9979866E+04   -1.7174949E+00
   3.7695382E-04   9.9191945E+04   -1.7169288E+00
   3.7869463E-04   9.8410491E+04   -1.7163630E+00
   3.8044348E-04   9.7635448E+04   -1.7157975E+00
   3.8220041E-04   9.6866760E+04   -1.7152324E+00
   3.8396545E-04   9.6104375E+04   -1.7146677E+00
   3.8573864E-04   9.5348238E+04   -1.7141034E+00
   3.8752002E-04   9.4598297E+04   -1.7135394E+00
   3.8930963E-04   9.3854497E+04   -1.7129758E+00
   3.9110750E-04   9.3116788E+04   -1.7124125E+00
   3.9291368E-04   9.2385116E+04   -1.7118497E+00
   3.9472820E-04   9.1659432E+04   -1.7112873E+00
   3.9655109E-04   9.0939683E+04   -1.7107252E+00
   3.9838241E-04   9.0225820E+04   -1.7101636E+00
   4.0022218E-04   8.9517791E+04   -1.7096024E+00
   4.0207045E-04   8.8815549E+04   -1.7090416E+00
   4.0392725E-04   8.8119043E+04   -1.7084812E+00
   4.0579263E-04   8.7428225E+04   -1.7079212E+00
   4.0766662E-04   8.6743047E+04   -1.7073617E+00
   4.0954927E-04   8.6063460E+04   -1.7068026E+00
   4.1144061E-04   8.5389417E+04   -1.7062440E+00
   4.1334068E-04   8.4720871E+04   -1.7056858E+00
   4.1524953E-04   8.4057775E+04   -1.7051280E+00
   4.1716720E-04   8.3400083E+04   -1.7045708E+00
   4.1909372E-04   8.2747750E+04   -1.7040140E+00
   4.2102914E-04   8.2100730E+04   -1.7034576E+00
   4.2297350E-04   8.1458978E+04   -1.7029018E+00
   4.2492683E-04   8.0822448E+04   -1.7023464E+00
   4.2688919E-04   8.0191098E+04   -1.7017915E+00
   4.2886061E-04   7.9564884E+04   -1.7012371E+00
   4.3084113E-04   7.8943761E+04   -1.7006832E+00
   4.3283080E-04   7.8327686E+04   -1.7001298E+00
   4.3482966E-04   7.7716617E+04   -1.6995769E+00
   4.3683775E-04   7.7110512E+04   -1.6990245E+00
   4.3885511E-04   7.6509329E+04   -1.6984726E+00
   4.4088179E-04   7.5913025E+04   -1.6979213E+00
   4.4291783E-04   7.5321560E+04   -1.6973705E+00
   4.4496327E-04   7.4734894E+04   -1.6968202E+00
   4.4701816E-04   7.4152984E+04   -1.6962704E+00
   4.4908253E-04   7.3575792E+04   -1.6957212E+00
   4.5115644E-04   7.3003276E+04   -1.6951726E+00
   4.5323993E-04   7.2435400E+04   -1.6946245E+00
   4.5533304E-04   7.1872121E+04   -1.6940770E+00
   4.5743582E-04   7.1313403E+04   -1.6935300E+00
   4.5954830E-04   7.0759207E+04   -1.6929836E+00
   4.6167054E-04   7.0209494E+04   -1.6924377E+00
   4.6380259E-04   6.9664226E+04   -1.6918925E+00
   4.6594448E-04   6.9123367E+04   -1.6913478E+00
   4.6809626E-04   6.8586879E+04   -1.6908037E+00
   4.7025797E-04   6.8054726E+04   -1.6902602E+00
   4.7242967E-04   6.7526870E+04   -1.6897173E+00
   4.7461140E-04   6.7003276E+04   -1.6891750E+00
   4.7680321E-04   6.6483908E+04   -1.6886333E+00
   4.7900514E-04   6.5968730E+04   -1.6880923E+00
   4.8121723E-04   6.5457707E+04   -1.6875518E+00
   4.8343954E-04   6.4950805E+04   -1.6870120E+00
   4.8567212E-04   6.4447988E+04   -1.6864727E+00
   4.8791500E-04   6.3949223E+04   -1.6859341E+00
   4.9016825E-04   6.3454475E+04   -1.6853962E+00
   4.9243189E-04   6.2963711E+04   -1.6848589E+00
   4.9470600E-04   6.2476897E+04   -1.6843222E+00
   4.9699060E-04   6.1994000E+04   -1.6837862E+00
   4.9928575E-04   6.1514987E+04   -1.6832508E+00
   5.0159151E-04   6.1039826E+04   -1.6827161E+00
   5.0390791E-04   6.0568484E+04   -1.6821821E+00
   5.0623501E-04   6.0100930E+04   -1.6816487E+00
   5.0857286E-04   5.9637131E+04   -1.6811160E+00
   5.1092150E-04   5.9177057E+04   -1.6805839E+00
   5.1328099E-04   5.8720676E+04   -1.6800526E+00
   5.1565137E-04   5.8267957E+04   -1.6795219E+00
   5.1803270E-04   5.7818869E+04   -1.6789919E+00
   5.2042503E-04   5.7373383E+04   -1.6784626E+00
   5.2282841E-04   5.6931469E+04   -1.6779340E+00
   5.2524289E-04   5.6493095E+04   -1.6774061E+00
   5.2766851E-04   5.6058233E+04   -1.6768789E+00
   5.3010534E-04   5.5626854E+04   -1.6763524E+00
   5.3255342E-04   5.5198928E+04   -1.6758267E+00
   5.3501281E-04   5.4774426E+04   -1.6753016E+00
   5.3748356E-04   5.4353320E+04   -1.6747773E+00
   5.3996571E-04   5.3935583E+04   -1.6742537E+00
   5.4245933E-04   5.3521184E+04   -1.6737308E+00
   5.4496446E-04   5.3110098E+04   -1.6732086E+00
   5.4748117E-04   5.2702296E+04   -1.6726872E+00
   5.5000949E-04   5.2297750E+04   -1.6721666E+00
   5.5254949E-04   5.1896434E+04   -1.6716466E+00
   5.5510123E-04   5.1498322E+04   -1.6711275E+00
   5.5766474E-04   5.1103385E+04   -1.6706091E+00
   5.6024010E-04   5.0711598E+04   -1.6700914E+00
   5.6282734E-04   5.0322935E+04   -1.6695745E+00
   5.6542654E-04   4.9937369E+04   -1.6690583E+00
   5.6803774E-04   4.9554875E+04   -1.6685430E+00
   5.7066099E-04   4.9175427E+04   -1.6680284E+00
   5.7329637E-04   4.8799001E+04   -1.6675146E+00
   5.7594391E-04   4.8425571E+04   -1.6670015E+00
   5.7860368E-04   4.8055112E+04   -1.6664893E+00
   5.8127573E-04   4.7687599E+04   -1.6659778E+00
   5.8396012E-04   4.7323008E+04   -1.6654671E+00
   5.8665691E-04   4.6961316E+04   -1.6649572E+00
   5.8936616E-04   4.6602497E+04   -1.6644481E+00
   5.9208791E-04   4.6246528E+04   -1.6639398E+00
   5.9482223E-04   4.5893386E+04   -1.6634323E+00
   5.9756919E-04   4.5543046E+04   -1.6629257E+00
   6.0032882E-04   4.5195486E+04   -1.6624198E+00
   6.0310120E-04   4.4850684E+04   -1.6619147E+00
   6.0588639E-04   4.4508615E+04   -1.6614105E+00
   6.0868443E-04   4.4169258E+04   -1.6609071E+00
   6.1149540E-04   4.3832589E+04   -1.6604045E+00
   6.1431935E-04   4.3498588E+04   -1.6599027E+00
   6.1715634E-04   4.3167231E+04   -1.6594018E+00
   6.2000644E-04   4.2838498E+04   -1.6589017E+00
   6.2286969E-04   4.2512365E+04   -1.6584025E+00
