#        a       HoverH0(a)       dlogHdloga_of_a(a)
   1.0000000E-04   1.0881521E+06   -1.8725506E+00
   1.0046181E-04   1.0788053E+06   -1.8721126E+00
   1.0092575E-04   1.0695409E+06   -1.8716735E+00
   1.0139184E-04   1.0603583E+06   -1.8712335E+00
   1.0186008E-04   1.0512566E+06   -1.8707925E+00
   1.0233048E-04   1.0422351E+06   -1.8703505E+00
   1.0280305E-04   1.0332932E+06   -1.8699076E+00
   1.0327781E-04   1.0244301E+06   -1.8694636E+00
   1.0375475E-04   1.0156451E+06   -1.8690187E+00
   1.0423390E-04   1.0069375E+06   -1.8685728E+00
   1.0471527E-04   9.9830664E+05   -1.8681259E+00
   1.0519885E-04   9.8975177E+05   -1.8676780E+00
   1.0568467E-04   9.8127224E+05   -1.8672292E+00
   1.0617274E-04   9.7286736E+05   -1.8667794E+00
   1.0666305E-04   9.6453648E+05   -1.8663287E+00
   1.0715563E-04   9.5627893E+05   -1.8658769E+00
   1.0765049E-04   9.4809405E+05   -1.8654242E+00
   1.0814763E-04   9.3998118E+05   -1.8649706E+00
   1.0864707E-04   9.3193969E+05   -1.8645159E+00
   1.0914881E-04   9.2396893E+05   -1.8640604E+00
   1.0965287E-04   9.1606826E+05   -1.8636038E+00
   1.1015926E-04   9.0823707E+05   -1.8631463E+00
   1.1066799E-04   9.0047472E+05   -1.8626879E+00
   1.1117906E-04   8.9278060E+05   -1.8622284E+00
   1.1169250E-04   8.8515410E+05   -1.8617681E+00
   1.1220831E-04   8.7759461E+05   -1.8613068E+00
   1.1272650E-04   8.7010153E+05   -1.8608445E+00
   1.1324708E-04   8.6267427E+05   -1.8603813E+00
   1.1377007E-04   8.5531224E+05   -1.8599172E+00
   1.1429547E-04   8.4801485E+05   -1.8594521E+00
   1.1482330E-04   8.4078152E+05   -1.8589860E+00
   1.1535356E-04   8.3361168E+05   -1.8585191E+00
   1.1588628E-04   8.2650477E+05   -1.8580512E+00
   1.1642145E-04   8.1946021E+05   -1.8575823E+00
   1.1695910E-04   8.1247745E+05   -1.8571126E+00
   1.1749923E-04   8.0555594E+05   -1.8566419E+00
   1.1804185E-04   7.9869513E+05   -1.8561703E+00
   1.1858698E-04   7.9189447E+05   -1.8556977E+00
   1.1913463E-04   7.8515343E+05   -1.8552243E+00
   1.1968481E-04   7.7847147E+05   -1.8547499E+00
   1.2023752E-04   7.7184807E+05   -1.8542746E+00
   1.2079279E-04   7.6528269E+05   -1.8537984E+00
   1.2135063E-04   7.5877484E+05   -1.8533212E+00
   1.2191104E-04   7.5232397E+05   -1.8528432E+00
   1.2247403E-04   7.4592960E+05   -1.8523643E+00
   1.2303963E-04   7.3959121E+05   -1.8518844E+00
   1.2360784E-04   7.3330830E+05   -1.8514037E+00
   1.2417868E-04   7.2708037E+05   -1.8509220E+00
   1.2475215E-04   7.2090694E+05   -1.8504395E+00
   1.2532826E-04   7.1478752E+05   -1.8499560E+00
   1.2590704E-04   7.0872162E+05   -1.8494717E+00
   1.2648850E-04   7.0270877E+05   -1.8489865E+00
   1.2707263E-04   6.9674849E+05   -1.8485004E+00
   1.2765947E-04   6.9084031E+05   -1.8480134E+00
   1.2824901E-04   6.8498377E+05   -1.8475255E+00
   1.2884128E-04   6.7917841E+05   -1.8470368E+00
   1.2943628E-04   6.7342377E+05   -1.8465472E+00
   1.3003403E-04   6.6771940E+05   -1.8460567E+00
   1.3063454E-04   6.6206484E+05   -1.8455653E+00
   1.3123783E-04   6.5645965E+05   -1.8450731E+00
   1.3184390E-04   6.5090340E+05   -1.8445800E+00
   1.3245277E-04   6.4539564E+05   -1.8440860E+00
   1.3306445E-04   6.3993595E+05   -1.8435912E+00
   1.3367895E-04   6.3452389E+05   -1.8430955E+00
   1.3429630E-04   6.2915903E+05   -1.8425990E+00
   1.3491649E-04   6.2384097E+05   -1.8421017E+00
   1.3553955E-04   6.1856927E+05   -1.8416034E+00
   1.3616548E-04   6.1334354E+05   -1.8411044E+00
   1.3679431E-04   6.0816335E+05   -1.8406045E+00
   1.3742604E-04   6.0302830E+05   -1.8401038E+00
   1.3806069E-04   5.9793799E+05   -1.8396022E+00
   1.3869827E-04   5.9289202E+05   -1.8390998E+00
   1.3933879E-04   5.8789000E+05   -1.8385966E+00
   1.3998227E-04   5.8293152E+05   -1.8380926E+00
   1.4062872E-04   5.7801622E+05   -1.8375877E+00
   1.4127816E-04   5.7314369E+05   -1.8370820E+00
   1.4193060E-04   5.6831356E+05   -1.8365756E+00
   1.4258605E-04   5.6352545E+05   -1.8360683E+00
   1.4324453E-04   5.5877899E+05   -1.8355602E+00
   1.4390605E-04   5.5407381E+05   -1.8350513E+00
   1.4457062E-04   5.4940954E+05   -1.8345416E+00
   1.4523826E-04   5.4478581E+05   -1.8340311E+00
   1.4590899E-04   5.4020227E+05   -1.8335198E+00
   1.4658281E-04   5.3565855E+05   -1.8330077E+00
   1.4725974E-04   5.3115430E+05   -1.8324949E+00
   1.4793981E-04   5.2668918E+05   -1.8319812E+00
   1.4862301E-04   5.2226283E+05   -1.8314668E+00
   1.4930936E-04   5.1787490E+05   -1.8309516E+00
   1.4999889E-04   5.1352506E+05   -1.8304357E+00
   1.5069160E-04   5.0921297E+05   -1.8299189E+00
   1.5138751E-04   5.0493829E+05   -1.8294014E+00
   1.5208663E-04   5.0070069E+05   -1.8288832E+00
   1.5278899E-04   4.9649984E+05   -1.8283642E+00
   1.5349458E-04   4.9233541E+05   -1.8278445E+00
   1.5420343E-04   4.8820709E+05   -1.8273240E+00
   1.5491556E-04   4.8411454E+05   -1.8268027E+00
   1.5563098E-04   4.8005745E+05   -1.8262807E+00
   1.5634970E-04   4.7603551E+05   -1.8257580E+00
   1.5707174E-04   4.7204840E+05   -1.8252346E+00
   1.5779711E-04   4.6809582E+05   -1.8247104E+00
   1.5852584E-04   4.6417745E+05   -1.8241855E+00
   1.5925792E-04   4.6029300E+05   -1.8236599E+00
   1.5999339E-04   4.5644216E+05   -1.8231336E+00
   1.6073226E-04   4.5262463E+05   -1.8226066E+00
   1.6147454E-04   4.4884013E+05   -1.8220788E+00
   1.6222024E-04   4.4508835E+05   -1.8215504E+00
   1.6296939E-04   4.4136900E+05   -1.8210213E+00
   1.6372200E-04   4.3768181E+05   -1.8204914E+00
   1.6447809E-04   4.3402648E+05   -1.8199609E+00
   1.6523767E-04   4.3040272E+05   -1.8194297E+00
   1.6600075E-04   4.2681027E+05   -1.8188978E+00
   1.6676736E-04   4.2324885E+05   -1.8183653E+00
   1.6753751E-04   4.1971817E+05   -1.8178320E+00
   1.6831122E-04   4.1621796E+05   -1.8172981E+00
   1.6908849E-04   4.1274796E+05   -1.8167636E+00
   1.6986936E-04   4.0930790E+05   -1.8162284E+00
   1.7065384E-04   4.0589751E+05   -1.8156925E+00
   1.7144193E-04   4.0251653E+05   -1.8151560E+00
   1.7223367E-04   3.9916470E+05   -1.8146188E+00
   1.7302906E-04   3.9584177E+05   -1.8140810E+00
   1.7382813E-04   3.9254747E+05   -1.8135425E+00
   1.7463089E-04   3.8928155E+05   -1.8130035E+00
   1.7543735E-04   3.8604376E+05   -1.8124637E+00
   1.7624754E-04   3.8283386E+05   -1.8119234E+00
   1.7706147E-04   3.7965159E+05   -1.8113825E+00
   1.7787916E-04   3.7649671E+05   -1.8108409E+00
   1.7870062E-04   3.7336898E+05   -1.8102988E+00
   1.7952588E-04   3.7026816E+05   -1.8097560E+00
   1.8035495E-04   3.6719401E+05   -1.8092126E+00
   1.8118785E-04   3.6414630E+05   -1.8086687E+00
   1.8202459E-04   3.6112478E+05   -1.8081241E+00
   1.8286520E-04   3.5812924E+05   -1.8075790E+00
   1.8370969E-04   3.5515944E+05   -1.8070333E+00
   1.8455808E-04   3.5221515E+05   -1.8064870E+00
   1.8541039E-04   3.4929615E+05   -1.8059402E+00
   1.8626663E-04   3.4640222E+05   -1.8053927E+00
   1.8712683E-04   3.4353312E+05   -1.8048448E+00
   1.8799100E-04   3.4068866E+05   -1.8042962E+00
   1.8885917E-04   3.3786859E+05   -1.8037472E+00
   1.8973134E-04   3.3507272E+05   -1.8031975E+00
   1.9060754E-04   3.3230083E+05   -1.8026474E+00
   1.9148778E-04   3.2955270E+05   -1.8020967E+00
   1.9237209E-04   3.2682813E+05   -1.8015454E+00
   1.9326049E-04   3.2412691E+05   -1.8009937E+00
   1.9415299E-04   3.2144883E+05   -1.8004414E+00
   1.9504960E-04   3.1879369E+05   -1.7998886E+00
   1.9595036E-04   3.1616129E+05   -1.7993353E+00
   1.9685528E-04   3.1355143E+05   -1.7987815E+00
   1.9776438E-04   3.1096390E+05   -1.7982272E+00
   1.9867768E-04   3.0839851E+05   -1.7976724E+00
   1.9959519E-04   3.0585507E+05   -1.7971172E+00
   2.0051694E-04   3.0333339E+05   -1.7965614E+00
   2.0144295E-04   3.0083326E+05   -1.7960052E+00
   2.0237324E-04   2.9835450E+05   -1.7954485E+00
   2.0330782E-04   2.9589693E+05   -1.7948913E+00
   2.0424671E-04   2.9346036E+05   -1.7943337E+00
   2.0518995E-04   2.9104459E+05   -1.7937756E+00
   2.0613754E-04   2.8864946E+05   -1.7932170E+00
   2.0708950E-04   2.8627477E+05   -1.7926580E+00
   2.0804586E-04   2.8392036E+05   -1.7920986E+00
   2.0900664E-04   2.8158603E+05   -1.7915387E+00
   2.0997185E-04   2.7927161E+05   -1.7909784E+00
   2.1094152E-04   2.7697694E+05   -1.7904177E+00
   2.1191567E-04   2.7470182E+05   -1.7898566E+00
   2.1289432E-04   2.7244610E+05   -1.7892950E+00
   2.1387749E-04   2.7020960E+05   -1.7887331E+00
   2.1486520E-04   2.6799216E+05   -1.7881707E+00
   2.1585747E-04   2.6579360E+05   -1.7876080E+00
   2.1685432E-04   2.6361376E+05   -1.7870448E+00
   2.1785578E-04   2.6145248E+05   -1.7864813E+00
   2.1886186E-04   2.5930959E+05   -1.7859174E+00
   2.1987259E-04   2.5718493E+05   -1.7853531E+00
   2.2088798E-04   2.5507835E+05   -1.7847885E+00
   2.2190807E-04   2.5298967E+05   -1.7842234E+00
   2.2293286E-04   2.5091876E+05   -1.7836581E+00
   2.2396239E-04   2.4886544E+05   -1.7830924E+00
   2.2499667E-04   2.4682957E+05   -1.7825263E+00
   2.2603573E-04   2.4481100E+05   -1.7819599E+00
   2.2707958E-04   2.4280956E+05   -1.7813931E+00
   2.2812826E-04   2.4082512E+05   -1.7808261E+00
   2.2918178E-04   2.3885752E+05   -1.7802587E+00
   2.3024017E-04   2.3690662E+05   -1.7796910E+00
   2.3130344E-04   2.3497226E+05   -1.7791230E+00
   2.3237162E-04   2.3305431E+05   -1.7785546E+00
   2.3344474E-04   2.3115262E+05   -1.7779860E+00
   2.3452281E-04   2.2926705E+05   -1.7774171E+00
   2.3560586E-04   2.2739745E+05   -1.7768479E+00
   2.3669392E-04   2.2554369E+05   -1.7762784E+00
   2.3778699E-04   2.2370564E+05   -1.7757086E+00
   2.3888512E-04   2.2188314E+05   -1.7751386E+00
   2.3998831E-04   2.2007607E+05   -1.7745683E+00
   2.4109661E-04   2.1828429E+05   -1.7739977E+00
   2.4221001E-04   2.1650767E+05   -1.7734269E+00
   2.4332857E-04   2.1474607E+05   -1.7728559E+00
   2.4445228E-04   2.1299937E+05   -1.7722846E+00
   2.4558119E-04   2.1126742E+05   -1.7717131E+00
   2.4671531E-04   2.0955012E+05   -1.7711413E+00
   2.4785467E-04   2.0784732E+05   -1.7705693E+00
   2.4899928E-04   2.0615890E+05   -1.7699971E+00
   2.5014919E-04   2.0448474E+05   -1.7694247E+00
   2.5130440E-04   2.0282471E+05   -1.7688521E+00
   2.5246495E-04   2.0117868E+05   -1.7682792E+00
   2.5363086E-04   1.9954654E+05   -1.7677062E+00
   2.5480216E-04   1.9792816E+05   -1.7671330E+00
   2.5597886E-04   1.9632343E+05   -1.7665597E+00
   2.5716100E-04   1.9473222E+05   -1.7659861E+00
   2.5834859E-04   1.9315442E+05   -1.7654124E+00
   2.5954168E-04   1.9158991E+05   -1.7648385E+00
   2.6074027E-04   1.9003858E+05   -1.7642644E+00
   2.6194439E-04   1.8850030E+05   -1.7636902E+00
   2.6315408E-04   1.8697497E+05   -1.7631159E+00
   2.6436935E-04   1.8546248E+05   -1.7625414E+00
   2.6559024E-04   1.8396270E+05   -1.7619668E+00
   2.6681676E-04   1.8247554E+05   -1.7613921E+00
   2.6804895E-04   1.8100088E+05   -1.7608172E+00
   2.6928683E-04   1.7953862E+05   -1.7602422E+00
   2.7053042E-04   1.7808863E+05   -1.7596671E+00
   2.7177976E-04   1.7665083E+05   -1.7590919E+00
   2.7303487E-04   1.7522510E+05   -1.7585166E+00
   2.7429577E-04   1.7381134E+05   -1.7579413E+00
   2.7556250E-04   1.7240944E+05   -1.7573658E+00
   2.7683507E-04   1.7101930E+05   -1.7567903E+00
   2.7811353E-04   1.6964082E+05   -1.7562146E+00
   2.7939788E-04   1.6827389E+05   -1.7556390E+00
   2.8068817E-04   1.6691843E+05   -1.7550632E+00
   2.8198442E-04   1.6557432E+05   -1.7544874E+00
   2.8328665E-04   1.6424147E+05   -1.7539116E+00
   2.8459490E-04   1.6291978E+05   -1.7533357E+00
   2.8590919E-04   1.6160916E+05   -1.7527598E+00
   2.8722955E-04   1.6030951E+05   -1.7521838E+00
   2.8855600E-04   1.5902073E+05   -1.7516078E+00
   2.8988859E-04   1.5774273E+05   -1.7510318E+00
   2.9122732E-04   1.5647541E+05   -1.7504558E+00
   2.9257224E-04   1.5521869E+05   -1.7498798E+00
   2.9392337E-04   1.5397247E+05   -1.7493038E+00
   2.9528074E-04   1.5273666E+05   -1.7487278E+00
   2.9664438E-04   1.5151118E+05   -1.7481518E+00
   2.9801431E-04   1.5029592E+05   -1.7475759E+00
   2.9939057E-04   1.4909081E+05   -1.7469999E+00
   3.0077319E-04   1.4789575E+05   -1.7464240E+00
   3.0216219E-04   1.4671066E+05   -1.7458481E+00
   3.0355761E-04   1.4553546E+05   -1.7452723E+00
   3.0495947E-04   1.4437005E+05   -1.7446965E+00
   3.0636780E-04   1.4321435E+05   -1.7441208E+00
   3.0778264E-04   1.4206828E+05   -1.7435451E+00
   3.0920401E-04   1.4093176E+05   -1.7429695E+00
   3.1063195E-04   1.3980470E+05   -1.7423940E+00
   3.1206648E-04   1.3868702E+05   -1.7418185E+00
   3.1350764E-04   1.3757864E+05   -1.7412432E+00
   3.1495545E-04   1.3647948E+05   -1.7406679E+00
   3.1640994E-04   1.3538946E+05   -1.7400928E+00
   3.1787116E-04   1.3430850E+05   -1.7395177E+00
   3.1933912E-04   1.3323652E+05   -1.7389427E+00
   3.2081386E-04   1.3217346E+05   -1.7383679E+00
   3.2229541E-04   1.3111922E+05   -1.7377932E+00
   3.2378381E-04   1.3007373E+05   -1.7372186E+00
   3.2527908E-04   1.2903692E+05   -1.7366442E+00
   3.2678125E-04   1.2800872E+05   -1.7360698E+00
   3.2829036E-04   1.2698904E+05   -1.7354957E+00
   3.2980644E-04   1.2597782E+05   -1.7349217E+00
   3.3132952E-04   1.2497498E+05   -1.7343478E+00
   3.3285963E-04   1.2398045E+05   -1.7337741E+00
   3.3439681E-04   1.2299417E+05   -1.7332006E+00
   3.3594109E-04   1.2201605E+05   -1.7326273E+00
   3.3749250E-04   1.2104603E+05   -1.7320541E+00
   3.3905108E-04   1.2008404E+05   -1.7314812E+00
   3.4061685E-04   1.1913000E+05   -1.7309084E+00
   3.4218986E-04   1.1818386E+05   -1.7303358E+00
   3.4377013E-04   1.1724554E+05   -1.7297635E+00
   3.4535769E-04   1.1631498E+05   -1.7291913E+00
   3.4695259E-04   1.1539211E+05   -1.7286194E+00
   3.4855485E-04   1.1447686E+05   -1.7280477E+00
   3.5016452E-04   1.1356918E+05   -1.7274762E+00
   3.5178161E-04   1.1266898E+05   -1.7269050E+00
   3.5340618E-04   1.1177621E+05   -1.7263340E+00
   3.5503824E-04   1.1089081E+05   -1.7257632E+00
   3.5667785E-04   1.1001272E+05   -1.7251927E+00
   3.5832502E-04   1.0914186E+05   -1.7246225E+00
   3.5997981E-04   1.0827818E+05   -1.7240525E+00
   3.6164223E-04   1.0742162E+05   -1.7234828E+00
   3.6331233E-04   1.0657211E+05   -1.7229134E+00
   3.6499015E-04   1.0572960E+05   -1.7223443E+00
   3.6667571E-04   1.0489402E+05   -1.7217754E+00
   3.6836906E-04   1.0406532E+05   -1.7212069E+00
   3.7007022E-04   1.0324344E+05   -1.7206386E+00
   3.7177925E-04   1.0242832E+05   -1.7200707E+00
   3.7349616E-04   1.0161990E+05   -1.7195030E+00
   3.7522101E-04   1.0081812E+05   -1.7189357E+00
   3.7695382E-04   1.0002293E+05   -1.7183687E+00
   3.7869463E-04   9.9234270E+04   -1.7178021E+00
   3.8044348E-04   9.8452086E+04   -1.7172357E+00
   3.8220041E-04   9.7676322E+04   -1.7166698E+00
   3.8396545E-04   9.6906924E+04   -1.7161041E+00
   3.8573864E-04   9.6143837E+04   -1.7155388E+00
   3.8752002E-04   9.5387007E+04   -1.7149739E+00
   3.8930963E-04   9.4636381E+04   -1.7144094E+00
   3.9110750E-04   9.3891905E+04   -1.7138452E+00
   3.9291368E-04   9.3153529E+04   -1.7132813E+00
   3.9472820E-04   9.2421199E+04   -1.7127179E+00
   3.9655109E-04   9.1694864E+04   -1.7121549E+00
   3.9838241E-04   9.0974474E+04   -1.7115922E+00
   4.0022218E-04   9.0259977E+04   -1.7110299E+00
   4.0207045E-04   8.9551323E+04   -1.7104681E+00
   4.0392725E-04   8.8848464E+04   -1.7099066E+00
   4.0579263E-04   8.8151349E+04   -1.7093456E+00
   4.0766662E-04   8.7459929E+04   -1.7087850E+00
   4.0954927E-04   8.6774157E+04   -1.7082248E+00
   4.1144061E-04   8.6093984E+04   -1.7076650E+00
   4.1334068E-04   8.5419362E+04   -1.7071057E+00
   4.1524953E-04   8.4750245E+04   -1.7065468E+00
   4.1716720E-04   8.4086586E+04   -1.7059884E+00
   4.1909372E-04   8.3428339E+04   -1.7054304E+00
   4.2102914E-04   8.2775457E+04   -1.7048729E+00
   4.2297350E-04   8.2127895E+04   -1.7043158E+00
   4.2492683E-04   8.1485608E+04   -1.7037592E+00
   4.2688919E-04   8.0848552E+04   -1.7032031E+00
   4.2886061E-04   8.0216682E+04   -1.7026474E+00
   4.3084113E-04   7.9589953E+04   -1.7020923E+00
   4.3283080E-04   7.8968324E+04   -1.7015376E+00
   4.3482966E-04   7.8351749E+04   -1.7009834E+00
   4.3683775E-04   7.7740187E+04   -1.7004297E+00
   4.3885511E-04   7.7133595E+04   -1.6998766E+00
   4.4088179E-04   7.6531931E+04   -1.6993239E+00
   4.4291783E-04   7.5935154E+04   -1.6987717E+00
   4.4496327E-04   7.5343222E+04   -1.6982201E+00
   4.4701816E-04   7.4756093E+04   -1.6976690E+00
   4.4908253E-04   7.4173729E+04   -1.6971184E+00
   4.5115644E-04   7.3596087E+04   -1.6965684E+00
   4.5323993E-04   7.3023130E+04   -1.6960189E+00
   4.5533304E-04   7.2454816E+04   -1.6954699E+00
   4.5743582E-04   7.1891107E+04   -1.6949215E+00
   4.5954830E-04   7.1331964E+04   -1.6943737E+00
   4.6167054E-04   7.0777348E+04   -1.6938264E+00
   4.6380259E-04   7.0227222E+04   -1.6932797E+00
   4.6594448E-04   6.9681546E+04   -1.6927335E+00
   4.6809626E-04   6.9140285E+04   -1.6921880E+00
   4.7025797E-04   6.8603400E+04   -1.6916430E+00
   4.7242967E-04   6.8070855E+04   -1.6910986E+00
   4.7461140E-04   6.7542614E+04   -1.6905547E+00
   4.7680321E-04   6.7018639E+04   -1.6900115E+00
   4.7900514E-04   6.6498896E+04   -1.6894689E+00
   4.8121723E-04   6.5983348E+04   -1.6889269E+00
   4.8343954E-04   6.5471961E+04   -1.6883854E+00
   4.8567212E-04   6.4964699E+04   -1.6878446E+00
   4.8791500E-04   6.4461527E+04   -1.6873045E+00
   4.9016825E-04   6.3962412E+04   -1.6867649E+00
   4.9243189E-04   6.3467319E+04   -1.6862260E+00
   4.9470600E-04   6.2976215E+04   -1.6856877E+00
   4.9699060E-04   6.2489066E+04   -1.6851500E+00
   4.9928575E-04   6.2005838E+04   -1.6846130E+00
   5.0159151E-04   6.1526500E+04   -1.6840766E+00
   5.0390791E-04   6.1051017E+04   -1.6835409E+00
   5.0623501E-04   6.0579359E+04   -1.6830058E+00
   5.0857286E-04   6.0111493E+04   -1.6824714E+00
   5.1092150E-04   5.9647387E+04   -1.6819377E+00
   5.1328099E-04   5.9187010E+04   -1.6814046E+00
   5.1565137E-04   5.8730330E+04   -1.6808722E+00
   5.1803270E-04   5.8277317E+04   -1.6803404E+00
   5.2042503E-04   5.7827939E+04   -1.6798094E+00
   5.2282841E-04   5.7382167E+04   -1.6792790E+00
   5.2524289E-04   5.6939971E+04   -1.6787493E+00
   5.2766851E-04   5.6501320E+04   -1.6782204E+00
   5.3010534E-04   5.6066184E+04   -1.6776921E+00
   5.3255342E-04   5.5634535E+04   -1.6771645E+00
   5.3501281E-04   5.5206344E+04   -1.6766376E+00
   5.3748356E-04   5.4781580E+04   -1.6761115E+00
   5.3996571E-04   5.4360217E+04   -1.6755860E+00
   5.4245933E-04   5.3942225E+04   -1.6750613E+00
   5.4496446E-04   5.3527577E+04   -1.6745373E+00
   5.4748117E-04   5.3116244E+04   -1.6740140E+00
   5.5000949E-04   5.2708200E+04   -1.6734914E+00
   5.5254949E-04   5.2303415E+04   -1.6729696E+00
   5.5510123E-04   5.1901864E+04   -1.6724486E+00
   5.5766474E-04   5.1503519E+04   -1.6719282E+00
   5.6024010E-04   5.1108354E+04   -1.6714086E+00
   5.6282734E-04   5.0716342E+04   -1.6708898E+00
   5.6542654E-04   5.0327458E+04   -1.6703717E+00
   5.6803774E-04   4.9941674E+04   -1.6698544E+00
   5.7066099E-04   4.9558966E+04   -1.6693379E+00
   5.7329637E-04   4.9179307E+04   -1.6688221E+00
   5.7594391E-04   4.8802672E+04   -1.6683071E+00
   5.7860368E-04   4.8429037E+04   -1.6677928E+00
   5.8127573E-04   4.8058377E+04   -1.6672793E+00
   5.8396012E-04   4.7690665E+04   -1.6667666E+00
   5.8665691E-04   4.7325880E+04   -1.6662547E+00
   5.8936616E-04   4.6963995E+04   -1.6657436E+00
   5.9208791E-04   4.6604987E+04   -1.6652333E+00
   5.9482223E-04   4.6248831E+04   -1.6647238E+00
   5.9756919E-04   4.5895506E+04   -1.6642150E+00
   6.0032882E-04   4.5544986E+04   -1.6637071E+00
   6.0310120E-04   4.5197249E+04   -1.6632000E+00
   6.0588639E-04   4.4852272E+04   -1.6626937E+00
   6.0868443E-04   4.4510031E+04   -1.6621882E+00
   6.1149540E-04   4.4170505E+04   -1.6616835E+00
   6.1431935E-04   4.3833671E+04   -1.6611796E+00
   6.1715634E-04   4.3499506E+04   -1.6606766E+00
   6.2000644E-04   4.3167988E+04   -1.6601744E+00
   6.2286969E-04   4.2839096E+04   -1.6596730E+00
