#        a       HoverH0(a)       dlogHdloga_of_a(a)
   1.0000000E-04   1.0808936E+06   -1.8847934E+00
   1.0046181E-04   1.0715486E+06   -1.8843843E+00
   1.0092575E-04   1.0622864E+06   -1.8839743E+00
   1.0139184E-04   1.0531063E+06   -1.8835632E+00
   1.0186008E-04   1.0440075E+06   -1.8831512E+00
   1.0233048E-04   1.0349892E+06   -1.8827381E+00
   1.0280305E-04   1.0260509E+06   -1.8823240E+00
   1.0327781E-04   1.0171916E+06   -1.8819089E+00
   1.0375475E-04   1.0084108E+06   -1.8814928E+00
   1.0423390E-04   9.9970771E+05   -1.8810757E+00
   1.0471527E-04   9.9108163E+05   -1.8806575E+00
   1.0519885E-04   9.8253187E+05   -1.8802384E+00
   1.0568467E-04   9.7405776E+05   -1.8798182E+00
   1.0617274E-04   9.6565860E+05   -1.8793971E+00
   1.0666305E-04   9.5733373E+05   -1.8789749E+00
   1.0715563E-04   9.4908248E+05   -1.8785518E+00
   1.0765049E-04   9.4090418E+05   -1.8781276E+00
   1.0814763E-04   9.3279818E+05   -1.8777024E+00
   1.0864707E-04   9.2476382E+05   -1.8772762E+00
   1.0914881E-04   9.1680047E+05   -1.8768491E+00
   1.0965287E-04   9.0890749E+05   -1.8764209E+00
   1.1015926E-04   9.0108423E+05   -1.8759917E+00
   1.1066799E-04   8.9333009E+05   -1.8755615E+00
   1.1117906E-04   8.8564442E+05   -1.8751304E+00
   1.1169250E-04   8.7802663E+05   -1.8746982E+00
   1.1220831E-04   8.7047609E+05   -1.8742651E+00
   1.1272650E-04   8.6299221E+05   -1.8738309E+00
   1.1324708E-04   8.5557439E+05   -1.8733958E+00
   1.1377007E-04   8.4822203E+05   -1.8729596E+00
   1.1429547E-04   8.4093454E+05   -1.8725225E+00
   1.1482330E-04   8.3371134E+05   -1.8720844E+00
   1.1535356E-04   8.2655186E+05   -1.8716453E+00
   1.1588628E-04   8.1945552E+05   -1.8712052E+00
   1.1642145E-04   8.1242176E+05   -1.8707641E+00
   1.1695910E-04   8.0545000E+05   -1.8703221E+00
   1.1749923E-04   7.9853970E+05   -1.8698790E+00
   1.1804185E-04   7.9169031E+05   -1.8694350E+00
   1.1858698E-04   7.8490127E+05   -1.8689900E+00
   1.1913463E-04   7.7817205E+05   -1.8685441E+00
   1.1968481E-04   7.7150211E+05   -1.8680971E+00
   1.2023752E-04   7.6489091E+05   -1.8676492E+00
   1.2079279E-04   7.5833794E+05   -1.8672003E+00
   1.2135063E-04   7.5184267E+05   -1.8667504E+00
   1.2191104E-04   7.4540457E+05   -1.8662996E+00
   1.2247403E-04   7.3902314E+05   -1.8658478E+00
   1.2303963E-04   7.3269787E+05   -1.8653950E+00
   1.2360784E-04   7.2642825E+05   -1.8649413E+00
   1.2417868E-04   7.2021379E+05   -1.8644866E+00
   1.2475215E-04   7.1405399E+05   -1.8640310E+00
   1.2532826E-04   7.0794836E+05   -1.8635744E+00
   1.2590704E-04   7.0189641E+05   -1.8631168E+00
   1.2648850E-04   6.9589767E+05   -1.8626583E+00
   1.2707263E-04   6.8995165E+05   -1.8621988E+00
   1.2765947E-04   6.8405790E+05   -1.8617384E+00
   1.2824901E-04   6.7821592E+05   -1.8612770E+00
   1.2884128E-04   6.7242528E+05   -1.8608147E+00
   1.2943628E-04   6.6668549E+05   -1.8603514E+00
   1.3003403E-04   6.6099611E+05   -1.8598872E+00
   1.3063454E-04   6.5535668E+05   -1.8594220E+00
   1.3123783E-04   6.4976677E+05   -1.8589559E+00
   1.3184390E-04   6.4422592E+05   -1.8584889E+00
   1.3245277E-04   6.3873369E+05   -1.8580209E+00
   1.3306445E-04   6.3328965E+05   -1.8575520E+00
   1.3367895E-04   6.2789337E+05   -1.8570822E+00
   1.3429630E-04   6.2254442E+05   -1.8566114E+00
   1.3491649E-04   6.1724238E+05   -1.8561398E+00
   1.3553955E-04   6.1198682E+05   -1.8556672E+00
   1.3616548E-04   6.0677734E+05   -1.8551936E+00
   1.3679431E-04   6.0161352E+05   -1.8547192E+00
   1.3742604E-04   5.9649495E+05   -1.8542438E+00
   1.3806069E-04   5.9142122E+05   -1.8537675E+00
   1.3869827E-04   5.8639194E+05   -1.8532904E+00
   1.3933879E-04   5.8140670E+05   -1.8528123E+00
   1.3998227E-04   5.7646512E+05   -1.8523332E+00
   1.4062872E-04   5.7156680E+05   -1.8518533E+00
   1.4127816E-04   5.6671136E+05   -1.8513725E+00
   1.4193060E-04   5.6189841E+05   -1.8508908E+00
   1.4258605E-04   5.5712757E+05   -1.8504082E+00
   1.4324453E-04   5.5239847E+05   -1.8499247E+00
   1.4390605E-04   5.4771073E+05   -1.8494403E+00
   1.4457062E-04   5.4306399E+05   -1.8489550E+00
   1.4523826E-04   5.3845787E+05   -1.8484688E+00
   1.4590899E-04   5.3389202E+05   -1.8479818E+00
   1.4658281E-04   5.2936608E+05   -1.8474939E+00
   1.4725974E-04   5.2487968E+05   -1.8470051E+00
   1.4793981E-04   5.2043248E+05   -1.8465154E+00
   1.4862301E-04   5.1602412E+05   -1.8460248E+00
   1.4930936E-04   5.1165427E+05   -1.8455334E+00
   1.4999889E-04   5.0732256E+05   -1.8450411E+00
   1.5069160E-04   5.0302868E+05   -1.8445479E+00
   1.5138751E-04   4.9877226E+05   -1.8440539E+00
   1.5208663E-04   4.9455300E+05   -1.8435590E+00
   1.5278899E-04   4.9037054E+05   -1.8430633E+00
   1.5349458E-04   4.8622457E+05   -1.8425667E+00
   1.5420343E-04   4.8211475E+05   -1.8420693E+00
   1.5491556E-04   4.7804077E+05   -1.8415710E+00
   1.5563098E-04   4.7400230E+05   -1.8410719E+00
   1.5634970E-04   4.6999903E+05   -1.8405720E+00
   1.5707174E-04   4.6603065E+05   -1.8400712E+00
   1.5779711E-04   4.6209684E+05   -1.8395696E+00
   1.5852584E-04   4.5819730E+05   -1.8390671E+00
   1.5925792E-04   4.5433171E+05   -1.8385638E+00
   1.5999339E-04   4.5049978E+05   -1.8380597E+00
   1.6073226E-04   4.4670121E+05   -1.8375548E+00
   1.6147454E-04   4.4293571E+05   -1.8370491E+00
   1.6222024E-04   4.3920296E+05   -1.8365425E+00
   1.6296939E-04   4.3550269E+05   -1.8360352E+00
   1.6372200E-04   4.3183461E+05   -1.8355270E+00
   1.6447809E-04   4.2819843E+05   -1.8350181E+00
   1.6523767E-04   4.2459386E+05   -1.8345083E+00
   1.6600075E-04   4.2102062E+05   -1.8339977E+00
   1.6676736E-04   4.1747843E+05   -1.8334864E+00
   1.6753751E-04   4.1396703E+05   -1.8329743E+00
   1.6831122E-04   4.1048612E+05   -1.8324614E+00
   1.6908849E-04   4.0703545E+05   -1.8319477E+00
   1.6986936E-04   4.0361475E+05   -1.8314332E+00
   1.7065384E-04   4.0022374E+05   -1.8309179E+00
   1.7144193E-04   3.9686216E+05   -1.8304019E+00
   1.7223367E-04   3.9352975E+05   -1.8298851E+00
   1.7302906E-04   3.9022626E+05   -1.8293676E+00
   1.7382813E-04   3.8695142E+05   -1.8288493E+00
   1.7463089E-04   3.8370498E+05   -1.8283302E+00
   1.7543735E-04   3.8048669E+05   -1.8278104E+00
   1.7624754E-04   3.7729629E+05   -1.8272899E+00
   1.7706147E-04   3.7413354E+05   -1.8267686E+00
   1.7787916E-04   3.7099820E+05   -1.8262466E+00
   1.7870062E-04   3.6789002E+05   -1.8257238E+00
   1.7952588E-04   3.6480876E+05   -1.8252003E+00
   1.8035495E-04   3.6175418E+05   -1.8246761E+00
   1.8118785E-04   3.5872604E+05   -1.8241511E+00
   1.8202459E-04   3.5572411E+05   -1.8236255E+00
   1.8286520E-04   3.5274815E+05   -1.8230991E+00
   1.8370969E-04   3.4979795E+05   -1.8225720E+00
   1.8455808E-04   3.4687326E+05   -1.8220442E+00
   1.8541039E-04   3.4397386E+05   -1.8215157E+00
   1.8626663E-04   3.4109952E+05   -1.8209865E+00
   1.8712683E-04   3.3825003E+05   -1.8204566E+00
   1.8799100E-04   3.3542517E+05   -1.8199261E+00
   1.8885917E-04   3.3262470E+05   -1.8193948E+00
   1.8973134E-04   3.2984843E+05   -1.8188629E+00
   1.9060754E-04   3.2709613E+05   -1.8183302E+00
   1.9148778E-04   3.2436760E+05   -1.8177970E+00
   1.9237209E-04   3.2166261E+05   -1.8172630E+00
   1.9326049E-04   3.1898097E+05   -1.8167284E+00
   1.9415299E-04   3.1632246E+05   -1.8161931E+00
   1.9504960E-04   3.1368689E+05   -1.8156572E+00
   1.9595036E-04   3.1107404E+05   -1.8151206E+00
   1.9685528E-04   3.0848372E+05   -1.8145834E+00
   1.9776438E-04   3.0591573E+05   -1.8140455E+00
   1.9867768E-04   3.0336987E+05   -1.8135070E+00
   1.9959519E-04   3.0084594E+05   -1.8129679E+00
   2.0051694E-04   2.9834375E+05   -1.8124281E+00
   2.0144295E-04   2.9586311E+05   -1.8118878E+00
   2.0237324E-04   2.9340382E+05   -1.8113468E+00
   2.0330782E-04   2.9096571E+05   -1.8108052E+00
   2.0424671E-04   2.8854857E+05   -1.8102630E+00
   2.0518995E-04   2.8615223E+05   -1.8097201E+00
   2.0613754E-04   2.8377650E+05   -1.8091767E+00
   2.0708950E-04   2.8142120E+05   -1.8086327E+00
   2.0804586E-04   2.7908614E+05   -1.8080881E+00
   2.0900664E-04   2.7677116E+05   -1.8075429E+00
   2.0997185E-04   2.7447607E+05   -1.8069972E+00
   2.1094152E-04   2.7220070E+05   -1.8064509E+00
   2.1191567E-04   2.6994487E+05   -1.8059040E+00
   2.1289432E-04   2.6770840E+05   -1.8053565E+00
   2.1387749E-04   2.6549114E+05   -1.8048085E+00
   2.1486520E-04   2.6329291E+05   -1.8042599E+00
   2.1585747E-04   2.6111353E+05   -1.8037108E+00
   2.1685432E-04   2.5895286E+05   -1.8031611E+00
   2.1785578E-04   2.5681071E+05   -1.8026109E+00
   2.1886186E-04   2.5468693E+05   -1.8020601E+00
   2.1987259E-04   2.5258135E+05   -1.8015088E+00
   2.2088798E-04   2.5049382E+05   -1.8009570E+00
   2.2190807E-04   2.4842417E+05   -1.8004047E+00
   2.2293286E-04   2.4637225E+05   -1.7998519E+00
   2.2396239E-04   2.4433790E+05   -1.7992986E+00
   2.2499667E-04   2.4232097E+05   -1.7987447E+00
   2.2603573E-04   2.4032130E+05   -1.7981904E+00
   2.2707958E-04   2.3833874E+05   -1.7976355E+00
   2.2812826E-04   2.3637314E+05   -1.7970802E+00
   2.2918178E-04   2.3442435E+05   -1.7965244E+00
   2.3024017E-04   2.3249223E+05   -1.7959681E+00
   2.3130344E-04   2.3057661E+05   -1.7954114E+00
   2.3237162E-04   2.2867737E+05   -1.7948542E+00
   2.3344474E-04   2.2679436E+05   -1.7942965E+00
   2.3452281E-04   2.2492743E+05   -1.7937383E+00
   2.3560586E-04   2.2307644E+05   -1.7931797E+00
   2.3669392E-04   2.2124126E+05   -1.7926207E+00
   2.3778699E-04   2.1942173E+05   -1.7920612E+00
   2.3888512E-04   2.1761774E+05   -1.7915013E+00
   2.3998831E-04   2.1582913E+05   -1.7909410E+00
   2.4109661E-04   2.1405577E+05   -1.7903802E+00
   2.4221001E-04   2.1229753E+05   -1.7898191E+00
   2.4332857E-04   2.1055428E+05   -1.7892575E+00
   2.4445228E-04   2.0882589E+05   -1.7886955E+00
   2.4558119E-04   2.0711222E+05   -1.7881331E+00
   2.4671531E-04   2.0541314E+05   -1.7875703E+00
   2.4785467E-04   2.0372853E+05   -1.7870071E+00
   2.4899928E-04   2.0205827E+05   -1.7864435E+00
   2.5014919E-04   2.0040221E+05   -1.7858796E+00
   2.5130440E-04   1.9876025E+05   -1.7853153E+00
   2.5246495E-04   1.9713225E+05   -1.7847506E+00
   2.5363086E-04   1.9551810E+05   -1.7841855E+00
   2.5480216E-04   1.9391766E+05   -1.7836201E+00
   2.5597886E-04   1.9233083E+05   -1.7830544E+00
   2.5716100E-04   1.9075748E+05   -1.7824882E+00
   2.5834859E-04   1.8919750E+05   -1.7819218E+00
   2.5954168E-04   1.8765076E+05   -1.7813550E+00
   2.6074027E-04   1.8611716E+05   -1.7807879E+00
   2.6194439E-04   1.8459656E+05   -1.7802205E+00
   2.6315408E-04   1.8308888E+05   -1.7796527E+00
   2.6436935E-04   1.8159398E+05   -1.7790847E+00
   2.6559024E-04   1.8011176E+05   -1.7785163E+00
   2.6681676E-04   1.7864210E+05   -1.7779477E+00
   2.6804895E-04   1.7718490E+05   -1.7773787E+00
   2.6928683E-04   1.7574005E+05   -1.7768095E+00
   2.7053042E-04   1.7430744E+05   -1.7762400E+00
   2.7177976E-04   1.7288696E+05   -1.7756702E+00
   2.7303487E-04   1.7147851E+05   -1.7751001E+00
   2.7429577E-04   1.7008197E+05   -1.7745298E+00
   2.7556250E-04   1.6869726E+05   -1.7739592E+00
   2.7683507E-04   1.6732425E+05   -1.7733883E+00
   2.7811353E-04   1.6596286E+05   -1.7728172E+00
   2.7939788E-04   1.6461298E+05   -1.7722459E+00
   2.8068817E-04   1.6327451E+05   -1.7716743E+00
   2.8198442E-04   1.6194735E+05   -1.7711025E+00
   2.8328665E-04   1.6063140E+05   -1.7705305E+00
   2.8459490E-04   1.5932656E+05   -1.7699583E+00
   2.8590919E-04   1.5803274E+05   -1.7693858E+00
   2.8722955E-04   1.5674984E+05   -1.7688132E+00
   2.8855600E-04   1.5547776E+05   -1.7682403E+00
   2.8988859E-04   1.5421641E+05   -1.7676673E+00
   2.9122732E-04   1.5296570E+05   -1.7670941E+00
   2.9257224E-04   1.5172554E+05   -1.7665206E+00
   2.9392337E-04   1.5049582E+05   -1.7659471E+00
   2.9528074E-04   1.4927647E+05   -1.7653733E+00
   2.9664438E-04   1.4806739E+05   -1.7647994E+00
   2.9801431E-04   1.4686849E+05   -1.7642253E+00
   2.9939057E-04   1.4567968E+05   -1.7636511E+00
   3.0077319E-04   1.4450088E+05   -1.7630767E+00
   3.0216219E-04   1.4333200E+05   -1.7625022E+00
   3.0355761E-04   1.4217295E+05   -1.7619275E+00
   3.0495947E-04   1.4102364E+05   -1.7613528E+00
   3.0636780E-04   1.3988400E+05   -1.7607779E+00
   3.0778264E-04   1.3875393E+05   -1.7602029E+00
   3.0920401E-04   1.3763335E+05   -1.7596277E+00
   3.1063195E-04   1.3652219E+05   -1.7590525E+00
   3.1206648E-04   1.3542036E+05   -1.7584772E+00
   3.1350764E-04   1.3432778E+05   -1.7579018E+00
   3.1495545E-04   1.3324436E+05   -1.7573263E+00
   3.1640994E-04   1.3217003E+05   -1.7567507E+00
   3.1787116E-04   1.3110472E+05   -1.7561751E+00
   3.1933912E-04   1.3004833E+05   -1.7555994E+00
   3.2081386E-04   1.2900080E+05   -1.7550236E+00
   3.2229541E-04   1.2796205E+05   -1.7544478E+00
   3.2378381E-04   1.2693200E+05   -1.7538719E+00
   3.2527908E-04   1.2591057E+05   -1.7532960E+00
   3.2678125E-04   1.2489769E+05   -1.7527201E+00
   3.2829036E-04   1.2389329E+05   -1.7521441E+00
   3.2980644E-04   1.2289730E+05   -1.7515681E+00
   3.3132952E-04   1.2190963E+05   -1.7509921E+00
   3.3285963E-04   1.2093023E+05   -1.7504161E+00
   3.3439681E-04   1.1995900E+05   -1.7498400E+00
   3.3594109E-04   1.1899590E+05   -1.7492640E+00
   3.3749250E-04   1.1804084E+05   -1.7486880E+00
   3.3905108E-04   1.1709376E+05   -1.7481120E+00
   3.4061685E-04   1.1615458E+05   -1.7475360E+00
   3.4218986E-04   1.1522325E+05   -1.7469600E+00
   3.4377013E-04   1.1429968E+05   -1.7463841E+00
   3.4535769E-04   1.1338382E+05   -1.7458082E+00
   3.4695259E-04   1.1247559E+05   -1.7452323E+00
   3.4855485E-04   1.1157494E+05   -1.7446565E+00
   3.5016452E-04   1.1068179E+05   -1.7440807E+00
   3.5178161E-04   1.0979608E+05   -1.7435051E+00
   3.5340618E-04   1.0891775E+05   -1.7429294E+00
   3.5503824E-04   1.0804673E+05   -1.7423539E+00
   3.5667785E-04   1.0718296E+05   -1.7417784E+00
   3.5832502E-04   1.0632638E+05   -1.7412031E+00
   3.5997981E-04   1.0547693E+05   -1.7406278E+00
   3.6164223E-04   1.0463453E+05   -1.7400526E+00
   3.6331233E-04   1.0379915E+05   -1.7394775E+00
   3.6499015E-04   1.0297070E+05   -1.7389025E+00
   3.6667571E-04   1.0214913E+05   -1.7383277E+00
   3.6836906E-04   1.0133439E+05   -1.7377530E+00
   3.7007022E-04   1.0052642E+05   -1.7371783E+00
   3.7177925E-04   9.9725145E+04   -1.7366039E+00
   3.7349616E-04   9.8930523E+04   -1.7360296E+00
   3.7522101E-04   9.8142493E+04   -1.7354554E+00
   3.7695382E-04   9.7360997E+04   -1.7348814E+00
   3.7869463E-04   9.6585979E+04   -1.7343075E+00
   3.8044348E-04   9.5817385E+04   -1.7337338E+00
   3.8220041E-04   9.5055157E+04   -1.7331603E+00
   3.8396545E-04   9.4299242E+04   -1.7325869E+00
   3.8573864E-04   9.3549586E+04   -1.7320137E+00
   3.8752002E-04   9.2806134E+04   -1.7314407E+00
   3.8930963E-04   9.2068834E+04   -1.7308680E+00
   3.9110750E-04   9.1337632E+04   -1.7302954E+00
   3.9291368E-04   9.0612476E+04   -1.7297230E+00
   3.9472820E-04   8.9893315E+04   -1.7291508E+00
   3.9655109E-04   8.9180096E+04   -1.7285789E+00
   3.9838241E-04   8.8472769E+04   -1.7280072E+00
   4.0022218E-04   8.7771283E+04   -1.7274357E+00
   4.0207045E-04   8.7075589E+04   -1.7268644E+00
   4.0392725E-04   8.6385636E+04   -1.7262934E+00
   4.0579263E-04   8.5701376E+04   -1.7257226E+00
   4.0766662E-04   8.5022759E+04   -1.7251521E+00
   4.0954927E-04   8.4349737E+04   -1.7245819E+00
   4.1144061E-04   8.3682263E+04   -1.7240119E+00
   4.1334068E-04   8.3020288E+04   -1.7234422E+00
   4.1524953E-04   8.2363766E+04   -1.7228728E+00
   4.1716720E-04   8.1712650E+04   -1.7223036E+00
   4.1909372E-04   8.1066894E+04   -1.7217348E+00
   4.2102914E-04   8.0426452E+04   -1.7211662E+00
   4.2297350E-04   7.9791279E+04   -1.7205979E+00
   4.2492683E-04   7.9161329E+04   -1.7200300E+00
   4.2688919E-04   7.8536558E+04   -1.7194623E+00
   4.2886061E-04   7.7916922E+04   -1.7188950E+00
   4.3084113E-04   7.7302376E+04   -1.7183280E+00
   4.3283080E-04   7.6692878E+04   -1.7177614E+00
   4.3482966E-04   7.6088384E+04   -1.7171950E+00
   4.3683775E-04   7.5488852E+04   -1.7166290E+00
   4.3885511E-04   7.4894239E+04   -1.7160634E+00
   4.4088179E-04   7.4304503E+04   -1.7154981E+00
   4.4291783E-04   7.3719603E+04   -1.7149332E+00
   4.4496327E-04   7.3139497E+04   -1.7143686E+00
   4.4701816E-04   7.2564145E+04   -1.7138044E+00
   4.4908253E-04   7.1993505E+04   -1.7132406E+00
   4.5115644E-04   7.1427539E+04   -1.7126771E+00
   4.5323993E-04   7.0866206E+04   -1.7121141E+00
   4.5533304E-04   7.0309467E+04   -1.7115514E+00
   4.5743582E-04   6.9757283E+04   -1.7109891E+00
   4.5954830E-04   6.9209614E+04   -1.7104273E+00
   4.6167054E-04   6.8666423E+04   -1.7098658E+00
   4.6380259E-04   6.8127671E+04   -1.7093048E+00
   4.6594448E-04   6.7593321E+04   -1.7087441E+00
   4.6809626E-04   6.7063335E+04   -1.7081839E+00
   4.7025797E-04   6.6537676E+04   -1.7076242E+00
   4.7242967E-04   6.6016308E+04   -1.7070648E+00
   4.7461140E-04   6.5499194E+04   -1.7065059E+00
   4.7680321E-04   6.4986297E+04   -1.7059475E+00
   4.7900514E-04   6.4477583E+04   -1.7053895E+00
   4.8121723E-04   6.3973015E+04   -1.7048320E+00
   4.8343954E-04   6.3472559E+04   -1.7042749E+00
   4.8567212E-04   6.2976180E+04   -1.7037183E+00
   4.8791500E-04   6.2483842E+04   -1.7031622E+00
   4.9016825E-04   6.1995513E+04   -1.7026065E+00
   4.9243189E-04   6.1511157E+04   -1.7020513E+00
   4.9470600E-04   6.1030741E+04   -1.7014967E+00
   4.9699060E-04   6.0554233E+04   -1.7009425E+00
   4.9928575E-04   6.0081597E+04   -1.7003888E+00
   5.0159151E-04   5.9612803E+04   -1.6998356E+00
   5.0390791E-04   5.9147818E+04   -1.6992830E+00
   5.0623501E-04   5.8686609E+04   -1.6987308E+00
   5.0857286E-04   5.8229144E+04   -1.6981792E+00
   5.1092150E-04   5.7775392E+04   -1.6976281E+00
   5.1328099E-04   5.7325321E+04   -1.6970775E+00
   5.1565137E-04   5.6878900E+04   -1.6965274E+00
   5.1803270E-04   5.6436099E+04   -1.6959779E+00
   5.2042503E-04   5.5996887E+04   -1.6954290E+00
   5.2282841E-04   5.5561234E+04   -1.6948806E+00
   5.2524289E-04   5.5129109E+04   -1.6943327E+00
   5.2766851E-04   5.4700483E+04   -1.6937854E+00
   5.3010534E-04   5.4275326E+04   -1.6932387E+00
   5.3255342E-04   5.3853609E+04   -1.6926926E+00
   5.3501281E-04   5.3435304E+04   -1.6921470E+00
   5.3748356E-04   5.3020381E+04   -1.6916020E+00
   5.3996571E-04   5.2608811E+04   -1.6910576E+00
   5.4245933E-04   5.2200568E+04   -1.6905138E+00
   5.4496446E-04   5.1795622E+04   -1.6899705E+00
   5.4748117E-04   5.1393946E+04   -1.6894279E+00
   5.5000949E-04   5.0995512E+04   -1.6888859E+00
   5.5254949E-04   5.0600294E+04   -1.6883445E+00
   5.5510123E-04   5.0208264E+04   -1.6878037E+00
   5.5766474E-04   4.9819395E+04   -1.6872635E+00
   5.6024010E-04   4.9433661E+04   -1.6867239E+00
   5.6282734E-04   4.9051035E+04   -1.6861850E+00
   5.6542654E-04   4.8671492E+04   -1.6856467E+00
   5.6803774E-04   4.8295005E+04   -1.6851090E+00
   5.7066099E-04   4.7921549E+04   -1.6845720E+00
   5.7329637E-04   4.7551099E+04   -1.6840356E+00
   5.7594391E-04   4.7183629E+04   -1.6834999E+00
   5.7860368E-04   4.6819114E+04   -1.6829648E+00
   5.8127573E-04   4.6457529E+04   -1.6824304E+00
   5.8396012E-04   4.6098851E+04   -1.6818967E+00
   5.8665691E-04   4.5743054E+04   -1.6813636E+00
   5.8936616E-04   4.5390115E+04   -1.6808312E+00
   5.9208791E-04   4.5040009E+04   -1.6802994E+00
   5.9482223E-04   4.4692713E+04   -1.6797684E+00
   5.9756919E-04   4.4348204E+04   -1.6792380E+00
   6.0032882E-04   4.4006457E+04   -1.6787084E+00
   6.0310120E-04   4.3667451E+04   -1.6781794E+00
   6.0588639E-04   4.3331162E+04   -1.6776511E+00
   6.0868443E-04   4.2997567E+04   -1.6771235E+00
   6.1149540E-04   4.2666644E+04   -1.6765966E+00
   6.1431935E-04   4.2338370E+04   -1.6760705E+00
   6.1715634E-04   4.2012725E+04   -1.6755450E+00
   6.2000644E-04   4.1689684E+04   -1.6750203E+00
   6.2286969E-04   4.1369228E+04   -1.6744963E+00
