#        a       HoverH0(a)       dlogHdloga_of_a(a)
   1.0000000E-04   1.0884914E+06   -1.8573978E+00
   1.0046181E-04   1.0792171E+06   -1.8569276E+00
   1.0092575E-04   1.0700242E+06   -1.8564566E+00
   1.0139184E-04   1.0609118E+06   -1.8559846E+00
   1.0186008E-04   1.0518794E+06   -1.8555117E+00
   1.0233048E-04   1.0429261E+06   -1.8550379E+00
   1.0280305E-04   1.0340513E+06   -1.8545632E+00
   1.0327781E-04   1.0252542E+06   -1.8540875E+00
   1.0375475E-04   1.0165342E+06   -1.8536109E+00
   1.0423390E-04   1.0078906E+06   -1.8531335E+00
   1.0471527E-04   9.9932274E+05   -1.8526551E+00
   1.0519885E-04   9.9082986E+05   -1.8521758E+00
   1.0568467E-04   9.8241132E+05   -1.8516956E+00
   1.0617274E-04   9.7406648E+05   -1.8512145E+00
   1.0666305E-04   9.6579465E+05   -1.8507325E+00
   1.0715563E-04   9.5759521E+05   -1.8502496E+00
   1.0765049E-04   9.4946749E+05   -1.8497658E+00
   1.0814763E-04   9.4141085E+05   -1.8492811E+00
   1.0864707E-04   9.3342467E+05   -1.8487956E+00
   1.0914881E-04   9.2550831E+05   -1.8483091E+00
   1.0965287E-04   9.1766114E+05   -1.8478218E+00
   1.1015926E-04   9.0988255E+05   -1.8473336E+00
   1.1066799E-04   9.0217193E+05   -1.8468445E+00
   1.1117906E-04   8.9452867E+05   -1.8463545E+00
   1.1169250E-04   8.8695217E+05   -1.8458637E+00
   1.1220831E-04   8.7944182E+05   -1.8453720E+00
   1.1272650E-04   8.7199705E+05   -1.8448794E+00
   1.1324708E-04   8.6461727E+05   -1.8443860E+00
   1.1377007E-04   8.5730189E+05   -1.8438917E+00
   1.1429547E-04   8.5005035E+05   -1.8433966E+00
   1.1482330E-04   8.4286207E+05   -1.8429006E+00
   1.1535356E-04   8.3573649E+05   -1.8424037E+00
   1.1588628E-04   8.2867304E+05   -1.8419060E+00
   1.1642145E-04   8.2167118E+05   -1.8414075E+00
   1.1695910E-04   8.1473035E+05   -1.8409081E+00
   1.1749923E-04   8.0785002E+05   -1.8404079E+00
   1.1804185E-04   8.0102963E+05   -1.8399069E+00
   1.1858698E-04   7.9426866E+05   -1.8394050E+00
   1.1913463E-04   7.8756658E+05   -1.8389023E+00
   1.1968481E-04   7.8092287E+05   -1.8383988E+00
   1.2023752E-04   7.7433699E+05   -1.8378944E+00
   1.2079279E-04   7.6780845E+05   -1.8373892E+00
   1.2135063E-04   7.6133672E+05   -1.8368832E+00
   1.2191104E-04   7.5492130E+05   -1.8363764E+00
   1.2247403E-04   7.4856169E+05   -1.8358688E+00
   1.2303963E-04   7.4225739E+05   -1.8353604E+00
   1.2360784E-04   7.3600791E+05   -1.8348512E+00
   1.2417868E-04   7.2981277E+05   -1.8343412E+00
   1.2475215E-04   7.2367147E+05   -1.8338304E+00
   1.2532826E-04   7.1758353E+05   -1.8333188E+00
   1.2590704E-04   7.1154850E+05   -1.8328065E+00
   1.2648850E-04   7.0556588E+05   -1.8322933E+00
   1.2707263E-04   6.9963522E+05   -1.8317794E+00
   1.2765947E-04   6.9375606E+05   -1.8312647E+00
   1.2824901E-04   6.8792793E+05   -1.8307492E+00
   1.2884128E-04   6.8215039E+05   -1.8302329E+00
   1.2943628E-04   6.7642298E+05   -1.8297159E+00
   1.3003403E-04   6.7074525E+05   -1.8291981E+00
   1.3063454E-04   6.6511677E+05   -1.8286796E+00
   1.3123783E-04   6.5953710E+05   -1.8281603E+00
   1.3184390E-04   6.5400580E+05   -1.8276403E+00
   1.3245277E-04   6.4852245E+05   -1.8271195E+00
   1.3306445E-04   6.4308661E+05   -1.8265980E+00
   1.3367895E-04   6.3769787E+05   -1.8260757E+00
   1.3429630E-04   6.3235580E+05   -1.8255527E+00
   1.3491649E-04   6.2706000E+05   -1.8250290E+00
   1.3553955E-04   6.2181006E+05   -1.8245046E+00
   1.3616548E-04   6.1660555E+05   -1.8239794E+00
   1.3679431E-04   6.1144609E+05   -1.8234535E+00
   1.3742604E-04   6.0633128E+05   -1.8229269E+00
   1.3806069E-04   6.0126070E+05   -1.8223996E+00
   1.3869827E-04   5.9623399E+05   -1.8218716E+00
   1.3933879E-04   5.9125073E+05   -1.8213429E+00
   1.3998227E-04   5.8631055E+05   -1.8208135E+00
   1.4062872E-04   5.8141307E+05   -1.8202834E+00
   1.4127816E-04   5.7655791E+05   -1.8197526E+00
   1.4193060E-04   5.7174469E+05   -1.8192212E+00
   1.4258605E-04   5.6697304E+05   -1.8186890E+00
   1.4324453E-04   5.6224260E+05   -1.8181562E+00
   1.4390605E-04   5.5755299E+05   -1.8176227E+00
   1.4457062E-04   5.5290385E+05   -1.8170886E+00
   1.4523826E-04   5.4829484E+05   -1.8165538E+00
   1.4590899E-04   5.4372559E+05   -1.8160183E+00
   1.4658281E-04   5.3919574E+05   -1.8154822E+00
   1.4725974E-04   5.3470496E+05   -1.8149454E+00
   1.4793981E-04   5.3025289E+05   -1.8144080E+00
   1.4862301E-04   5.2583919E+05   -1.8138699E+00
   1.4930936E-04   5.2146352E+05   -1.8133313E+00
   1.4999889E-04   5.1712555E+05   -1.8127919E+00
   1.5069160E-04   5.1282494E+05   -1.8122520E+00
   1.5138751E-04   5.0856136E+05   -1.8117115E+00
   1.5208663E-04   5.0433448E+05   -1.8111703E+00
   1.5278899E-04   5.0014399E+05   -1.8106285E+00
   1.5349458E-04   4.9598955E+05   -1.8100861E+00
   1.5420343E-04   4.9187085E+05   -1.8095431E+00
   1.5491556E-04   4.8778758E+05   -1.8089995E+00
   1.5563098E-04   4.8373941E+05   -1.8084553E+00
   1.5634970E-04   4.7972605E+05   -1.8079106E+00
   1.5707174E-04   4.7574717E+05   -1.8073652E+00
   1.5779711E-04   4.7180248E+05   -1.8068193E+00
   1.5852584E-04   4.6789168E+05   -1.8062728E+00
   1.5925792E-04   4.6401446E+05   -1.8057257E+00
   1.5999339E-04   4.6017053E+05   -1.8051781E+00
   1.6073226E-04   4.5635960E+05   -1.8046299E+00
   1.6147454E-04   4.5258137E+05   -1.8040812E+00
   1.6222024E-04   4.4883556E+05   -1.8035319E+00
   1.6296939E-04   4.4512187E+05   -1.8029821E+00
   1.6372200E-04   4.4144004E+05   -1.8024317E+00
   1.6447809E-04   4.3778977E+05   -1.8018808E+00
   1.6523767E-04   4.3417078E+05   -1.8013294E+00
   1.6600075E-04   4.3058281E+05   -1.8007775E+00
   1.6676736E-04   4.2702557E+05   -1.8002250E+00
   1.6753751E-04   4.2349880E+05   -1.7996720E+00
   1.6831122E-04   4.2000223E+05   -1.7991185E+00
   1.6908849E-04   4.1653558E+05   -1.7985646E+00
   1.6986936E-04   4.1309861E+05   -1.7980101E+00
   1.7065384E-04   4.0969104E+05   -1.7974551E+00
   1.7144193E-04   4.0631262E+05   -1.7968997E+00
   1.7223367E-04   4.0296310E+05   -1.7963437E+00
   1.7302906E-04   3.9964221E+05   -1.7957873E+00
   1.7382813E-04   3.9634970E+05   -1.7952304E+00
   1.7463089E-04   3.9308533E+05   -1.7946731E+00
   1.7543735E-04   3.8984884E+05   -1.7941153E+00
   1.7624754E-04   3.8664000E+05   -1.7935570E+00
   1.7706147E-04   3.8345856E+05   -1.7929983E+00
   1.7787916E-04   3.8030427E+05   -1.7924392E+00
   1.7870062E-04   3.7717691E+05   -1.7918796E+00
   1.7952588E-04   3.7407622E+05   -1.7913195E+00
   1.8035495E-04   3.7100198E+05   -1.7907591E+00
   1.8118785E-04   3.6795396E+05   -1.7901982E+00
   1.8202459E-04   3.6493192E+05   -1.7896369E+00
   1.8286520E-04   3.6193564E+05   -1.7890753E+00
   1.8370969E-04   3.5896489E+05   -1.7885132E+00
   1.8455808E-04   3.5601945E+05   -1.7879507E+00
   1.8541039E-04   3.5309909E+05   -1.7873878E+00
   1.8626663E-04   3.5020359E+05   -1.7868245E+00
   1.8712683E-04   3.4733274E+05   -1.7862608E+00
   1.8799100E-04   3.4448632E+05   -1.7856968E+00
   1.8885917E-04   3.4166411E+05   -1.7851324E+00
   1.8973134E-04   3.3886591E+05   -1.7845676E+00
   1.9060754E-04   3.3609149E+05   -1.7840024E+00
   1.9148778E-04   3.3334066E+05   -1.7834369E+00
   1.9237209E-04   3.3061321E+05   -1.7828711E+00
   1.9326049E-04   3.2790893E+05   -1.7823049E+00
   1.9415299E-04   3.2522762E+05   -1.7817384E+00
   1.9504960E-04   3.2256907E+05   -1.7811715E+00
   1.9595036E-04   3.1993310E+05   -1.7806044E+00
   1.9685528E-04   3.1731949E+05   -1.7800369E+00
   1.9776438E-04   3.1472806E+05   -1.7794690E+00
   1.9867768E-04   3.1215860E+05   -1.7789009E+00
   1.9959519E-04   3.0961094E+05   -1.7783325E+00
   2.0051694E-04   3.0708487E+05   -1.7777638E+00
   2.0144295E-04   3.0458021E+05   -1.7771947E+00
   2.0237324E-04   3.0209677E+05   -1.7766254E+00
   2.0330782E-04   2.9963437E+05   -1.7760559E+00
   2.0424671E-04   2.9719282E+05   -1.7754860E+00
   2.0518995E-04   2.9477193E+05   -1.7749159E+00
   2.0613754E-04   2.9237154E+05   -1.7743455E+00
   2.0708950E-04   2.8999145E+05   -1.7737749E+00
   2.0804586E-04   2.8763150E+05   -1.7732040E+00
   2.0900664E-04   2.8529150E+05   -1.7726328E+00
   2.0997185E-04   2.8297129E+05   -1.7720615E+00
   2.1094152E-04   2.8067068E+05   -1.7714898E+00
   2.1191567E-04   2.7838951E+05   -1.7709180E+00
   2.1289432E-04   2.7612761E+05   -1.7703460E+00
   2.1387749E-04   2.7388481E+05   -1.7697737E+00
   2.1486520E-04   2.7166094E+05   -1.7692012E+00
   2.1585747E-04   2.6945584E+05   -1.7686285E+00
   2.1685432E-04   2.6726934E+05   -1.7680556E+00
   2.1785578E-04   2.6510129E+05   -1.7674826E+00
   2.1886186E-04   2.6295151E+05   -1.7669093E+00
   2.1987259E-04   2.6081986E+05   -1.7663359E+00
   2.2088798E-04   2.5870618E+05   -1.7657623E+00
   2.2190807E-04   2.5661030E+05   -1.7651885E+00
   2.2293286E-04   2.5453207E+05   -1.7646146E+00
   2.2396239E-04   2.5247134E+05   -1.7640405E+00
   2.2499667E-04   2.5042796E+05   -1.7634662E+00
   2.2603573E-04   2.4840178E+05   -1.7628919E+00
   2.2707958E-04   2.4639264E+05   -1.7623173E+00
   2.2812826E-04   2.4440039E+05   -1.7617427E+00
   2.2918178E-04   2.4242490E+05   -1.7611679E+00
   2.3024017E-04   2.4046601E+05   -1.7605930E+00
   2.3130344E-04   2.3852359E+05   -1.7600180E+00
   2.3237162E-04   2.3659748E+05   -1.7594429E+00
   2.3344474E-04   2.3468754E+05   -1.7588677E+00
   2.3452281E-04   2.3279365E+05   -1.7582924E+00
   2.3560586E-04   2.3091564E+05   -1.7577170E+00
   2.3669392E-04   2.2905340E+05   -1.7571415E+00
   2.3778699E-04   2.2720677E+05   -1.7565660E+00
   2.3888512E-04   2.2537563E+05   -1.7559903E+00
   2.3998831E-04   2.2355984E+05   -1.7554147E+00
   2.4109661E-04   2.2175927E+05   -1.7548389E+00
   2.4221001E-04   2.1997379E+05   -1.7542631E+00
   2.4332857E-04   2.1820326E+05   -1.7536873E+00
   2.4445228E-04   2.1644755E+05   -1.7531114E+00
   2.4558119E-04   2.1470654E+05   -1.7525355E+00
   2.4671531E-04   2.1298010E+05   -1.7519595E+00
   2.4785467E-04   2.1126810E+05   -1.7513836E+00
   2.4899928E-04   2.0957042E+05   -1.7508076E+00
   2.5014919E-04   2.0788693E+05   -1.7502316E+00
   2.5130440E-04   2.0621752E+05   -1.7496556E+00
   2.5246495E-04   2.0456205E+05   -1.7490796E+00
   2.5363086E-04   2.0292041E+05   -1.7485037E+00
   2.5480216E-04   2.0129248E+05   -1.7479277E+00
   2.5597886E-04   1.9967814E+05   -1.7473517E+00
   2.5716100E-04   1.9807728E+05   -1.7467758E+00
   2.5834859E-04   1.9648976E+05   -1.7462000E+00
   2.5954168E-04   1.9491549E+05   -1.7456241E+00
   2.6074027E-04   1.9335435E+05   -1.7450483E+00
   2.6194439E-04   1.9180621E+05   -1.7444726E+00
   2.6315408E-04   1.9027098E+05   -1.7438969E+00
   2.6436935E-04   1.8874854E+05   -1.7433213E+00
   2.6559024E-04   1.8723877E+05   -1.7427457E+00
   2.6681676E-04   1.8574158E+05   -1.7421703E+00
   2.6804895E-04   1.8425684E+05   -1.7415949E+00
   2.6928683E-04   1.8278446E+05   -1.7410196E+00
   2.7053042E-04   1.8132432E+05   -1.7404444E+00
   2.7177976E-04   1.7987632E+05   -1.7398693E+00
   2.7303487E-04   1.7844036E+05   -1.7392943E+00
   2.7429577E-04   1.7701634E+05   -1.7387194E+00
   2.7556250E-04   1.7560414E+05   -1.7381446E+00
   2.7683507E-04   1.7420367E+05   -1.7375700E+00
   2.7811353E-04   1.7281482E+05   -1.7369955E+00
   2.7939788E-04   1.7143750E+05   -1.7364211E+00
   2.8068817E-04   1.7007161E+05   -1.7358469E+00
   2.8198442E-04   1.6871705E+05   -1.7352728E+00
   2.8328665E-04   1.6737372E+05   -1.7346989E+00
   2.8459490E-04   1.6604152E+05   -1.7341251E+00
   2.8590919E-04   1.6472036E+05   -1.7335515E+00
   2.8722955E-04   1.6341015E+05   -1.7329781E+00
   2.8855600E-04   1.6211079E+05   -1.7324048E+00
   2.8988859E-04   1.6082218E+05   -1.7318318E+00
   2.9122732E-04   1.5954424E+05   -1.7312589E+00
   2.9257224E-04   1.5827687E+05   -1.7306862E+00
   2.9392337E-04   1.5701998E+05   -1.7301138E+00
   2.9528074E-04   1.5577348E+05   -1.7295415E+00
   2.9664438E-04   1.5453729E+05   -1.7289695E+00
   2.9801431E-04   1.5331131E+05   -1.7283977E+00
   2.9939057E-04   1.5209545E+05   -1.7278261E+00
   3.0077319E-04   1.5088964E+05   -1.7272547E+00
   3.0216219E-04   1.4969378E+05   -1.7266836E+00
   3.0355761E-04   1.4850779E+05   -1.7261127E+00
   3.0495947E-04   1.4733158E+05   -1.7255421E+00
   3.0636780E-04   1.4616508E+05   -1.7249717E+00
   3.0778264E-04   1.4500819E+05   -1.7244016E+00
   3.0920401E-04   1.4386083E+05   -1.7238318E+00
   3.1063195E-04   1.4272293E+05   -1.7232622E+00
   3.1206648E-04   1.4159439E+05   -1.7226929E+00
   3.1350764E-04   1.4047516E+05   -1.7221239E+00
   3.1495545E-04   1.3936513E+05   -1.7215552E+00
   3.1640994E-04   1.3826424E+05   -1.7209868E+00
   3.1787116E-04   1.3717240E+05   -1.7204187E+00
   3.1933912E-04   1.3608954E+05   -1.7198509E+00
   3.2081386E-04   1.3501558E+05   -1.7192835E+00
   3.2229541E-04   1.3395045E+05   -1.7187163E+00
   3.2378381E-04   1.3289406E+05   -1.7181495E+00
   3.2527908E-04   1.3184636E+05   -1.7175830E+00
   3.2678125E-04   1.3080725E+05   -1.7170168E+00
   3.2829036E-04   1.2977667E+05   -1.7164510E+00
   3.2980644E-04   1.2875455E+05   -1.7158855E+00
   3.3132952E-04   1.2774081E+05   -1.7153204E+00
   3.3285963E-04   1.2673538E+05   -1.7147556E+00
   3.3439681E-04   1.2573819E+05   -1.7141912E+00
   3.3594109E-04   1.2474917E+05   -1.7136272E+00
   3.3749250E-04   1.2376825E+05   -1.7130636E+00
   3.3905108E-04   1.2279537E+05   -1.7125003E+00
   3.4061685E-04   1.2183044E+05   -1.7119375E+00
   3.4218986E-04   1.2087342E+05   -1.7113750E+00
   3.4377013E-04   1.1992422E+05   -1.7108129E+00
   3.4535769E-04   1.1898279E+05   -1.7102512E+00
   3.4695259E-04   1.1804905E+05   -1.7096900E+00
   3.4855485E-04   1.1712294E+05   -1.7091291E+00
   3.5016452E-04   1.1620439E+05   -1.7085687E+00
   3.5178161E-04   1.1529335E+05   -1.7080087E+00
   3.5340618E-04   1.1438974E+05   -1.7074492E+00
   3.5503824E-04   1.1349351E+05   -1.7068900E+00
   3.5667785E-04   1.1260459E+05   -1.7063314E+00
   3.5832502E-04   1.1172293E+05   -1.7057731E+00
   3.5997981E-04   1.1084845E+05   -1.7052154E+00
   3.6164223E-04   1.0998109E+05   -1.7046580E+00
   3.6331233E-04   1.0912081E+05   -1.7041012E+00
   3.6499015E-04   1.0826753E+05   -1.7035448E+00
   3.6667571E-04   1.0742119E+05   -1.7029889E+00
   3.6836906E-04   1.0658175E+05   -1.7024335E+00
   3.7007022E-04   1.0574914E+05   -1.7018785E+00
   3.7177925E-04   1.0492330E+05   -1.7013241E+00
   3.7349616E-04   1.0410417E+05   -1.7007701E+00
   3.7522101E-04   1.0329170E+05   -1.7002167E+00
   3.7695382E-04   1.0248584E+05   -1.6996637E+00
   3.7869463E-04   1.0168652E+05   -1.6991113E+00
   3.8044348E-04   1.0089369E+05   -1.6985594E+00
   3.8220041E-04   1.0010730E+05   -1.6980080E+00
   3.8396545E-04   9.9327291E+04   -1.6974572E+00
   3.8573864E-04   9.8553608E+04   -1.6969068E+00
   3.8752002E-04   9.7786199E+04   -1.6963570E+00
   3.8930963E-04   9.7025012E+04   -1.6958078E+00
   3.9110750E-04   9.6269993E+04   -1.6952591E+00
   3.9291368E-04   9.5521091E+04   -1.6947109E+00
   3.9472820E-04   9.4778255E+04   -1.6941633E+00
   3.9655109E-04   9.4041432E+04   -1.6936163E+00
   3.9838241E-04   9.3310572E+04   -1.6930698E+00
   4.0022218E-04   9.2585625E+04   -1.6925239E+00
   4.0207045E-04   9.1866542E+04   -1.6919786E+00
   4.0392725E-04   9.1153272E+04   -1.6914339E+00
   4.0579263E-04   9.0445768E+04   -1.6908898E+00
   4.0766662E-04   8.9743979E+04   -1.6903462E+00
   4.0954927E-04   8.9047859E+04   -1.6898032E+00
   4.1144061E-04   8.8357359E+04   -1.6892609E+00
   4.1334068E-04   8.7672433E+04   -1.6887191E+00
   4.1524953E-04   8.6993033E+04   -1.6881780E+00
   4.1716720E-04   8.6319113E+04   -1.6876375E+00
   4.1909372E-04   8.5650626E+04   -1.6870976E+00
   4.2102914E-04   8.4987529E+04   -1.6865583E+00
   4.2297350E-04   8.4329774E+04   -1.6860197E+00
   4.2492683E-04   8.3677317E+04   -1.6854816E+00
   4.2688919E-04   8.3030114E+04   -1.6849443E+00
   4.2886061E-04   8.2388121E+04   -1.6844075E+00
   4.3084113E-04   8.1751294E+04   -1.6838714E+00
   4.3283080E-04   8.1119589E+04   -1.6833360E+00
   4.3482966E-04   8.0492965E+04   -1.6828012E+00
   4.3683775E-04   7.9871377E+04   -1.6822671E+00
   4.3885511E-04   7.9254784E+04   -1.6817337E+00
   4.4088179E-04   7.8643145E+04   -1.6812009E+00
   4.4291783E-04   7.8036417E+04   -1.6806688E+00
   4.4496327E-04   7.7434560E+04   -1.6801374E+00
   4.4701816E-04   7.6837532E+04   -1.6796066E+00
   4.4908253E-04   7.6245294E+04   -1.6790766E+00
   4.5115644E-04   7.5657805E+04   -1.6785472E+00
   4.5323993E-04   7.5075027E+04   -1.6780185E+00
   4.5533304E-04   7.4496918E+04   -1.6774906E+00
   4.5743582E-04   7.3923441E+04   -1.6769633E+00
   4.5954830E-04   7.3354557E+04   -1.6764367E+00
   4.6167054E-04   7.2790227E+04   -1.6759109E+00
   4.6380259E-04   7.2230414E+04   -1.6753858E+00
   4.6594448E-04   7.1675079E+04   -1.6748614E+00
   4.6809626E-04   7.1124185E+04   -1.6743377E+00
   4.7025797E-04   7.0577696E+04   -1.6738147E+00
   4.7242967E-04   7.0035575E+04   -1.6732925E+00
   4.7461140E-04   6.9497784E+04   -1.6727710E+00
   4.7680321E-04   6.8964289E+04   -1.6722503E+00
   4.7900514E-04   6.8435053E+04   -1.6717303E+00
   4.8121723E-04   6.7910042E+04   -1.6712110E+00
   4.8343954E-04   6.7389219E+04   -1.6706926E+00
   4.8567212E-04   6.6872550E+04   -1.6701748E+00
   4.8791500E-04   6.6360001E+04   -1.6696578E+00
   4.9016825E-04   6.5851536E+04   -1.6691416E+00
   4.9243189E-04   6.5347123E+04   -1.6686262E+00
   4.9470600E-04   6.4846728E+04   -1.6681115E+00
   4.9699060E-04   6.4350317E+04   -1.6675976E+00
   4.9928575E-04   6.3857857E+04   -1.6670845E+00
   5.0159151E-04   6.3369316E+04   -1.6665721E+00
   5.0390791E-04   6.2884660E+04   -1.6660606E+00
   5.0623501E-04   6.2403858E+04   -1.6655498E+00
   5.0857286E-04   6.1926878E+04   -1.6650399E+00
   5.1092150E-04   6.1453687E+04   -1.6645307E+00
   5.1328099E-04   6.0984256E+04   -1.6640223E+00
   5.1565137E-04   6.0518552E+04   -1.6635147E+00
   5.1803270E-04   6.0056545E+04   -1.6630080E+00
   5.2042503E-04   5.9598203E+04   -1.6625020E+00
   5.2282841E-04   5.9143498E+04   -1.6619969E+00
   5.2524289E-04   5.8692398E+04   -1.6614926E+00
   5.2766851E-04   5.8244874E+04   -1.6609891E+00
   5.3010534E-04   5.7800897E+04   -1.6604864E+00
   5.3255342E-04   5.7360436E+04   -1.6599846E+00
   5.3501281E-04   5.6923463E+04   -1.6594836E+00
   5.3748356E-04   5.6489949E+04   -1.6589834E+00
   5.3996571E-04   5.6059866E+04   -1.6584840E+00
   5.4245933E-04   5.5633186E+04   -1.6579855E+00
   5.4496446E-04   5.5209879E+04   -1.6574879E+00
   5.4748117E-04   5.4789920E+04   -1.6569911E+00
   5.5000949E-04   5.4373278E+04   -1.6564951E+00
   5.5254949E-04   5.3959929E+04   -1.6560000E+00
   5.5510123E-04   5.3549844E+04   -1.6555057E+00
   5.5766474E-04   5.3142996E+04   -1.6550124E+00
   5.6024010E-04   5.2739359E+04   -1.6545198E+00
   5.6282734E-04   5.2338906E+04   -1.6540282E+00
   5.6542654E-04   5.1941612E+04   -1.6535374E+00
   5.6803774E-04   5.1547450E+04   -1.6530474E+00
   5.7066099E-04   5.1156394E+04   -1.6525584E+00
   5.7329637E-04   5.0768419E+04   -1.6520702E+00
   5.7594391E-04   5.0383500E+04   -1.6515829E+00
   5.7860368E-04   5.0001612E+04   -1.6510965E+00
   5.8127573E-04   4.9622729E+04   -1.6506110E+00
   5.8396012E-04   4.9246827E+04   -1.6501263E+00
   5.8665691E-04   4.8873882E+04   -1.6496426E+00
   5.8936616E-04   4.8503869E+04   -1.6491597E+00
   5.9208791E-04   4.8136765E+04   -1.6486777E+00
   5.9482223E-04   4.7772545E+04   -1.6481967E+00
   5.9756919E-04   4.7411185E+04   -1.6477165E+00
   6.0032882E-04   4.7052663E+04   -1.6472372E+00
   6.0310120E-04   4.6696956E+04   -1.6467589E+00
   6.0588639E-04   4.6344039E+04   -1.6462814E+00
   6.0868443E-04   4.5993890E+04   -1.6458049E+00
   6.1149540E-04   4.5646488E+04   -1.6453293E+00
   6.1431935E-04   4.5301808E+04   -1.6448545E+00
   6.1715634E-04   4.4959830E+04   -1.6443808E+00
   6.2000644E-04   4.4620530E+04   -1.6439079E+00
   6.2286969E-04   4.4283887E+04   -1.6434359E+00
