#        a       HoverH0(a)       dlogHdloga_of_a(a)
   1.0000000E-04   1.1477744E+06   -1.8767305E+00
   1.0046181E-04   1.1378935E+06   -1.8763021E+00
   1.0092575E-04   1.1280999E+06   -1.8758726E+00
   1.0139184E-04   1.1183928E+06   -1.8754422E+00
   1.0186008E-04   1.1087715E+06   -1.8750107E+00
   1.0233048E-04   1.0992351E+06   -1.8745783E+00
   1.0280305E-04   1.0897829E+06   -1.8741449E+00
   1.0327781E-04   1.0804141E+06   -1.8737105E+00
   1.0375475E-04   1.0711281E+06   -1.8732750E+00
   1.0423390E-04   1.0619239E+06   -1.8728386E+00
   1.0471527E-04   1.0528010E+06   -1.8724012E+00
   1.0519885E-04   1.0437586E+06   -1.8719629E+00
   1.0568467E-04   1.0347959E+06   -1.8715235E+00
   1.0617274E-04   1.0259123E+06   -1.8710831E+00
   1.0666305E-04   1.0171070E+06   -1.8706418E+00
   1.0715563E-04   1.0083793E+06   -1.8701995E+00
   1.0765049E-04   9.9972853E+05   -1.8697562E+00
   1.0814763E-04   9.9115402E+05   -1.8693119E+00
   1.0864707E-04   9.8265507E+05   -1.8688666E+00
   1.0914881E-04   9.7423100E+05   -1.8684204E+00
   1.0965287E-04   9.6588113E+05   -1.8679732E+00
   1.1015926E-04   9.5760480E+05   -1.8675250E+00
   1.1066799E-04   9.4940135E+05   -1.8670758E+00
   1.1117906E-04   9.4127012E+05   -1.8666257E+00
   1.1169250E-04   9.3321048E+05   -1.8661746E+00
   1.1220831E-04   9.2522177E+05   -1.8657225E+00
   1.1272650E-04   9.1730336E+05   -1.8652695E+00
   1.1324708E-04   9.0945461E+05   -1.8648155E+00
   1.1377007E-04   9.0167492E+05   -1.8643606E+00
   1.1429547E-04   8.9396365E+05   -1.8639046E+00
   1.1482330E-04   8.8632019E+05   -1.8634478E+00
   1.1535356E-04   8.7874394E+05   -1.8629899E+00
   1.1588628E-04   8.7123429E+05   -1.8625312E+00
   1.1642145E-04   8.6379064E+05   -1.8620714E+00
   1.1695910E-04   8.5641240E+05   -1.8616107E+00
   1.1749923E-04   8.4909899E+05   -1.8611491E+00
   1.1804185E-04   8.4184983E+05   -1.8606865E+00
   1.1858698E-04   8.3466433E+05   -1.8602230E+00
   1.1913463E-04   8.2754194E+05   -1.8597585E+00
   1.1968481E-04   8.2048208E+05   -1.8592931E+00
   1.2023752E-04   8.1348419E+05   -1.8588268E+00
   1.2079279E-04   8.0654773E+05   -1.8583595E+00
   1.2135063E-04   7.9967214E+05   -1.8578912E+00
   1.2191104E-04   7.9285687E+05   -1.8574221E+00
   1.2247403E-04   7.8610138E+05   -1.8569520E+00
   1.2303963E-04   7.7940515E+05   -1.8564810E+00
   1.2360784E-04   7.7276763E+05   -1.8560091E+00
   1.2417868E-04   7.6618831E+05   -1.8555362E+00
   1.2475215E-04   7.5966666E+05   -1.8550624E+00
   1.2532826E-04   7.5320217E+05   -1.8545877E+00
   1.2590704E-04   7.4679432E+05   -1.8541121E+00
   1.2648850E-04   7.4044261E+05   -1.8536356E+00
   1.2707263E-04   7.3414653E+05   -1.8531582E+00
   1.2765947E-04   7.2790560E+05   -1.8526798E+00
   1.2824901E-04   7.2171931E+05   -1.8522006E+00
   1.2884128E-04   7.1558718E+05   -1.8517204E+00
   1.2943628E-04   7.0950873E+05   -1.8512393E+00
   1.3003403E-04   7.0348346E+05   -1.8507574E+00
   1.3063454E-04   6.9751092E+05   -1.8502745E+00
   1.3123783E-04   6.9159062E+05   -1.8497908E+00
   1.3184390E-04   6.8572210E+05   -1.8493061E+00
   1.3245277E-04   6.7990490E+05   -1.8488206E+00
   1.3306445E-04   6.7413855E+05   -1.8483342E+00
   1.3367895E-04   6.6842261E+05   -1.8478469E+00
   1.3429630E-04   6.6275663E+05   -1.8473587E+00
   1.3491649E-04   6.5714015E+05   -1.8468697E+00
   1.3553955E-04   6.5157274E+05   -1.8463798E+00
   1.3616548E-04   6.4605395E+05   -1.8458890E+00
   1.3679431E-04   6.4058337E+05   -1.8453973E+00
   1.3742604E-04   6.3516054E+05   -1.8449048E+00
   1.3806069E-04   6.2978505E+05   -1.8444114E+00
   1.3869827E-04   6.2445648E+05   -1.8439172E+00
   1.3933879E-04   6.1917440E+05   -1.8434220E+00
   1.3998227E-04   6.1393840E+05   -1.8429261E+00
   1.4062872E-04   6.0874807E+05   -1.8424293E+00
   1.4127816E-04   6.0360301E+05   -1.8419316E+00
   1.4193060E-04   5.9850280E+05   -1.8414331E+00
   1.4258605E-04   5.9344705E+05   -1.8409338E+00
   1.4324453E-04   5.8843537E+05   -1.8404336E+00
   1.4390605E-04   5.8346735E+05   -1.8399326E+00
   1.4457062E-04   5.7854262E+05   -1.8394307E+00
   1.4523826E-04   5.7366078E+05   -1.8389281E+00
   1.4590899E-04   5.6882145E+05   -1.8384246E+00
   1.4658281E-04   5.6402426E+05   -1.8379202E+00
   1.4725974E-04   5.5926882E+05   -1.8374151E+00
   1.4793981E-04   5.5455477E+05   -1.8369092E+00
   1.4862301E-04   5.4988174E+05   -1.8364024E+00
   1.4930936E-04   5.4524936E+05   -1.8358948E+00
   1.4999889E-04   5.4065727E+05   -1.8353864E+00
   1.5069160E-04   5.3610511E+05   -1.8348773E+00
   1.5138751E-04   5.3159252E+05   -1.8343673E+00
   1.5208663E-04   5.2711916E+05   -1.8338565E+00
   1.5278899E-04   5.2268468E+05   -1.8333450E+00
   1.5349458E-04   5.1828872E+05   -1.8328326E+00
   1.5420343E-04   5.1393095E+05   -1.8323195E+00
   1.5491556E-04   5.0961102E+05   -1.8318056E+00
   1.5563098E-04   5.0532861E+05   -1.8312909E+00
   1.5634970E-04   5.0108337E+05   -1.8307755E+00
   1.5707174E-04   4.9687497E+05   -1.8302592E+00
   1.5779711E-04   4.9270309E+05   -1.8297422E+00
   1.5852584E-04   4.8856741E+05   -1.8292245E+00
   1.5925792E-04   4.8446759E+05   -1.8287060E+00
   1.5999339E-04   4.8040333E+05   -1.8281867E+00
   1.6073226E-04   4.7637430E+05   -1.8276667E+00
   1.6147454E-04   4.7238020E+05   -1.8271460E+00
   1.6222024E-04   4.6842071E+05   -1.8266245E+00
   1.6296939E-04   4.6449552E+05   -1.8261023E+00
   1.6372200E-04   4.6060434E+05   -1.8255793E+00
   1.6447809E-04   4.5674685E+05   -1.8250556E+00
   1.6523767E-04   4.5292277E+05   -1.8245312E+00
   1.6600075E-04   4.4913178E+05   -1.8240061E+00
   1.6676736E-04   4.4537361E+05   -1.8234802E+00
   1.6753751E-04   4.4164795E+05   -1.8229536E+00
   1.6831122E-04   4.3795452E+05   -1.8224264E+00
   1.6908849E-04   4.3429304E+05   -1.8218984E+00
   1.6986936E-04   4.3066321E+05   -1.8213697E+00
   1.7065384E-04   4.2706477E+05   -1.8208403E+00
   1.7144193E-04   4.2349742E+05   -1.8203102E+00
   1.7223367E-04   4.1996090E+05   -1.8197795E+00
   1.7302906E-04   4.1645493E+05   -1.8192480E+00
   1.7382813E-04   4.1297925E+05   -1.8187159E+00
   1.7463089E-04   4.0953357E+05   -1.8181831E+00
   1.7543735E-04   4.0611765E+05   -1.8176497E+00
   1.7624754E-04   4.0273120E+05   -1.8171155E+00
   1.7706147E-04   3.9937398E+05   -1.8165808E+00
   1.7787916E-04   3.9604572E+05   -1.8160453E+00
   1.7870062E-04   3.9274616E+05   -1.8155092E+00
   1.7952588E-04   3.8947506E+05   -1.8149725E+00
   1.8035495E-04   3.8623215E+05   -1.8144351E+00
   1.8118785E-04   3.8301720E+05   -1.8138970E+00
   1.8202459E-04   3.7982995E+05   -1.8133584E+00
   1.8286520E-04   3.7667016E+05   -1.8128191E+00
   1.8370969E-04   3.7353758E+05   -1.8122792E+00
   1.8455808E-04   3.7043198E+05   -1.8117386E+00
   1.8541039E-04   3.6735311E+05   -1.8111975E+00
   1.8626663E-04   3.6430075E+05   -1.8106557E+00
   1.8712683E-04   3.6127464E+05   -1.8101133E+00
   1.8799100E-04   3.5827457E+05   -1.8095703E+00
   1.8885917E-04   3.5530031E+05   -1.8090268E+00
   1.8973134E-04   3.5235161E+05   -1.8084826E+00
   1.9060754E-04   3.4942826E+05   -1.8079379E+00
   1.9148778E-04   3.4653004E+05   -1.8073925E+00
   1.9237209E-04   3.4365672E+05   -1.8068466E+00
   1.9326049E-04   3.4080809E+05   -1.8063001E+00
   1.9415299E-04   3.3798391E+05   -1.8057531E+00
   1.9504960E-04   3.3518399E+05   -1.8052055E+00
   1.9595036E-04   3.3240810E+05   -1.8046573E+00
   1.9685528E-04   3.2965603E+05   -1.8041086E+00
   1.9776438E-04   3.2692758E+05   -1.8035593E+00
   1.9867768E-04   3.2422252E+05   -1.8030095E+00
   1.9959519E-04   3.2154067E+05   -1.8024591E+00
   2.0051694E-04   3.1888180E+05   -1.8019083E+00
   2.0144295E-04   3.1624573E+05   -1.8013569E+00
   2.0237324E-04   3.1363224E+05   -1.8008049E+00
   2.0330782E-04   3.1104115E+05   -1.8002525E+00
   2.0424671E-04   3.0847224E+05   -1.7996995E+00
   2.0518995E-04   3.0592534E+05   -1.7991460E+00
   2.0613754E-04   3.0340023E+05   -1.7985921E+00
   2.0708950E-04   3.0089674E+05   -1.7980376E+00
   2.0804586E-04   2.9841466E+05   -1.7974826E+00
   2.0900664E-04   2.9595382E+05   -1.7969272E+00
   2.0997185E-04   2.9351403E+05   -1.7963713E+00
   2.1094152E-04   2.9109509E+05   -1.7958149E+00
   2.1191567E-04   2.8869682E+05   -1.7952580E+00
   2.1289432E-04   2.8631906E+05   -1.7947006E+00
   2.1387749E-04   2.8396160E+05   -1.7941428E+00
   2.1486520E-04   2.8162428E+05   -1.7935846E+00
   2.1585747E-04   2.7930691E+05   -1.7930259E+00
   2.1685432E-04   2.7700933E+05   -1.7924667E+00
   2.1785578E-04   2.7473136E+05   -1.7919072E+00
   2.1886186E-04   2.7247282E+05   -1.7913471E+00
   2.1987259E-04   2.7023354E+05   -1.7907867E+00
   2.2088798E-04   2.6801337E+05   -1.7902258E+00
   2.2190807E-04   2.6581212E+05   -1.7896646E+00
   2.2293286E-04   2.6362963E+05   -1.7891029E+00
   2.2396239E-04   2.6146574E+05   -1.7885408E+00
   2.2499667E-04   2.5932028E+05   -1.7879783E+00
   2.2603573E-04   2.5719309E+05   -1.7874154E+00
   2.2707958E-04   2.5508401E+05   -1.7868521E+00
   2.2812826E-04   2.5299289E+05   -1.7862884E+00
   2.2918178E-04   2.5091956E+05   -1.7857244E+00
   2.3024017E-04   2.4886386E+05   -1.7851600E+00
   2.3130344E-04   2.4682565E+05   -1.7845952E+00
   2.3237162E-04   2.4480478E+05   -1.7840301E+00
   2.3344474E-04   2.4280108E+05   -1.7834646E+00
   2.3452281E-04   2.4081440E+05   -1.7828987E+00
   2.3560586E-04   2.3884461E+05   -1.7823325E+00
   2.3669392E-04   2.3689155E+05   -1.7817660E+00
   2.3778699E-04   2.3495507E+05   -1.7811992E+00
   2.3888512E-04   2.3303503E+05   -1.7806320E+00
   2.3998831E-04   2.3113128E+05   -1.7800645E+00
   2.4109661E-04   2.2924369E+05   -1.7794966E+00
   2.4221001E-04   2.2737210E+05   -1.7789285E+00
   2.4332857E-04   2.2551639E+05   -1.7783601E+00
   2.4445228E-04   2.2367641E+05   -1.7777914E+00
   2.4558119E-04   2.2185202E+05   -1.7772223E+00
   2.4671531E-04   2.2004309E+05   -1.7766530E+00
   2.4785467E-04   2.1824948E+05   -1.7760834E+00
   2.4899928E-04   2.1647106E+05   -1.7755136E+00
   2.5014919E-04   2.1470770E+05   -1.7749434E+00
   2.5130440E-04   2.1295926E+05   -1.7743730E+00
   2.5246495E-04   2.1122561E+05   -1.7738024E+00
   2.5363086E-04   2.0950663E+05   -1.7732315E+00
   2.5480216E-04   2.0780218E+05   -1.7726604E+00
   2.5597886E-04   2.0611214E+05   -1.7720890E+00
   2.5716100E-04   2.0443639E+05   -1.7715174E+00
   2.5834859E-04   2.0277479E+05   -1.7709455E+00
   2.5954168E-04   2.0112723E+05   -1.7703734E+00
   2.6074027E-04   1.9949358E+05   -1.7698012E+00
   2.6194439E-04   1.9787372E+05   -1.7692287E+00
   2.6315408E-04   1.9626754E+05   -1.7686560E+00
   2.6436935E-04   1.9467490E+05   -1.7680831E+00
   2.6559024E-04   1.9309570E+05   -1.7675100E+00
   2.6681676E-04   1.9152981E+05   -1.7669367E+00
   2.6804895E-04   1.8997713E+05   -1.7663633E+00
   2.6928683E-04   1.8843753E+05   -1.7657897E+00
   2.7053042E-04   1.8691090E+05   -1.7652159E+00
   2.7177976E-04   1.8539713E+05   -1.7646419E+00
   2.7303487E-04   1.8389610E+05   -1.7640678E+00
   2.7429577E-04   1.8240772E+05   -1.7634936E+00
   2.7556250E-04   1.8093185E+05   -1.7629192E+00
   2.7683507E-04   1.7946840E+05   -1.7623446E+00
   2.7811353E-04   1.7801726E+05   -1.7617700E+00
   2.7939788E-04   1.7657833E+05   -1.7611952E+00
   2.8068817E-04   1.7515148E+05   -1.7606203E+00
   2.8198442E-04   1.7373663E+05   -1.7600452E+00
   2.8328665E-04   1.7233366E+05   -1.7594701E+00
   2.8459490E-04   1.7094248E+05   -1.7588949E+00
   2.8590919E-04   1.6956297E+05   -1.7583195E+00
   2.8722955E-04   1.6819504E+05   -1.7577441E+00
   2.8855600E-04   1.6683859E+05   -1.7571686E+00
   2.8988859E-04   1.6549352E+05   -1.7565931E+00
   2.9122732E-04   1.6415973E+05   -1.7560174E+00
   2.9257224E-04   1.6283712E+05   -1.7554417E+00
   2.9392337E-04   1.6152560E+05   -1.7548659E+00
   2.9528074E-04   1.6022506E+05   -1.7542901E+00
   2.9664438E-04   1.5893542E+05   -1.7537142E+00
   2.9801431E-04   1.5765657E+05   -1.7531383E+00
   2.9939057E-04   1.5638843E+05   -1.7525624E+00
   3.0077319E-04   1.5513090E+05   -1.7519864E+00
   3.0216219E-04   1.5388390E+05   -1.7514104E+00
   3.0355761E-04   1.5264732E+05   -1.7508344E+00
   3.0495947E-04   1.5142108E+05   -1.7502584E+00
   3.0636780E-04   1.5020509E+05   -1.7496824E+00
   3.0778264E-04   1.4899926E+05   -1.7491064E+00
   3.0920401E-04   1.4780350E+05   -1.7485304E+00
   3.1063195E-04   1.4661773E+05   -1.7479544E+00
   3.1206648E-04   1.4544185E+05   -1.7473784E+00
   3.1350764E-04   1.4427579E+05   -1.7468025E+00
   3.1495545E-04   1.4311946E+05   -1.7462266E+00
   3.1640994E-04   1.4197277E+05   -1.7456507E+00
   3.1787116E-04   1.4083565E+05   -1.7450749E+00
   3.1933912E-04   1.3970800E+05   -1.7444991E+00
   3.2081386E-04   1.3858975E+05   -1.7439234E+00
   3.2229541E-04   1.3748081E+05   -1.7433477E+00
   3.2378381E-04   1.3638111E+05   -1.7427722E+00
   3.2527908E-04   1.3529057E+05   -1.7421967E+00
   3.2678125E-04   1.3420910E+05   -1.7416212E+00
   3.2829036E-04   1.3313663E+05   -1.7410459E+00
   3.2980644E-04   1.3207308E+05   -1.7404707E+00
   3.3132952E-04   1.3101837E+05   -1.7398955E+00
   3.3285963E-04   1.2997243E+05   -1.7393205E+00
   3.3439681E-04   1.2893518E+05   -1.7387456E+00
   3.3594109E-04   1.2790654E+05   -1.7381708E+00
   3.3749250E-04   1.2688645E+05   -1.7375961E+00
   3.3905108E-04   1.2587483E+05   -1.7370215E+00
   3.4061685E-04   1.2487161E+05   -1.7364471E+00
   3.4218986E-04   1.2387670E+05   -1.7358729E+00
   3.4377013E-04   1.2289005E+05   -1.7352987E+00
   3.4535769E-04   1.2191158E+05   -1.7347248E+00
   3.4695259E-04   1.2094123E+05   -1.7341510E+00
   3.4855485E-04   1.1997891E+05   -1.7335773E+00
   3.5016452E-04   1.1902456E+05   -1.7330039E+00
   3.5178161E-04   1.1807812E+05   -1.7324306E+00
   3.5340618E-04   1.1713951E+05   -1.7318575E+00
   3.5503824E-04   1.1620867E+05   -1.7312846E+00
   3.5667785E-04   1.1528553E+05   -1.7307119E+00
   3.5832502E-04   1.1437002E+05   -1.7301394E+00
   3.5997981E-04   1.1346209E+05   -1.7295671E+00
   3.6164223E-04   1.1256166E+05   -1.7289950E+00
   3.6331233E-04   1.1166867E+05   -1.7284231E+00
   3.6499015E-04   1.1078305E+05   -1.7278515E+00
   3.6667571E-04   1.0990475E+05   -1.7272801E+00
   3.6836906E-04   1.0903370E+05   -1.7267089E+00
   3.7007022E-04   1.0816984E+05   -1.7261380E+00
   3.7177925E-04   1.0731310E+05   -1.7255673E+00
   3.7349616E-04   1.0646343E+05   -1.7249969E+00
   3.7522101E-04   1.0562077E+05   -1.7244267E+00
   3.7695382E-04   1.0478504E+05   -1.7238569E+00
   3.7869463E-04   1.0395621E+05   -1.7232872E+00
   3.8044348E-04   1.0313420E+05   -1.7227179E+00
   3.8220041E-04   1.0231896E+05   -1.7221489E+00
   3.8396545E-04   1.0151043E+05   -1.7215801E+00
   3.8573864E-04   1.0070855E+05   -1.7210116E+00
   3.8752002E-04   9.9913270E+04   -1.7204435E+00
   3.8930963E-04   9.9124528E+04   -1.7198756E+00
   3.9110750E-04   9.8342270E+04   -1.7193081E+00
   3.9291368E-04   9.7566440E+04   -1.7187409E+00
   3.9472820E-04   9.6796984E+04   -1.7181740E+00
   3.9655109E-04   9.6033847E+04   -1.7176075E+00
   3.9838241E-04   9.5276974E+04   -1.7170412E+00
   4.0022218E-04   9.4526314E+04   -1.7164754E+00
   4.0207045E-04   9.3781812E+04   -1.7159098E+00
   4.0392725E-04   9.3043417E+04   -1.7153447E+00
   4.0579263E-04   9.2311076E+04   -1.7147798E+00
   4.0766662E-04   9.1584737E+04   -1.7142154E+00
   4.0954927E-04   9.0864349E+04   -1.7136513E+00
   4.1144061E-04   9.0149862E+04   -1.7130876E+00
   4.1334068E-04   8.9441226E+04   -1.7125243E+00
   4.1524953E-04   8.8738390E+04   -1.7119614E+00
   4.1716720E-04   8.8041305E+04   -1.7113989E+00
   4.1909372E-04   8.7349922E+04   -1.7108367E+00
   4.2102914E-04   8.6664193E+04   -1.7102750E+00
   4.2297350E-04   8.5984070E+04   -1.7097137E+00
   4.2492683E-04   8.5309505E+04   -1.7091528E+00
   4.2688919E-04   8.4640451E+04   -1.7085923E+00
   4.2886061E-04   8.3976861E+04   -1.7080322E+00
   4.3084113E-04   8.3318688E+04   -1.7074726E+00
   4.3283080E-04   8.2665887E+04   -1.7069134E+00
   4.3482966E-04   8.2018411E+04   -1.7063547E+00
   4.3683775E-04   8.1376217E+04   -1.7057964E+00
   4.3885511E-04   8.0739258E+04   -1.7052385E+00
   4.4088179E-04   8.0107491E+04   -1.7046812E+00
   4.4291783E-04   7.9480871E+04   -1.7041242E+00
   4.4496327E-04   7.8859355E+04   -1.7035678E+00
   4.4701816E-04   7.8242900E+04   -1.7030118E+00
   4.4908253E-04   7.7631462E+04   -1.7024563E+00
   4.5115644E-04   7.7024999E+04   -1.7019013E+00
   4.5323993E-04   7.6423470E+04   -1.7013468E+00
   4.5533304E-04   7.5826832E+04   -1.7007928E+00
   4.5743582E-04   7.5235044E+04   -1.7002393E+00
   4.5954830E-04   7.4648065E+04   -1.6996863E+00
   4.6167054E-04   7.4065854E+04   -1.6991337E+00
   4.6380259E-04   7.3488371E+04   -1.6985818E+00
   4.6594448E-04   7.2915576E+04   -1.6980303E+00
   4.6809626E-04   7.2347429E+04   -1.6974794E+00
   4.7025797E-04   7.1783891E+04   -1.6969290E+00
   4.7242967E-04   7.1224923E+04   -1.6963791E+00
   4.7461140E-04   7.0670487E+04   -1.6958298E+00
   4.7680321E-04   7.0120544E+04   -1.6952810E+00
   4.7900514E-04   6.9575056E+04   -1.6947328E+00
   4.8121723E-04   6.9033986E+04   -1.6941851E+00
   4.8343954E-04   6.8497297E+04   -1.6936380E+00
   4.8567212E-04   6.7964952E+04   -1.6930915E+00
   4.8791500E-04   6.7436913E+04   -1.6925455E+00
   4.9016825E-04   6.6913145E+04   -1.6920001E+00
   4.9243189E-04   6.6393612E+04   -1.6914553E+00
   4.9470600E-04   6.5878278E+04   -1.6909111E+00
   4.9699060E-04   6.5367107E+04   -1.6903674E+00
   4.9928575E-04   6.4860066E+04   -1.6898244E+00
   5.0159151E-04   6.4357118E+04   -1.6892820E+00
   5.0390791E-04   6.3858230E+04   -1.6887401E+00
   5.0623501E-04   6.3363367E+04   -1.6881989E+00
   5.0857286E-04   6.2872496E+04   -1.6876583E+00
   5.1092150E-04   6.2385583E+04   -1.6871183E+00
   5.1328099E-04   6.1902594E+04   -1.6865790E+00
   5.1565137E-04   6.1423498E+04   -1.6860403E+00
   5.1803270E-04   6.0948261E+04   -1.6855022E+00
   5.2042503E-04   6.0476850E+04   -1.6849647E+00
   5.2282841E-04   6.0009234E+04   -1.6844279E+00
   5.2524289E-04   5.9545382E+04   -1.6838917E+00
   5.2766851E-04   5.9085260E+04   -1.6833562E+00
   5.3010534E-04   5.8628838E+04   -1.6828213E+00
   5.3255342E-04   5.8176086E+04   -1.6822871E+00
   5.3501281E-04   5.7726971E+04   -1.6817536E+00
   5.3748356E-04   5.7281465E+04   -1.6812207E+00
   5.3996571E-04   5.6839536E+04   -1.6806886E+00
   5.4245933E-04   5.6401155E+04   -1.6801570E+00
   5.4496446E-04   5.5966292E+04   -1.6796262E+00
   5.4748117E-04   5.5534918E+04   -1.6790961E+00
   5.5000949E-04   5.5107003E+04   -1.6785666E+00
   5.5254949E-04   5.4682518E+04   -1.6780379E+00
   5.5510123E-04   5.4261436E+04   -1.6775098E+00
   5.5766474E-04   5.3843727E+04   -1.6769824E+00
   5.6024010E-04   5.3429363E+04   -1.6764558E+00
   5.6282734E-04   5.3018316E+04   -1.6759299E+00
   5.6542654E-04   5.2610560E+04   -1.6754047E+00
   5.6803774E-04   5.2206065E+04   -1.6748802E+00
   5.7066099E-04   5.1804806E+04   -1.6743564E+00
   5.7329637E-04   5.1406754E+04   -1.6738333E+00
   5.7594391E-04   5.1011884E+04   -1.6733110E+00
   5.7860368E-04   5.0620169E+04   -1.6727895E+00
   5.8127573E-04   5.0231583E+04   -1.6722686E+00
   5.8396012E-04   4.9846098E+04   -1.6717485E+00
   5.8665691E-04   4.9463691E+04   -1.6712292E+00
   5.8936616E-04   4.9084335E+04   -1.6707106E+00
   5.9208791E-04   4.8708004E+04   -1.6701928E+00
   5.9482223E-04   4.8334674E+04   -1.6696757E+00
   5.9756919E-04   4.7964320E+04   -1.6691594E+00
   6.0032882E-04   4.7596917E+04   -1.6686438E+00
   6.0310120E-04   4.7232439E+04   -1.6681291E+00
   6.0588639E-04   4.6870864E+04   -1.6676151E+00
   6.0868443E-04   4.6512167E+04   -1.6671018E+00
   6.1149540E-04   4.6156325E+04   -1.6665894E+00
   6.1431935E-04   4.5803312E+04   -1.6660778E+00
   6.1715634E-04   4.5453107E+04   -1.6655669E+00
   6.2000644E-04   4.5105685E+04   -1.6650568E+00
   6.2286969E-04   4.4761024E+04   -1.6645476E+00
