#        a       HoverH0(a)       dlogHdloga_of_a(a)
   1.0000000E-04   1.0944713E+06   -1.8465027E+00
   1.0046181E-04   1.0852006E+06   -1.8460121E+00
   1.0092575E-04   1.0760108E+06   -1.8455207E+00
   1.0139184E-04   1.0669013E+06   -1.8450284E+00
   1.0186008E-04   1.0578713E+06   -1.8445352E+00
   1.0233048E-04   1.0489201E+06   -1.8440412E+00
   1.0280305E-04   1.0400470E+06   -1.8435463E+00
   1.0327781E-04   1.0312514E+06   -1.8430506E+00
   1.0375475E-04   1.0225324E+06   -1.8425540E+00
   1.0423390E-04   1.0138895E+06   -1.8420566E+00
   1.0471527E-04   1.0053220E+06   -1.8415583E+00
   1.0519885E-04   9.9682912E+05   -1.8410592E+00
   1.0568467E-04   9.8841028E+05   -1.8405592E+00
   1.0617274E-04   9.8006481E+05   -1.8400584E+00
   1.0666305E-04   9.7179204E+05   -1.8395568E+00
   1.0715563E-04   9.6359134E+05   -1.8390544E+00
   1.0765049E-04   9.5546205E+05   -1.8385511E+00
   1.0814763E-04   9.4740354E+05   -1.8380470E+00
   1.0864707E-04   9.3941519E+05   -1.8375420E+00
   1.0914881E-04   9.3149636E+05   -1.8370363E+00
   1.0965287E-04   9.2364643E+05   -1.8365298E+00
   1.1015926E-04   9.1586480E+05   -1.8360224E+00
   1.1066799E-04   9.0815085E+05   -1.8355142E+00
   1.1117906E-04   9.0050398E+05   -1.8350053E+00
   1.1169250E-04   8.9292360E+05   -1.8344955E+00
   1.1220831E-04   8.8540911E+05   -1.8339850E+00
   1.1272650E-04   8.7795992E+05   -1.8334736E+00
   1.1324708E-04   8.7057546E+05   -1.8329615E+00
   1.1377007E-04   8.6325515E+05   -1.8324486E+00
   1.1429547E-04   8.5599842E+05   -1.8319349E+00
   1.1482330E-04   8.4880470E+05   -1.8314204E+00
   1.1535356E-04   8.4167343E+05   -1.8309051E+00
   1.1588628E-04   8.3460406E+05   -1.8303891E+00
   1.1642145E-04   8.2759603E+05   -1.8298723E+00
   1.1695910E-04   8.2064881E+05   -1.8293548E+00
   1.1749923E-04   8.1376184E+05   -1.8288365E+00
   1.1804185E-04   8.0693460E+05   -1.8283175E+00
   1.1858698E-04   8.0016655E+05   -1.8277976E+00
   1.1913463E-04   7.9345717E+05   -1.8272771E+00
   1.1968481E-04   7.8680593E+05   -1.8267558E+00
   1.2023752E-04   7.8021233E+05   -1.8262338E+00
   1.2079279E-04   7.7367585E+05   -1.8257110E+00
   1.2135063E-04   7.6719597E+05   -1.8251875E+00
   1.2191104E-04   7.6077221E+05   -1.8246633E+00
   1.2247403E-04   7.5440405E+05   -1.8241384E+00
   1.2303963E-04   7.4809101E+05   -1.8236127E+00
   1.2360784E-04   7.4183260E+05   -1.8230863E+00
   1.2417868E-04   7.3562832E+05   -1.8225592E+00
   1.2475215E-04   7.2947771E+05   -1.8220314E+00
   1.2532826E-04   7.2338029E+05   -1.8215030E+00
   1.2590704E-04   7.1733558E+05   -1.8209738E+00
   1.2648850E-04   7.1134311E+05   -1.8204439E+00
   1.2707263E-04   7.0540243E+05   -1.8199133E+00
   1.2765947E-04   6.9951307E+05   -1.8193821E+00
   1.2824901E-04   6.9367459E+05   -1.8188501E+00
   1.2884128E-04   6.8788652E+05   -1.8183175E+00
   1.2943628E-04   6.8214842E+05   -1.8177842E+00
   1.3003403E-04   6.7645985E+05   -1.8172503E+00
   1.3063454E-04   6.7082037E+05   -1.8167157E+00
   1.3123783E-04   6.6522954E+05   -1.8161804E+00
   1.3184390E-04   6.5968694E+05   -1.8156445E+00
   1.3245277E-04   6.5419213E+05   -1.8151079E+00
   1.3306445E-04   6.4874470E+05   -1.8145707E+00
   1.3367895E-04   6.4334422E+05   -1.8140329E+00
   1.3429630E-04   6.3799028E+05   -1.8134944E+00
   1.3491649E-04   6.3268246E+05   -1.8129553E+00
   1.3553955E-04   6.2742037E+05   -1.8124155E+00
   1.3616548E-04   6.2220358E+05   -1.8118752E+00
   1.3679431E-04   6.1703172E+05   -1.8113342E+00
   1.3742604E-04   6.1190436E+05   -1.8107926E+00
   1.3806069E-04   6.0682113E+05   -1.8102504E+00
   1.3869827E-04   6.0178163E+05   -1.8097076E+00
   1.3933879E-04   5.9678548E+05   -1.8091642E+00
   1.3998227E-04   5.9183228E+05   -1.8086202E+00
   1.4062872E-04   5.8692167E+05   -1.8080756E+00
   1.4127816E-04   5.8205327E+05   -1.8075304E+00
   1.4193060E-04   5.7722669E+05   -1.8069847E+00
   1.4258605E-04   5.7244158E+05   -1.8064384E+00
   1.4324453E-04   5.6769757E+05   -1.8058915E+00
   1.4390605E-04   5.6299430E+05   -1.8053440E+00
   1.4457062E-04   5.5833140E+05   -1.8047960E+00
   1.4523826E-04   5.5370851E+05   -1.8042474E+00
   1.4590899E-04   5.4912530E+05   -1.8036983E+00
   1.4658281E-04   5.4458140E+05   -1.8031487E+00
   1.4725974E-04   5.4007646E+05   -1.8025985E+00
   1.4793981E-04   5.3561015E+05   -1.8020477E+00
   1.4862301E-04   5.3118213E+05   -1.8014965E+00
   1.4930936E-04   5.2679205E+05   -1.8009447E+00
   1.4999889E-04   5.2243958E+05   -1.8003924E+00
   1.5069160E-04   5.1812439E+05   -1.7998396E+00
   1.5138751E-04   5.1384615E+05   -1.7992863E+00
   1.5208663E-04   5.0960454E+05   -1.7987324E+00
   1.5278899E-04   5.0539924E+05   -1.7981781E+00
   1.5349458E-04   5.0122991E+05   -1.7976233E+00
   1.5420343E-04   4.9709626E+05   -1.7970680E+00
   1.5491556E-04   4.9299795E+05   -1.7965122E+00
   1.5563098E-04   4.8893469E+05   -1.7959560E+00
   1.5634970E-04   4.8490616E+05   -1.7953992E+00
   1.5707174E-04   4.8091205E+05   -1.7948420E+00
   1.5779711E-04   4.7695207E+05   -1.7942844E+00
   1.5852584E-04   4.7302591E+05   -1.7937262E+00
   1.5925792E-04   4.6913328E+05   -1.7931677E+00
   1.5999339E-04   4.6527388E+05   -1.7926087E+00
   1.6073226E-04   4.6144742E+05   -1.7920492E+00
   1.6147454E-04   4.5765361E+05   -1.7914893E+00
   1.6222024E-04   4.5389216E+05   -1.7909290E+00
   1.6296939E-04   4.5016279E+05   -1.7903683E+00
   1.6372200E-04   4.4646521E+05   -1.7898071E+00
   1.6447809E-04   4.4279916E+05   -1.7892456E+00
   1.6523767E-04   4.3916434E+05   -1.7886836E+00
   1.6600075E-04   4.3556048E+05   -1.7881212E+00
   1.6676736E-04   4.3198732E+05   -1.7875585E+00
   1.6753751E-04   4.2844459E+05   -1.7869953E+00
   1.6831122E-04   4.2493201E+05   -1.7864318E+00
   1.6908849E-04   4.2144932E+05   -1.7858678E+00
   1.6986936E-04   4.1799627E+05   -1.7853035E+00
   1.7065384E-04   4.1457258E+05   -1.7847389E+00
   1.7144193E-04   4.1117800E+05   -1.7841739E+00
   1.7223367E-04   4.0781229E+05   -1.7836085E+00
   1.7302906E-04   4.0447517E+05   -1.7830427E+00
   1.7382813E-04   4.0116642E+05   -1.7824767E+00
   1.7463089E-04   3.9788576E+05   -1.7819103E+00
   1.7543735E-04   3.9463297E+05   -1.7813435E+00
   1.7624754E-04   3.9140779E+05   -1.7807764E+00
   1.7706147E-04   3.8820998E+05   -1.7802090E+00
   1.7787916E-04   3.8503930E+05   -1.7796413E+00
   1.7870062E-04   3.8189552E+05   -1.7790733E+00
   1.7952588E-04   3.7877840E+05   -1.7785050E+00
   1.8035495E-04   3.7568771E+05   -1.7779363E+00
   1.8118785E-04   3.7262321E+05   -1.7773674E+00
   1.8202459E-04   3.6958468E+05   -1.7767982E+00
   1.8286520E-04   3.6657189E+05   -1.7762287E+00
   1.8370969E-04   3.6358461E+05   -1.7756590E+00
   1.8455808E-04   3.6062263E+05   -1.7750889E+00
   1.8541039E-04   3.5768571E+05   -1.7745186E+00
   1.8626663E-04   3.5477364E+05   -1.7739481E+00
   1.8712683E-04   3.5188621E+05   -1.7733773E+00
   1.8799100E-04   3.4902319E+05   -1.7728062E+00
   1.8885917E-04   3.4618439E+05   -1.7722349E+00
   1.8973134E-04   3.4336957E+05   -1.7716634E+00
   1.9060754E-04   3.4057854E+05   -1.7710916E+00
   1.9148778E-04   3.3781108E+05   -1.7705196E+00
   1.9237209E-04   3.3506700E+05   -1.7699474E+00
   1.9326049E-04   3.3234608E+05   -1.7693750E+00
   1.9415299E-04   3.2964813E+05   -1.7688024E+00
   1.9504960E-04   3.2697294E+05   -1.7682296E+00
   1.9595036E-04   3.2432032E+05   -1.7676566E+00
   1.9685528E-04   3.2169007E+05   -1.7670834E+00
   1.9776438E-04   3.1908199E+05   -1.7665100E+00
   1.9867768E-04   3.1649589E+05   -1.7659365E+00
   1.9959519E-04   3.1393158E+05   -1.7653628E+00
   2.0051694E-04   3.1138888E+05   -1.7647889E+00
   2.0144295E-04   3.0886758E+05   -1.7642149E+00
   2.0237324E-04   3.0636751E+05   -1.7636407E+00
   2.0330782E-04   3.0388848E+05   -1.7630664E+00
   2.0424671E-04   3.0143030E+05   -1.7624919E+00
   2.0518995E-04   2.9899280E+05   -1.7619173E+00
   2.0613754E-04   2.9657580E+05   -1.7613426E+00
   2.0708950E-04   2.9417912E+05   -1.7607677E+00
   2.0804586E-04   2.9180257E+05   -1.7601927E+00
   2.0900664E-04   2.8944600E+05   -1.7596177E+00
   2.0997185E-04   2.8710921E+05   -1.7590425E+00
   2.1094152E-04   2.8479205E+05   -1.7584672E+00
   2.1191567E-04   2.8249433E+05   -1.7578919E+00
   2.1289432E-04   2.8021590E+05   -1.7573164E+00
   2.1387749E-04   2.7795658E+05   -1.7567409E+00
   2.1486520E-04   2.7571621E+05   -1.7561653E+00
   2.1585747E-04   2.7349462E+05   -1.7555897E+00
   2.1685432E-04   2.7129165E+05   -1.7550139E+00
   2.1785578E-04   2.6910714E+05   -1.7544382E+00
   2.1886186E-04   2.6694092E+05   -1.7538624E+00
   2.1987259E-04   2.6479285E+05   -1.7532865E+00
   2.2088798E-04   2.6266276E+05   -1.7527106E+00
   2.2190807E-04   2.6055050E+05   -1.7521347E+00
   2.2293286E-04   2.5845591E+05   -1.7515587E+00
   2.2396239E-04   2.5637884E+05   -1.7509828E+00
   2.2499667E-04   2.5431913E+05   -1.7504068E+00
   2.2603573E-04   2.5227664E+05   -1.7498308E+00
   2.2707958E-04   2.5025122E+05   -1.7492548E+00
   2.2812826E-04   2.4824272E+05   -1.7486789E+00
   2.2918178E-04   2.4625099E+05   -1.7481029E+00
   2.3024017E-04   2.4427589E+05   -1.7475270E+00
   2.3130344E-04   2.4231728E+05   -1.7469511E+00
   2.3237162E-04   2.4037501E+05   -1.7463752E+00
   2.3344474E-04   2.3844894E+05   -1.7457993E+00
   2.3452281E-04   2.3653893E+05   -1.7452235E+00
   2.3560586E-04   2.3464484E+05   -1.7446478E+00
   2.3669392E-04   2.3276653E+05   -1.7440721E+00
   2.3778699E-04   2.3090388E+05   -1.7434965E+00
   2.3888512E-04   2.2905673E+05   -1.7429209E+00
   2.3998831E-04   2.2722497E+05   -1.7423454E+00
   2.4109661E-04   2.2540845E+05   -1.7417700E+00
   2.4221001E-04   2.2360705E+05   -1.7411947E+00
   2.4332857E-04   2.2182063E+05   -1.7406195E+00
   2.4445228E-04   2.2004907E+05   -1.7400444E+00
   2.4558119E-04   2.1829223E+05   -1.7394693E+00
   2.4671531E-04   2.1654999E+05   -1.7388944E+00
   2.4785467E-04   2.1482223E+05   -1.7383196E+00
   2.4899928E-04   2.1310881E+05   -1.7377450E+00
   2.5014919E-04   2.1140963E+05   -1.7371704E+00
   2.5130440E-04   2.0972454E+05   -1.7365960E+00
   2.5246495E-04   2.0805344E+05   -1.7360218E+00
   2.5363086E-04   2.0639620E+05   -1.7354477E+00
   2.5480216E-04   2.0475270E+05   -1.7348737E+00
   2.5597886E-04   2.0312283E+05   -1.7342999E+00
   2.5716100E-04   2.0150646E+05   -1.7337263E+00
   2.5834859E-04   1.9990348E+05   -1.7331528E+00
   2.5954168E-04   1.9831378E+05   -1.7325795E+00
   2.6074027E-04   1.9673724E+05   -1.7320064E+00
   2.6194439E-04   1.9517374E+05   -1.7314335E+00
   2.6315408E-04   1.9362319E+05   -1.7308608E+00
   2.6436935E-04   1.9208546E+05   -1.7302883E+00
   2.6559024E-04   1.9056044E+05   -1.7297160E+00
   2.6681676E-04   1.8904803E+05   -1.7291439E+00
   2.6804895E-04   1.8754812E+05   -1.7285720E+00
   2.6928683E-04   1.8606060E+05   -1.7280004E+00
   2.7053042E-04   1.8458536E+05   -1.7274289E+00
   2.7177976E-04   1.8312230E+05   -1.7268578E+00
   2.7303487E-04   1.8167132E+05   -1.7262868E+00
   2.7429577E-04   1.8023231E+05   -1.7257161E+00
   2.7556250E-04   1.7880516E+05   -1.7251457E+00
   2.7683507E-04   1.7738979E+05   -1.7245755E+00
   2.7811353E-04   1.7598607E+05   -1.7240056E+00
   2.7939788E-04   1.7459393E+05   -1.7234360E+00
   2.8068817E-04   1.7321325E+05   -1.7228666E+00
   2.8198442E-04   1.7184394E+05   -1.7222976E+00
   2.8328665E-04   1.7048590E+05   -1.7217288E+00
   2.8459490E-04   1.6913904E+05   -1.7211603E+00
   2.8590919E-04   1.6780326E+05   -1.7205921E+00
   2.8722955E-04   1.6647846E+05   -1.7200243E+00
   2.8855600E-04   1.6516455E+05   -1.7194567E+00
   2.8988859E-04   1.6386145E+05   -1.7188895E+00
   2.9122732E-04   1.6256904E+05   -1.7183225E+00
   2.9257224E-04   1.6128726E+05   -1.7177559E+00
   2.9392337E-04   1.6001599E+05   -1.7171897E+00
   2.9528074E-04   1.5875516E+05   -1.7166238E+00
   2.9664438E-04   1.5750468E+05   -1.7160582E+00
   2.9801431E-04   1.5626445E+05   -1.7154930E+00
   2.9939057E-04   1.5503439E+05   -1.7149282E+00
   3.0077319E-04   1.5381442E+05   -1.7143637E+00
   3.0216219E-04   1.5260444E+05   -1.7137996E+00
   3.0355761E-04   1.5140437E+05   -1.7132358E+00
   3.0495947E-04   1.5021413E+05   -1.7126725E+00
   3.0636780E-04   1.4903364E+05   -1.7121095E+00
   3.0778264E-04   1.4786280E+05   -1.7115469E+00
   3.0920401E-04   1.4670155E+05   -1.7109847E+00
   3.1063195E-04   1.4554979E+05   -1.7104230E+00
   3.1206648E-04   1.4440744E+05   -1.7098616E+00
   3.1350764E-04   1.4327443E+05   -1.7093006E+00
   3.1495545E-04   1.4215068E+05   -1.7087401E+00
   3.1640994E-04   1.4103611E+05   -1.7081800E+00
   3.1787116E-04   1.3993064E+05   -1.7076203E+00
   3.1933912E-04   1.3883419E+05   -1.7070611E+00
   3.2081386E-04   1.3774668E+05   -1.7065023E+00
   3.2229541E-04   1.3666805E+05   -1.7059439E+00
   3.2378381E-04   1.3559821E+05   -1.7053860E+00
   3.2527908E-04   1.3453709E+05   -1.7048286E+00
   3.2678125E-04   1.3348462E+05   -1.7042716E+00
   3.2829036E-04   1.3244072E+05   -1.7037151E+00
   3.2980644E-04   1.3140533E+05   -1.7031591E+00
   3.3132952E-04   1.3037836E+05   -1.7026035E+00
   3.3285963E-04   1.2935974E+05   -1.7020485E+00
   3.3439681E-04   1.2834942E+05   -1.7014939E+00
   3.3594109E-04   1.2734731E+05   -1.7009398E+00
   3.3749250E-04   1.2635334E+05   -1.7003862E+00
   3.3905108E-04   1.2536746E+05   -1.6998331E+00
   3.4061685E-04   1.2438958E+05   -1.6992806E+00
   3.4218986E-04   1.2341965E+05   -1.6987285E+00
   3.4377013E-04   1.2245759E+05   -1.6981770E+00
   3.4535769E-04   1.2150333E+05   -1.6976260E+00
   3.4695259E-04   1.2055682E+05   -1.6970755E+00
   3.4855485E-04   1.1961799E+05   -1.6965255E+00
   3.5016452E-04   1.1868677E+05   -1.6959761E+00
   3.5178161E-04   1.1776309E+05   -1.6954273E+00
   3.5340618E-04   1.1684690E+05   -1.6948790E+00
   3.5503824E-04   1.1593813E+05   -1.6943312E+00
   3.5667785E-04   1.1503672E+05   -1.6937841E+00
   3.5832502E-04   1.1414260E+05   -1.6932374E+00
   3.5997981E-04   1.1325572E+05   -1.6926914E+00
   3.6164223E-04   1.1237601E+05   -1.6921459E+00
   3.6331233E-04   1.1150342E+05   -1.6916010E+00
   3.6499015E-04   1.1063787E+05   -1.6910567E+00
   3.6667571E-04   1.0977933E+05   -1.6905130E+00
   3.6836906E-04   1.0892771E+05   -1.6899699E+00
   3.7007022E-04   1.0808298E+05   -1.6894274E+00
   3.7177925E-04   1.0724506E+05   -1.6888855E+00
   3.7349616E-04   1.0641390E+05   -1.6883442E+00
   3.7522101E-04   1.0558945E+05   -1.6878035E+00
   3.7695382E-04   1.0477165E+05   -1.6872634E+00
   3.7869463E-04   1.0396044E+05   -1.6867240E+00
   3.8044348E-04   1.0315577E+05   -1.6861851E+00
   3.8220041E-04   1.0235758E+05   -1.6856470E+00
   3.8396545E-04   1.0156581E+05   -1.6851094E+00
   3.8573864E-04   1.0078042E+05   -1.6845725E+00
   3.8752002E-04   1.0000136E+05   -1.6840362E+00
   3.8930963E-04   9.9228555E+04   -1.6835006E+00
   3.9110750E-04   9.8461970E+04   -1.6829657E+00
   3.9291368E-04   9.7701547E+04   -1.6824314E+00
   3.9472820E-04   9.6947235E+04   -1.6818977E+00
   3.9655109E-04   9.6198983E+04   -1.6813648E+00
   3.9838241E-04   9.5456741E+04   -1.6808325E+00
   4.0022218E-04   9.4720457E+04   -1.6803009E+00
   4.0207045E-04   9.3990083E+04   -1.6797699E+00
   4.0392725E-04   9.3265569E+04   -1.6792397E+00
   4.0579263E-04   9.2546866E+04   -1.6787101E+00
   4.0766662E-04   9.1833925E+04   -1.6781813E+00
   4.0954927E-04   9.1126698E+04   -1.6776531E+00
   4.1144061E-04   9.0425137E+04   -1.6771257E+00
   4.1334068E-04   8.9729196E+04   -1.6765989E+00
   4.1524953E-04   8.9038826E+04   -1.6760729E+00
   4.1716720E-04   8.8353982E+04   -1.6755476E+00
   4.1909372E-04   8.7674618E+04   -1.6750230E+00
   4.2102914E-04   8.7000687E+04   -1.6744991E+00
   4.2297350E-04   8.6332145E+04   -1.6739759E+00
   4.2492683E-04   8.5668947E+04   -1.6734535E+00
   4.2688919E-04   8.5011048E+04   -1.6729318E+00
   4.2886061E-04   8.4358404E+04   -1.6724109E+00
   4.3084113E-04   8.3710971E+04   -1.6718907E+00
   4.3283080E-04   8.3068706E+04   -1.6713712E+00
   4.3482966E-04   8.2431566E+04   -1.6708525E+00
   4.3683775E-04   8.1799508E+04   -1.6703346E+00
   4.3885511E-04   8.1172490E+04   -1.6698174E+00
   4.4088179E-04   8.0550471E+04   -1.6693010E+00
   4.4291783E-04   7.9933407E+04   -1.6687853E+00
   4.4496327E-04   7.9321259E+04   -1.6682704E+00
   4.4701816E-04   7.8713986E+04   -1.6677563E+00
   4.4908253E-04   7.8111547E+04   -1.6672430E+00
   4.5115644E-04   7.7513901E+04   -1.6667304E+00
   4.5323993E-04   7.6921010E+04   -1.6662187E+00
   4.5533304E-04   7.6332834E+04   -1.6657077E+00
   4.5743582E-04   7.5749334E+04   -1.6651975E+00
   4.5954830E-04   7.5170470E+04   -1.6646881E+00
   4.6167054E-04   7.4596205E+04   -1.6641795E+00
   4.6380259E-04   7.4026500E+04   -1.6636717E+00
   4.6594448E-04   7.3461318E+04   -1.6631647E+00
   4.6809626E-04   7.2900621E+04   -1.6626586E+00
   4.7025797E-04   7.2344373E+04   -1.6621532E+00
   4.7242967E-04   7.1792535E+04   -1.6616487E+00
   4.7461140E-04   7.1245073E+04   -1.6611450E+00
   4.7680321E-04   7.0701949E+04   -1.6606421E+00
   4.7900514E-04   7.0163128E+04   -1.6601400E+00
   4.8121723E-04   6.9628574E+04   -1.6596387E+00
   4.8343954E-04   6.9098253E+04   -1.6591383E+00
   4.8567212E-04   6.8572128E+04   -1.6586388E+00
   4.8791500E-04   6.8050166E+04   -1.6581400E+00
   4.9016825E-04   6.7532333E+04   -1.6576421E+00
   4.9243189E-04   6.7018593E+04   -1.6571451E+00
   4.9470600E-04   6.6508914E+04   -1.6566489E+00
   4.9699060E-04   6.6003261E+04   -1.6561536E+00
   4.9928575E-04   6.5501603E+04   -1.6556591E+00
   5.0159151E-04   6.5003905E+04   -1.6551655E+00
   5.0390791E-04   6.4510135E+04   -1.6546727E+00
   5.0623501E-04   6.4020261E+04   -1.6541808E+00
   5.0857286E-04   6.3534251E+04   -1.6536898E+00
   5.1092150E-04   6.3052073E+04   -1.6531996E+00
   5.1328099E-04   6.2573696E+04   -1.6527103E+00
   5.1565137E-04   6.2099088E+04   -1.6522219E+00
   5.1803270E-04   6.1628219E+04   -1.6517343E+00
   5.2042503E-04   6.1161057E+04   -1.6512477E+00
   5.2282841E-04   6.0697572E+04   -1.6507619E+00
   5.2524289E-04   6.0237735E+04   -1.6502770E+00
   5.2766851E-04   5.9781514E+04   -1.6497930E+00
   5.3010534E-04   5.9328881E+04   -1.6493099E+00
   5.3255342E-04   5.8879806E+04   -1.6488277E+00
   5.3501281E-04   5.8434260E+04   -1.6483464E+00
   5.3748356E-04   5.7992213E+04   -1.6478660E+00
   5.3996571E-04   5.7553638E+04   -1.6473865E+00
   5.4245933E-04   5.7118506E+04   -1.6469079E+00
   5.4496446E-04   5.6686789E+04   -1.6464302E+00
   5.4748117E-04   5.6258458E+04   -1.6459534E+00
   5.5000949E-04   5.5833487E+04   -1.6454775E+00
   5.5254949E-04   5.5411847E+04   -1.6450025E+00
   5.5510123E-04   5.4993511E+04   -1.6445285E+00
   5.5766474E-04   5.4578453E+04   -1.6440554E+00
   5.6024010E-04   5.4166645E+04   -1.6435832E+00
   5.6282734E-04   5.3758061E+04   -1.6431119E+00
   5.6542654E-04   5.3352675E+04   -1.6426415E+00
   5.6803774E-04   5.2950461E+04   -1.6421721E+00
   5.7066099E-04   5.2551392E+04   -1.6417036E+00
   5.7329637E-04   5.2155443E+04   -1.6412361E+00
   5.7594391E-04   5.1762590E+04   -1.6407695E+00
   5.7860368E-04   5.1372805E+04   -1.6403038E+00
   5.8127573E-04   5.0986065E+04   -1.6398390E+00
   5.8396012E-04   5.0602345E+04   -1.6393752E+00
   5.8665691E-04   5.0221620E+04   -1.6389124E+00
   5.8936616E-04   4.9843865E+04   -1.6384504E+00
   5.9208791E-04   4.9469058E+04   -1.6379895E+00
   5.9482223E-04   4.9097172E+04   -1.6375295E+00
   5.9756919E-04   4.8728186E+04   -1.6370704E+00
   6.0032882E-04   4.8362074E+04   -1.6366123E+00
   6.0310120E-04   4.7998815E+04   -1.6361551E+00
   6.0588639E-04   4.7638384E+04   -1.6356989E+00
   6.0868443E-04   4.7280760E+04   -1.6352437E+00
   6.1149540E-04   4.6925918E+04   -1.6347894E+00
   6.1431935E-04   4.6573837E+04   -1.6343361E+00
   6.1715634E-04   4.6224494E+04   -1.6338837E+00
   6.2000644E-04   4.5877866E+04   -1.6334324E+00
   6.2286969E-04   4.5533933E+04   -1.6329819E+00
