#        a       HoverH0(a)       dlogHdloga_of_a(a)
   1.0000000E-04   1.1121298E+06   -1.8630385E+00
   1.0046181E-04   1.1026254E+06   -1.8625798E+00
   1.0092575E-04   1.0932045E+06   -1.8621202E+00
   1.0139184E-04   1.0838665E+06   -1.8616596E+00
   1.0186008E-04   1.0746105E+06   -1.8611981E+00
   1.0233048E-04   1.0654358E+06   -1.8607356E+00
   1.0280305E-04   1.0563416E+06   -1.8602722E+00
   1.0327781E-04   1.0473274E+06   -1.8598078E+00
   1.0375475E-04   1.0383923E+06   -1.8593425E+00
   1.0423390E-04   1.0295356E+06   -1.8588762E+00
   1.0471527E-04   1.0207567E+06   -1.8584091E+00
   1.0519885E-04   1.0120548E+06   -1.8579409E+00
   1.0568467E-04   1.0034292E+06   -1.8574719E+00
   1.0617274E-04   9.9487934E+05   -1.8570019E+00
   1.0666305E-04   9.8640445E+05   -1.8565310E+00
   1.0715563E-04   9.7800387E+05   -1.8560592E+00
   1.0765049E-04   9.6967695E+05   -1.8555864E+00
   1.0814763E-04   9.6142302E+05   -1.8551127E+00
   1.0864707E-04   9.5324143E+05   -1.8546381E+00
   1.0914881E-04   9.4513154E+05   -1.8541626E+00
   1.0965287E-04   9.3709269E+05   -1.8536862E+00
   1.1015926E-04   9.2912426E+05   -1.8532089E+00
   1.1066799E-04   9.2122562E+05   -1.8527306E+00
   1.1117906E-04   9.1339614E+05   -1.8522515E+00
   1.1169250E-04   9.0563520E+05   -1.8517714E+00
   1.1220831E-04   8.9794220E+05   -1.8512905E+00
   1.1272650E-04   8.9031651E+05   -1.8508086E+00
   1.1324708E-04   8.8275755E+05   -1.8503259E+00
   1.1377007E-04   8.7526472E+05   -1.8498422E+00
   1.1429547E-04   8.6783742E+05   -1.8493577E+00
   1.1482330E-04   8.6047507E+05   -1.8488722E+00
   1.1535356E-04   8.5317709E+05   -1.8483859E+00
   1.1588628E-04   8.4594291E+05   -1.8478987E+00
   1.1642145E-04   8.3877194E+05   -1.8474107E+00
   1.1695910E-04   8.3166364E+05   -1.8469217E+00
   1.1749923E-04   8.2461744E+05   -1.8464319E+00
   1.1804185E-04   8.1763278E+05   -1.8459412E+00
   1.1858698E-04   8.1070911E+05   -1.8454496E+00
   1.1913463E-04   8.0384590E+05   -1.8449572E+00
   1.1968481E-04   7.9704260E+05   -1.8444639E+00
   1.2023752E-04   7.9029868E+05   -1.8439698E+00
   1.2079279E-04   7.8361360E+05   -1.8434748E+00
   1.2135063E-04   7.7698685E+05   -1.8429789E+00
   1.2191104E-04   7.7041790E+05   -1.8424822E+00
   1.2247403E-04   7.6390624E+05   -1.8419846E+00
   1.2303963E-04   7.5745135E+05   -1.8414862E+00
   1.2360784E-04   7.5105273E+05   -1.8409870E+00
   1.2417868E-04   7.4470987E+05   -1.8404869E+00
   1.2475215E-04   7.3842229E+05   -1.8399860E+00
   1.2532826E-04   7.3218948E+05   -1.8394842E+00
   1.2590704E-04   7.2601096E+05   -1.8389816E+00
   1.2648850E-04   7.1988625E+05   -1.8384782E+00
   1.2707263E-04   7.1381486E+05   -1.8379740E+00
   1.2765947E-04   7.0779633E+05   -1.8374690E+00
   1.2824901E-04   7.0183017E+05   -1.8369631E+00
   1.2884128E-04   6.9591593E+05   -1.8364564E+00
   1.2943628E-04   6.9005314E+05   -1.8359489E+00
   1.3003403E-04   6.8424134E+05   -1.8354407E+00
   1.3063454E-04   6.7848008E+05   -1.8349316E+00
   1.3123783E-04   6.7276891E+05   -1.8344217E+00
   1.3184390E-04   6.6710738E+05   -1.8339110E+00
   1.3245277E-04   6.6149505E+05   -1.8333996E+00
   1.3306445E-04   6.5593149E+05   -1.8328873E+00
   1.3367895E-04   6.5041625E+05   -1.8323743E+00
   1.3429630E-04   6.4494891E+05   -1.8318604E+00
   1.3491649E-04   6.3952905E+05   -1.8313459E+00
   1.3553955E-04   6.3415623E+05   -1.8308305E+00
   1.3616548E-04   6.2883006E+05   -1.8303144E+00
   1.3679431E-04   6.2355009E+05   -1.8297975E+00
   1.3742604E-04   6.1831594E+05   -1.8292798E+00
   1.3806069E-04   6.1312718E+05   -1.8287614E+00
   1.3869827E-04   6.0798342E+05   -1.8282422E+00
   1.3933879E-04   6.0288426E+05   -1.8277223E+00
   1.3998227E-04   5.9782929E+05   -1.8272016E+00
   1.4062872E-04   5.9281814E+05   -1.8266802E+00
   1.4127816E-04   5.8785040E+05   -1.8261581E+00
   1.4193060E-04   5.8292569E+05   -1.8256352E+00
   1.4258605E-04   5.7804363E+05   -1.8251116E+00
   1.4324453E-04   5.7320385E+05   -1.8245873E+00
   1.4390605E-04   5.6840596E+05   -1.8240622E+00
   1.4457062E-04   5.6364959E+05   -1.8235364E+00
   1.4523826E-04   5.5893439E+05   -1.8230100E+00
   1.4590899E-04   5.5425997E+05   -1.8224828E+00
   1.4658281E-04   5.4962598E+05   -1.8219549E+00
   1.4725974E-04   5.4503206E+05   -1.8214263E+00
   1.4793981E-04   5.4047785E+05   -1.8208970E+00
   1.4862301E-04   5.3596301E+05   -1.8203670E+00
   1.4930936E-04   5.3148718E+05   -1.8198363E+00
   1.4999889E-04   5.2705002E+05   -1.8193050E+00
   1.5069160E-04   5.2265118E+05   -1.8187729E+00
   1.5138751E-04   5.1829032E+05   -1.8182402E+00
   1.5208663E-04   5.1396712E+05   -1.8177068E+00
   1.5278899E-04   5.0968122E+05   -1.8171728E+00
   1.5349458E-04   5.0543232E+05   -1.8166381E+00
   1.5420343E-04   5.0122007E+05   -1.8161027E+00
   1.5491556E-04   4.9704415E+05   -1.8155667E+00
   1.5563098E-04   4.9290424E+05   -1.8150300E+00
   1.5634970E-04   4.8880002E+05   -1.8144927E+00
   1.5707174E-04   4.8473117E+05   -1.8139547E+00
   1.5779711E-04   4.8069739E+05   -1.8134161E+00
   1.5852584E-04   4.7669836E+05   -1.8128769E+00
   1.5925792E-04   4.7273377E+05   -1.8123371E+00
   1.5999339E-04   4.6880332E+05   -1.8117966E+00
   1.6073226E-04   4.6490671E+05   -1.8112555E+00
   1.6147454E-04   4.6104364E+05   -1.8107138E+00
   1.6222024E-04   4.5721381E+05   -1.8101715E+00
   1.6296939E-04   4.5341693E+05   -1.8096286E+00
   1.6372200E-04   4.4965270E+05   -1.8090852E+00
   1.6447809E-04   4.4592084E+05   -1.8085411E+00
   1.6523767E-04   4.4222106E+05   -1.8079964E+00
   1.6600075E-04   4.3855308E+05   -1.8074511E+00
   1.6676736E-04   4.3491662E+05   -1.8069053E+00
   1.6753751E-04   4.3131139E+05   -1.8063589E+00
   1.6831122E-04   4.2773713E+05   -1.8058119E+00
   1.6908849E-04   4.2419356E+05   -1.8052644E+00
   1.6986936E-04   4.2068040E+05   -1.8047163E+00
   1.7065384E-04   4.1719740E+05   -1.8041676E+00
   1.7144193E-04   4.1374428E+05   -1.8036184E+00
   1.7223367E-04   4.1032078E+05   -1.8030687E+00
   1.7302906E-04   4.0692664E+05   -1.8025184E+00
   1.7382813E-04   4.0356160E+05   -1.8019676E+00
   1.7463089E-04   4.0022540E+05   -1.8014162E+00
   1.7543735E-04   3.9691779E+05   -1.8008643E+00
   1.7624754E-04   3.9363852E+05   -1.8003120E+00
   1.7706147E-04   3.9038733E+05   -1.7997591E+00
   1.7787916E-04   3.8716398E+05   -1.7992057E+00
   1.7870062E-04   3.8396823E+05   -1.7986518E+00
   1.7952588E-04   3.8079983E+05   -1.7980973E+00
   1.8035495E-04   3.7765853E+05   -1.7975425E+00
   1.8118785E-04   3.7454411E+05   -1.7969871E+00
   1.8202459E-04   3.7145633E+05   -1.7964312E+00
   1.8286520E-04   3.6839494E+05   -1.7958749E+00
   1.8370969E-04   3.6535972E+05   -1.7953181E+00
   1.8455808E-04   3.6235044E+05   -1.7947608E+00
   1.8541039E-04   3.5936687E+05   -1.7942030E+00
   1.8626663E-04   3.5640878E+05   -1.7936448E+00
   1.8712683E-04   3.5347595E+05   -1.7930862E+00
   1.8799100E-04   3.5056815E+05   -1.7925271E+00
   1.8885917E-04   3.4768517E+05   -1.7919676E+00
   1.8973134E-04   3.4482679E+05   -1.7914076E+00
   1.9060754E-04   3.4199279E+05   -1.7908473E+00
   1.9148778E-04   3.3918296E+05   -1.7902864E+00
   1.9237209E-04   3.3639709E+05   -1.7897252E+00
   1.9326049E-04   3.3363496E+05   -1.7891636E+00
   1.9415299E-04   3.3089636E+05   -1.7886015E+00
   1.9504960E-04   3.2818110E+05   -1.7880391E+00
   1.9595036E-04   3.2548896E+05   -1.7874763E+00
   1.9685528E-04   3.2281974E+05   -1.7869130E+00
   1.9776438E-04   3.2017324E+05   -1.7863494E+00
   1.9867768E-04   3.1754926E+05   -1.7857854E+00
   1.9959519E-04   3.1494761E+05   -1.7852211E+00
   2.0051694E-04   3.1236809E+05   -1.7846564E+00
   2.0144295E-04   3.0981049E+05   -1.7840913E+00
   2.0237324E-04   3.0727464E+05   -1.7835258E+00
   2.0330782E-04   3.0476034E+05   -1.7829600E+00
   2.0424671E-04   3.0226740E+05   -1.7823939E+00
   2.0518995E-04   2.9979564E+05   -1.7818274E+00
   2.0613754E-04   2.9734486E+05   -1.7812606E+00
   2.0708950E-04   2.9491489E+05   -1.7806935E+00
   2.0804586E-04   2.9250554E+05   -1.7801260E+00
   2.0900664E-04   2.9011664E+05   -1.7795583E+00
   2.0997185E-04   2.8774800E+05   -1.7789902E+00
   2.1094152E-04   2.8539944E+05   -1.7784218E+00
   2.1191567E-04   2.8307079E+05   -1.7778531E+00
   2.1289432E-04   2.8076188E+05   -1.7772841E+00
   2.1387749E-04   2.7847254E+05   -1.7767149E+00
   2.1486520E-04   2.7620258E+05   -1.7761453E+00
   2.1585747E-04   2.7395185E+05   -1.7755755E+00
   2.1685432E-04   2.7172017E+05   -1.7750054E+00
   2.1785578E-04   2.6950738E+05   -1.7744351E+00
   2.1886186E-04   2.6731331E+05   -1.7738645E+00
   2.1987259E-04   2.6513780E+05   -1.7732936E+00
   2.2088798E-04   2.6298069E+05   -1.7727225E+00
   2.2190807E-04   2.6084182E+05   -1.7721512E+00
   2.2293286E-04   2.5872102E+05   -1.7715796E+00
   2.2396239E-04   2.5661814E+05   -1.7710078E+00
   2.2499667E-04   2.5453303E+05   -1.7704358E+00
   2.2603573E-04   2.5246552E+05   -1.7698635E+00
   2.2707958E-04   2.5041546E+05   -1.7692911E+00
   2.2812826E-04   2.4838271E+05   -1.7687184E+00
   2.2918178E-04   2.4636711E+05   -1.7681455E+00
   2.3024017E-04   2.4436851E+05   -1.7675725E+00
   2.3130344E-04   2.4238677E+05   -1.7669993E+00
   2.3237162E-04   2.4042173E+05   -1.7664259E+00
   2.3344474E-04   2.3847325E+05   -1.7658523E+00
   2.3452281E-04   2.3654119E+05   -1.7652785E+00
   2.3560586E-04   2.3462540E+05   -1.7647046E+00
   2.3669392E-04   2.3272574E+05   -1.7641305E+00
   2.3778699E-04   2.3084207E+05   -1.7635563E+00
   2.3888512E-04   2.2897426E+05   -1.7629819E+00
   2.3998831E-04   2.2712216E+05   -1.7624074E+00
   2.4109661E-04   2.2528564E+05   -1.7618328E+00
   2.4221001E-04   2.2346456E+05   -1.7612580E+00
   2.4332857E-04   2.2165879E+05   -1.7606832E+00
   2.4445228E-04   2.1986819E+05   -1.7601082E+00
   2.4558119E-04   2.1809263E+05   -1.7595331E+00
   2.4671531E-04   2.1633199E+05   -1.7589579E+00
   2.4785467E-04   2.1458613E+05   -1.7583826E+00
   2.4899928E-04   2.1285492E+05   -1.7578072E+00
   2.5014919E-04   2.1113824E+05   -1.7572317E+00
   2.5130440E-04   2.0943596E+05   -1.7566562E+00
   2.5246495E-04   2.0774796E+05   -1.7560805E+00
   2.5363086E-04   2.0607410E+05   -1.7555049E+00
   2.5480216E-04   2.0441428E+05   -1.7549291E+00
   2.5597886E-04   2.0276836E+05   -1.7543533E+00
   2.5716100E-04   2.0113623E+05   -1.7537775E+00
   2.5834859E-04   1.9951777E+05   -1.7532016E+00
   2.5954168E-04   1.9791285E+05   -1.7526257E+00
   2.6074027E-04   1.9632136E+05   -1.7520497E+00
   2.6194439E-04   1.9474319E+05   -1.7514738E+00
   2.6315408E-04   1.9317822E+05   -1.7508978E+00
   2.6436935E-04   1.9162633E+05   -1.7503218E+00
   2.6559024E-04   1.9008742E+05   -1.7497458E+00
   2.6681676E-04   1.8856136E+05   -1.7491698E+00
   2.6804895E-04   1.8704805E+05   -1.7485938E+00
   2.6928683E-04   1.8554738E+05   -1.7480178E+00
   2.7053042E-04   1.8405924E+05   -1.7474419E+00
   2.7177976E-04   1.8258352E+05   -1.7468660E+00
   2.7303487E-04   1.8112011E+05   -1.7462901E+00
   2.7429577E-04   1.7966890E+05   -1.7457142E+00
   2.7556250E-04   1.7822980E+05   -1.7451384E+00
   2.7683507E-04   1.7680269E+05   -1.7445627E+00
   2.7811353E-04   1.7538747E+05   -1.7439870E+00
   2.7939788E-04   1.7398405E+05   -1.7434113E+00
   2.8068817E-04   1.7259231E+05   -1.7428358E+00
   2.8198442E-04   1.7121216E+05   -1.7422603E+00
   2.8328665E-04   1.6984349E+05   -1.7416849E+00
   2.8459490E-04   1.6848622E+05   -1.7411095E+00
   2.8590919E-04   1.6714023E+05   -1.7405343E+00
   2.8722955E-04   1.6580543E+05   -1.7399592E+00
   2.8855600E-04   1.6448173E+05   -1.7393842E+00
   2.8988859E-04   1.6316903E+05   -1.7388093E+00
   2.9122732E-04   1.6186724E+05   -1.7382345E+00
   2.9257224E-04   1.6057626E+05   -1.7376598E+00
   2.9392337E-04   1.5929599E+05   -1.7370853E+00
   2.9528074E-04   1.5802635E+05   -1.7365109E+00
   2.9664438E-04   1.5676724E+05   -1.7359366E+00
   2.9801431E-04   1.5551858E+05   -1.7353625E+00
   2.9939057E-04   1.5428027E+05   -1.7347885E+00
   3.0077319E-04   1.5305223E+05   -1.7342147E+00
   3.0216219E-04   1.5183436E+05   -1.7336411E+00
   3.0355761E-04   1.5062659E+05   -1.7330676E+00
   3.0495947E-04   1.4942881E+05   -1.7324944E+00
   3.0636780E-04   1.4824095E+05   -1.7319213E+00
   3.0778264E-04   1.4706292E+05   -1.7313484E+00
   3.0920401E-04   1.4589464E+05   -1.7307757E+00
   3.1063195E-04   1.4473602E+05   -1.7302031E+00
   3.1206648E-04   1.4358698E+05   -1.7296309E+00
   3.1350764E-04   1.4244743E+05   -1.7290588E+00
   3.1495545E-04   1.4131731E+05   -1.7284869E+00
   3.1640994E-04   1.4019652E+05   -1.7279153E+00
   3.1787116E-04   1.3908498E+05   -1.7273439E+00
   3.1933912E-04   1.3798262E+05   -1.7267727E+00
   3.2081386E-04   1.3688936E+05   -1.7262018E+00
   3.2229541E-04   1.3580512E+05   -1.7256311E+00
   3.2378381E-04   1.3472982E+05   -1.7250607E+00
   3.2527908E-04   1.3366338E+05   -1.7244905E+00
   3.2678125E-04   1.3260573E+05   -1.7239206E+00
   3.2829036E-04   1.3155680E+05   -1.7233510E+00
   3.2980644E-04   1.3051651E+05   -1.7227817E+00
   3.3132952E-04   1.2948478E+05   -1.7222126E+00
   3.3285963E-04   1.2846155E+05   -1.7216439E+00
   3.3439681E-04   1.2744673E+05   -1.7210754E+00
   3.3594109E-04   1.2644027E+05   -1.7205073E+00
   3.3749250E-04   1.2544208E+05   -1.7199394E+00
   3.3905108E-04   1.2445209E+05   -1.7193719E+00
   3.4061685E-04   1.2347025E+05   -1.7188046E+00
   3.4218986E-04   1.2249646E+05   -1.7182377E+00
   3.4377013E-04   1.2153068E+05   -1.7176712E+00
   3.4535769E-04   1.2057282E+05   -1.7171050E+00
   3.4695259E-04   1.1962283E+05   -1.7165391E+00
   3.4855485E-04   1.1868063E+05   -1.7159735E+00
   3.5016452E-04   1.1774616E+05   -1.7154084E+00
   3.5178161E-04   1.1681935E+05   -1.7148435E+00
   3.5340618E-04   1.1590013E+05   -1.7142791E+00
   3.5503824E-04   1.1498845E+05   -1.7137150E+00
   3.5667785E-04   1.1408424E+05   -1.7131513E+00
   3.5832502E-04   1.1318743E+05   -1.7125880E+00
   3.5997981E-04   1.1229796E+05   -1.7120250E+00
   3.6164223E-04   1.1141577E+05   -1.7114625E+00
   3.6331233E-04   1.1054080E+05   -1.7109003E+00
   3.6499015E-04   1.0967298E+05   -1.7103386E+00
   3.6667571E-04   1.0881226E+05   -1.7097773E+00
   3.6836906E-04   1.0795857E+05   -1.7092163E+00
   3.7007022E-04   1.0711185E+05   -1.7086558E+00
   3.7177925E-04   1.0627205E+05   -1.7080958E+00
   3.7349616E-04   1.0543911E+05   -1.7075361E+00
   3.7522101E-04   1.0461296E+05   -1.7069769E+00
   3.7695382E-04   1.0379356E+05   -1.7064182E+00
   3.7869463E-04   1.0298084E+05   -1.7058599E+00
   3.8044348E-04   1.0217474E+05   -1.7053020E+00
   3.8220041E-04   1.0137522E+05   -1.7047446E+00
   3.8396545E-04   1.0058221E+05   -1.7041877E+00
   3.8573864E-04   9.9795656E+04   -1.7036312E+00
   3.8752002E-04   9.9015510E+04   -1.7030752E+00
   3.8930963E-04   9.8241714E+04   -1.7025197E+00
   3.9110750E-04   9.7474214E+04   -1.7019647E+00
   3.9291368E-04   9.6712958E+04   -1.7014101E+00
   3.9472820E-04   9.5957891E+04   -1.7008561E+00
   3.9655109E-04   9.5208963E+04   -1.7003025E+00
   3.9838241E-04   9.4466121E+04   -1.6997495E+00
   4.0022218E-04   9.3729313E+04   -1.6991970E+00
   4.0207045E-04   9.2998489E+04   -1.6986450E+00
   4.0392725E-04   9.2273598E+04   -1.6980935E+00
   4.0579263E-04   9.1554590E+04   -1.6975425E+00
   4.0766662E-04   9.0841415E+04   -1.6969921E+00
   4.0954927E-04   9.0134024E+04   -1.6964422E+00
   4.1144061E-04   8.9432367E+04   -1.6958929E+00
   4.1334068E-04   8.8736398E+04   -1.6953441E+00
   4.1524953E-04   8.8046066E+04   -1.6947958E+00
   4.1716720E-04   8.7361326E+04   -1.6942481E+00
   4.1909372E-04   8.6682130E+04   -1.6937010E+00
   4.2102914E-04   8.6008431E+04   -1.6931544E+00
   4.2297350E-04   8.5340183E+04   -1.6926084E+00
   4.2492683E-04   8.4677339E+04   -1.6920630E+00
   4.2688919E-04   8.4019855E+04   -1.6915182E+00
   4.2886061E-04   8.3367686E+04   -1.6909739E+00
   4.3084113E-04   8.2720786E+04   -1.6904303E+00
   4.3283080E-04   8.2079111E+04   -1.6898872E+00
   4.3482966E-04   8.1442617E+04   -1.6893448E+00
   4.3683775E-04   8.0811261E+04   -1.6888029E+00
   4.3885511E-04   8.0184999E+04   -1.6882617E+00
   4.4088179E-04   7.9563789E+04   -1.6877210E+00
   4.4291783E-04   7.8947588E+04   -1.6871810E+00
   4.4496327E-04   7.8336355E+04   -1.6866416E+00
   4.4701816E-04   7.7730046E+04   -1.6861029E+00
   4.4908253E-04   7.7128622E+04   -1.6855647E+00
   4.5115644E-04   7.6532040E+04   -1.6850273E+00
   4.5323993E-04   7.5940262E+04   -1.6844904E+00
   4.5533304E-04   7.5353245E+04   -1.6839542E+00
   4.5743582E-04   7.4770951E+04   -1.6834187E+00
   4.5954830E-04   7.4193339E+04   -1.6828838E+00
   4.6167054E-04   7.3620371E+04   -1.6823495E+00
   4.6380259E-04   7.3052007E+04   -1.6818160E+00
   4.6594448E-04   7.2488209E+04   -1.6812831E+00
   4.6809626E-04   7.1928939E+04   -1.6807508E+00
   4.7025797E-04   7.1374159E+04   -1.6802193E+00
   4.7242967E-04   7.0823831E+04   -1.6796884E+00
   4.7461140E-04   7.0277918E+04   -1.6791583E+00
   4.7680321E-04   6.9736384E+04   -1.6786288E+00
   4.7900514E-04   6.9199190E+04   -1.6781000E+00
   4.8121723E-04   6.8666303E+04   -1.6775719E+00
   4.8343954E-04   6.8137684E+04   -1.6770445E+00
   4.8567212E-04   6.7613300E+04   -1.6765178E+00
   4.8791500E-04   6.7093113E+04   -1.6759919E+00
   4.9016825E-04   6.6577090E+04   -1.6754666E+00
   4.9243189E-04   6.6065196E+04   -1.6749421E+00
   4.9470600E-04   6.5557395E+04   -1.6744183E+00
   4.9699060E-04   6.5053655E+04   -1.6738952E+00
   4.9928575E-04   6.4553941E+04   -1.6733728E+00
   5.0159151E-04   6.4058219E+04   -1.6728512E+00
   5.0390791E-04   6.3566457E+04   -1.6723303E+00
   5.0623501E-04   6.3078621E+04   -1.6718102E+00
   5.0857286E-04   6.2594679E+04   -1.6712908E+00
   5.1092150E-04   6.2114599E+04   -1.6707722E+00
   5.1328099E-04   6.1638347E+04   -1.6702543E+00
   5.1565137E-04   6.1165893E+04   -1.6697372E+00
   5.1803270E-04   6.0697205E+04   -1.6692209E+00
   5.2042503E-04   6.0232252E+04   -1.6687053E+00
   5.2282841E-04   5.9771002E+04   -1.6681905E+00
   5.2524289E-04   5.9313425E+04   -1.6676764E+00
   5.2766851E-04   5.8859490E+04   -1.6671632E+00
   5.3010534E-04   5.8409167E+04   -1.6666507E+00
   5.3255342E-04   5.7962426E+04   -1.6661390E+00
   5.3501281E-04   5.7519237E+04   -1.6656281E+00
   5.3748356E-04   5.7079572E+04   -1.6651180E+00
   5.3996571E-04   5.6643400E+04   -1.6646087E+00
   5.4245933E-04   5.6210693E+04   -1.6641002E+00
   5.4496446E-04   5.5781422E+04   -1.6635925E+00
   5.4748117E-04   5.5355559E+04   -1.6630856E+00
   5.5000949E-04   5.4933076E+04   -1.6625795E+00
   5.5254949E-04   5.4513943E+04   -1.6620742E+00
   5.5510123E-04   5.4098135E+04   -1.6615697E+00
   5.5766474E-04   5.3685623E+04   -1.6610661E+00
   5.6024010E-04   5.3276379E+04   -1.6605633E+00
   5.6282734E-04   5.2870378E+04   -1.6600613E+00
   5.6542654E-04   5.2467592E+04   -1.6595601E+00
   5.6803774E-04   5.2067995E+04   -1.6590598E+00
   5.7066099E-04   5.1671560E+04   -1.6585603E+00
   5.7329637E-04   5.1278262E+04   -1.6580617E+00
   5.7594391E-04   5.0888073E+04   -1.6575639E+00
   5.7860368E-04   5.0500970E+04   -1.6570669E+00
   5.8127573E-04   5.0116926E+04   -1.6565708E+00
   5.8396012E-04   4.9735916E+04   -1.6560755E+00
   5.8665691E-04   4.9357916E+04   -1.6555811E+00
   5.8936616E-04   4.8982899E+04   -1.6550876E+00
   5.9208791E-04   4.8610843E+04   -1.6545949E+00
   5.9482223E-04   4.8241721E+04   -1.6541031E+00
   5.9756919E-04   4.7875511E+04   -1.6536121E+00
   6.0032882E-04   4.7512189E+04   -1.6531221E+00
   6.0310120E-04   4.7151730E+04   -1.6526328E+00
   6.0588639E-04   4.6794111E+04   -1.6521445E+00
   6.0868443E-04   4.6439308E+04   -1.6516571E+00
   6.1149540E-04   4.6087300E+04   -1.6511705E+00
   6.1431935E-04   4.5738062E+04   -1.6506848E+00
   6.1715634E-04   4.5391572E+04   -1.6502000E+00
   6.2000644E-04   4.5047807E+04   -1.6497161E+00
   6.2286969E-04   4.4706746E+04   -1.6492331E+00
