#        a       HoverH0(a)       dlogHdloga_of_a(a)
   1.0000000E-04   1.1801303E+06   -1.8721044E+00
   1.0046181E-04   1.1699958E+06   -1.8716654E+00
   1.0092575E-04   1.1599507E+06   -1.8712253E+00
   1.0139184E-04   1.1499942E+06   -1.8707843E+00
   1.0186008E-04   1.1401255E+06   -1.8703423E+00
   1.0233048E-04   1.1303438E+06   -1.8698993E+00
   1.0280305E-04   1.1206483E+06   -1.8694553E+00
   1.0327781E-04   1.1110382E+06   -1.8690104E+00
   1.0375475E-04   1.1015128E+06   -1.8685645E+00
   1.0423390E-04   1.0920713E+06   -1.8681176E+00
   1.0471527E-04   1.0827130E+06   -1.8676697E+00
   1.0519885E-04   1.0734370E+06   -1.8672209E+00
   1.0568467E-04   1.0642428E+06   -1.8667711E+00
   1.0617274E-04   1.0551295E+06   -1.8663203E+00
   1.0666305E-04   1.0460964E+06   -1.8658685E+00
   1.0715563E-04   1.0371428E+06   -1.8654158E+00
   1.0765049E-04   1.0282680E+06   -1.8649621E+00
   1.0814763E-04   1.0194712E+06   -1.8645075E+00
   1.0864707E-04   1.0107519E+06   -1.8640519E+00
   1.0914881E-04   1.0021092E+06   -1.8635953E+00
   1.0965287E-04   9.9354248E+05   -1.8631378E+00
   1.1015926E-04   9.8505110E+05   -1.8626793E+00
   1.1066799E-04   9.7663435E+05   -1.8622199E+00
   1.1117906E-04   9.6829157E+05   -1.8617595E+00
   1.1169250E-04   9.6002210E+05   -1.8612982E+00
   1.1220831E-04   9.5182528E+05   -1.8608359E+00
   1.1272650E-04   9.4370046E+05   -1.8603727E+00
   1.1324708E-04   9.3564698E+05   -1.8599085E+00
   1.1377007E-04   9.2766423E+05   -1.8594434E+00
   1.1429547E-04   9.1975155E+05   -1.8589774E+00
   1.1482330E-04   9.1190833E+05   -1.8585104E+00
   1.1535356E-04   9.0413394E+05   -1.8580425E+00
   1.1588628E-04   8.9642776E+05   -1.8575736E+00
   1.1642145E-04   8.8878918E+05   -1.8571038E+00
   1.1695910E-04   8.8121761E+05   -1.8566331E+00
   1.1749923E-04   8.7371243E+05   -1.8561615E+00
   1.1804185E-04   8.6627305E+05   -1.8556889E+00
   1.1858698E-04   8.5889890E+05   -1.8552155E+00
   1.1913463E-04   8.5158937E+05   -1.8547411E+00
   1.1968481E-04   8.4434390E+05   -1.8542658E+00
   1.2023752E-04   8.3716190E+05   -1.8537895E+00
   1.2079279E-04   8.3004283E+05   -1.8533124E+00
   1.2135063E-04   8.2298610E+05   -1.8528343E+00
   1.2191104E-04   8.1599117E+05   -1.8523554E+00
   1.2247403E-04   8.0905748E+05   -1.8518755E+00
   1.2303963E-04   8.0218447E+05   -1.8513947E+00
   1.2360784E-04   7.9537162E+05   -1.8509131E+00
   1.2417868E-04   7.8861838E+05   -1.8504305E+00
   1.2475215E-04   7.8192423E+05   -1.8499471E+00
   1.2532826E-04   7.7528862E+05   -1.8494627E+00
   1.2590704E-04   7.6871104E+05   -1.8489775E+00
   1.2648850E-04   7.6219097E+05   -1.8484914E+00
   1.2707263E-04   7.5572789E+05   -1.8480043E+00
   1.2765947E-04   7.4932131E+05   -1.8475165E+00
   1.2824901E-04   7.4297071E+05   -1.8470277E+00
   1.2884128E-04   7.3667559E+05   -1.8465381E+00
   1.2943628E-04   7.3043545E+05   -1.8460475E+00
   1.3003403E-04   7.2424982E+05   -1.8455562E+00
   1.3063454E-04   7.1811819E+05   -1.8450639E+00
   1.3123783E-04   7.1204009E+05   -1.8445708E+00
   1.3184390E-04   7.0601504E+05   -1.8440768E+00
   1.3245277E-04   7.0004257E+05   -1.8435820E+00
   1.3306445E-04   6.9412221E+05   -1.8430863E+00
   1.3367895E-04   6.8825348E+05   -1.8425898E+00
   1.3429630E-04   6.8243594E+05   -1.8420924E+00
   1.3491649E-04   6.7666913E+05   -1.8415942E+00
   1.3553955E-04   6.7095258E+05   -1.8410951E+00
   1.3616548E-04   6.6528587E+05   -1.8405952E+00
   1.3679431E-04   6.5966853E+05   -1.8400945E+00
   1.3742604E-04   6.5410014E+05   -1.8395929E+00
   1.3806069E-04   6.4858025E+05   -1.8390905E+00
   1.3869827E-04   6.4310843E+05   -1.8385873E+00
   1.3933879E-04   6.3768425E+05   -1.8380832E+00
   1.3998227E-04   6.3230729E+05   -1.8375783E+00
   1.4062872E-04   6.2697713E+05   -1.8370727E+00
   1.4127816E-04   6.2169335E+05   -1.8365662E+00
   1.4193060E-04   6.1645554E+05   -1.8360588E+00
   1.4258605E-04   6.1126329E+05   -1.8355507E+00
   1.4324453E-04   6.0611619E+05   -1.8350418E+00
   1.4390605E-04   6.0101384E+05   -1.8345321E+00
   1.4457062E-04   5.9595585E+05   -1.8340216E+00
   1.4523826E-04   5.9094181E+05   -1.8335103E+00
   1.4590899E-04   5.8597134E+05   -1.8329982E+00
   1.4658281E-04   5.8104405E+05   -1.8324853E+00
   1.4725974E-04   5.7615956E+05   -1.8319717E+00
   1.4793981E-04   5.7131748E+05   -1.8314572E+00
   1.4862301E-04   5.6651743E+05   -1.8309420E+00
   1.4930936E-04   5.6175905E+05   -1.8304261E+00
   1.4999889E-04   5.5704196E+05   -1.8299093E+00
   1.5069160E-04   5.5236580E+05   -1.8293918E+00
   1.5138751E-04   5.4773019E+05   -1.8288736E+00
   1.5208663E-04   5.4313479E+05   -1.8283546E+00
   1.5278899E-04   5.3857924E+05   -1.8278348E+00
   1.5349458E-04   5.3406317E+05   -1.8273143E+00
   1.5420343E-04   5.2958624E+05   -1.8267930E+00
   1.5491556E-04   5.2514810E+05   -1.8262711E+00
   1.5563098E-04   5.2074841E+05   -1.8257483E+00
   1.5634970E-04   5.1638683E+05   -1.8252249E+00
   1.5707174E-04   5.1206301E+05   -1.8247007E+00
   1.5779711E-04   5.0777662E+05   -1.8241758E+00
   1.5852584E-04   5.0352734E+05   -1.8236502E+00
   1.5925792E-04   4.9931482E+05   -1.8231238E+00
   1.5999339E-04   4.9513874E+05   -1.8225968E+00
   1.6073226E-04   4.9099879E+05   -1.8220690E+00
   1.6147454E-04   4.8689463E+05   -1.8215406E+00
   1.6222024E-04   4.8282596E+05   -1.8210114E+00
   1.6296939E-04   4.7879245E+05   -1.8204816E+00
   1.6372200E-04   4.7479381E+05   -1.8199511E+00
   1.6447809E-04   4.7082970E+05   -1.8194199E+00
   1.6523767E-04   4.6689984E+05   -1.8188880E+00
   1.6600075E-04   4.6300391E+05   -1.8183554E+00
   1.6676736E-04   4.5914162E+05   -1.8178221E+00
   1.6753751E-04   4.5531267E+05   -1.8172882E+00
   1.6831122E-04   4.5151676E+05   -1.8167537E+00
   1.6908849E-04   4.4775360E+05   -1.8162184E+00
   1.6986936E-04   4.4402290E+05   -1.8156825E+00
   1.7065384E-04   4.4032437E+05   -1.8151460E+00
   1.7144193E-04   4.3665773E+05   -1.8146088E+00
   1.7223367E-04   4.3302269E+05   -1.8140710E+00
   1.7302906E-04   4.2941898E+05   -1.8135325E+00
   1.7382813E-04   4.2584632E+05   -1.8129935E+00
   1.7463089E-04   4.2230443E+05   -1.8124537E+00
   1.7543735E-04   4.1879304E+05   -1.8119134E+00
   1.7624754E-04   4.1531189E+05   -1.8113725E+00
   1.7706147E-04   4.1186069E+05   -1.8108309E+00
   1.7787916E-04   4.0843920E+05   -1.8102887E+00
   1.7870062E-04   4.0504714E+05   -1.8097459E+00
   1.7952588E-04   4.0168426E+05   -1.8092026E+00
   1.8035495E-04   3.9835029E+05   -1.8086586E+00
   1.8118785E-04   3.9504499E+05   -1.8081140E+00
   1.8202459E-04   3.9176809E+05   -1.8075689E+00
   1.8286520E-04   3.8851936E+05   -1.8070232E+00
   1.8370969E-04   3.8529853E+05   -1.8064769E+00
   1.8455808E-04   3.8210537E+05   -1.8059300E+00
   1.8541039E-04   3.7893963E+05   -1.8053826E+00
   1.8626663E-04   3.7580106E+05   -1.8048346E+00
   1.8712683E-04   3.7268943E+05   -1.8042861E+00
   1.8799100E-04   3.6960450E+05   -1.8037370E+00
   1.8885917E-04   3.6654603E+05   -1.8031873E+00
   1.8973134E-04   3.6351379E+05   -1.8026372E+00
   1.9060754E-04   3.6050755E+05   -1.8020865E+00
   1.9148778E-04   3.5752708E+05   -1.8015352E+00
   1.9237209E-04   3.5457215E+05   -1.8009835E+00
   1.9326049E-04   3.5164253E+05   -1.8004312E+00
   1.9415299E-04   3.4873801E+05   -1.7998784E+00
   1.9504960E-04   3.4585837E+05   -1.7993251E+00
   1.9595036E-04   3.4300337E+05   -1.7987713E+00
   1.9685528E-04   3.4017281E+05   -1.7982170E+00
   1.9776438E-04   3.3736648E+05   -1.7976622E+00
   1.9867768E-04   3.3458415E+05   -1.7971069E+00
   1.9959519E-04   3.3182561E+05   -1.7965511E+00
   2.0051694E-04   3.2909066E+05   -1.7959949E+00
   2.0144295E-04   3.2637909E+05   -1.7954382E+00
   2.0237324E-04   3.2369069E+05   -1.7948810E+00
   2.0330782E-04   3.2102527E+05   -1.7943233E+00
   2.0424671E-04   3.1838260E+05   -1.7937652E+00
   2.0518995E-04   3.1576251E+05   -1.7932067E+00
   2.0613754E-04   3.1316478E+05   -1.7926477E+00
   2.0708950E-04   3.1058923E+05   -1.7920882E+00
   2.0804586E-04   3.0803565E+05   -1.7915284E+00
   2.0900664E-04   3.0550385E+05   -1.7909681E+00
   2.0997185E-04   3.0299365E+05   -1.7904073E+00
   2.1094152E-04   3.0050484E+05   -1.7898462E+00
   2.1191567E-04   2.9803726E+05   -1.7892846E+00
   2.1289432E-04   2.9559070E+05   -1.7887227E+00
   2.1387749E-04   2.9316498E+05   -1.7881603E+00
   2.1486520E-04   2.9075992E+05   -1.7875976E+00
   2.1585747E-04   2.8837534E+05   -1.7870344E+00
   2.1685432E-04   2.8601106E+05   -1.7864709E+00
   2.1785578E-04   2.8366690E+05   -1.7859070E+00
   2.1886186E-04   2.8134268E+05   -1.7853427E+00
   2.1987259E-04   2.7903824E+05   -1.7847780E+00
   2.2088798E-04   2.7675339E+05   -1.7842130E+00
   2.2190807E-04   2.7448796E+05   -1.7836476E+00
   2.2293286E-04   2.7224179E+05   -1.7830819E+00
   2.2396239E-04   2.7001470E+05   -1.7825158E+00
   2.2499667E-04   2.6780653E+05   -1.7819494E+00
   2.2603573E-04   2.6561711E+05   -1.7813827E+00
   2.2707958E-04   2.6344627E+05   -1.7808156E+00
   2.2812826E-04   2.6129387E+05   -1.7802482E+00
   2.2918178E-04   2.5915972E+05   -1.7796805E+00
   2.3024017E-04   2.5704368E+05   -1.7791125E+00
   2.3130344E-04   2.5494558E+05   -1.7785441E+00
   2.3237162E-04   2.5286528E+05   -1.7779755E+00
   2.3344474E-04   2.5080260E+05   -1.7774066E+00
   2.3452281E-04   2.4875740E+05   -1.7768374E+00
   2.3560586E-04   2.4672953E+05   -1.7762679E+00
   2.3669392E-04   2.4471883E+05   -1.7756981E+00
   2.3778699E-04   2.4272515E+05   -1.7751281E+00
   2.3888512E-04   2.4074835E+05   -1.7745578E+00
   2.3998831E-04   2.3878828E+05   -1.7739872E+00
   2.4109661E-04   2.3684478E+05   -1.7734164E+00
   2.4221001E-04   2.3491773E+05   -1.7728453E+00
   2.4332857E-04   2.3300696E+05   -1.7722740E+00
   2.4445228E-04   2.3111235E+05   -1.7717025E+00
   2.4558119E-04   2.2923374E+05   -1.7711307E+00
   2.4671531E-04   2.2737100E+05   -1.7705587E+00
   2.4785467E-04   2.2552400E+05   -1.7699865E+00
   2.4899928E-04   2.2369259E+05   -1.7694141E+00
   2.5014919E-04   2.2187663E+05   -1.7688415E+00
   2.5130440E-04   2.2007600E+05   -1.7682687E+00
   2.5246495E-04   2.1829056E+05   -1.7676956E+00
   2.5363086E-04   2.1652018E+05   -1.7671224E+00
   2.5480216E-04   2.1476472E+05   -1.7665491E+00
   2.5597886E-04   2.1302405E+05   -1.7659755E+00
   2.5716100E-04   2.1129805E+05   -1.7654018E+00
   2.5834859E-04   2.0958659E+05   -1.7648279E+00
   2.5954168E-04   2.0788955E+05   -1.7642538E+00
   2.6074027E-04   2.0620679E+05   -1.7636796E+00
   2.6194439E-04   2.0453819E+05   -1.7631053E+00
   2.6315408E-04   2.0288363E+05   -1.7625308E+00
   2.6436935E-04   2.0124299E+05   -1.7619562E+00
   2.6559024E-04   1.9961614E+05   -1.7613814E+00
   2.6681676E-04   1.9800297E+05   -1.7608066E+00
   2.6804895E-04   1.9640336E+05   -1.7602316E+00
   2.6928683E-04   1.9481718E+05   -1.7596565E+00
   2.7053042E-04   1.9324433E+05   -1.7590813E+00
   2.7177976E-04   1.9168468E+05   -1.7585060E+00
   2.7303487E-04   1.9013813E+05   -1.7579306E+00
   2.7429577E-04   1.8860455E+05   -1.7573552E+00
   2.7556250E-04   1.8708384E+05   -1.7567796E+00
   2.7683507E-04   1.8557588E+05   -1.7562040E+00
   2.7811353E-04   1.8408057E+05   -1.7556283E+00
   2.7939788E-04   1.8259779E+05   -1.7550526E+00
   2.8068817E-04   1.8112743E+05   -1.7544768E+00
   2.8198442E-04   1.7966939E+05   -1.7539009E+00
   2.8328665E-04   1.7822356E+05   -1.7533251E+00
   2.8459490E-04   1.7678983E+05   -1.7527491E+00
   2.8590919E-04   1.7536811E+05   -1.7521732E+00
   2.8722955E-04   1.7395827E+05   -1.7515972E+00
   2.8855600E-04   1.7256023E+05   -1.7510212E+00
   2.8988859E-04   1.7117388E+05   -1.7504452E+00
   2.9122732E-04   1.6979912E+05   -1.7498692E+00
   2.9257224E-04   1.6843584E+05   -1.7492932E+00
   2.9392337E-04   1.6708396E+05   -1.7487172E+00
   2.9528074E-04   1.6574336E+05   -1.7481412E+00
   2.9664438E-04   1.6441396E+05   -1.7475652E+00
   2.9801431E-04   1.6309566E+05   -1.7469893E+00
   2.9939057E-04   1.6178835E+05   -1.7464134E+00
   3.0077319E-04   1.6049195E+05   -1.7458375E+00
   3.0216219E-04   1.5920636E+05   -1.7452617E+00
   3.0355761E-04   1.5793148E+05   -1.7446859E+00
   3.0495947E-04   1.5666723E+05   -1.7441102E+00
   3.0636780E-04   1.5541351E+05   -1.7435345E+00
   3.0778264E-04   1.5417024E+05   -1.7429589E+00
   3.0920401E-04   1.5293731E+05   -1.7423834E+00
   3.1063195E-04   1.5171465E+05   -1.7418079E+00
   3.1206648E-04   1.5050216E+05   -1.7412326E+00
   3.1350764E-04   1.4929976E+05   -1.7406573E+00
   3.1495545E-04   1.4810735E+05   -1.7400822E+00
   3.1640994E-04   1.4692486E+05   -1.7395071E+00
   3.1787116E-04   1.4575220E+05   -1.7389322E+00
   3.1933912E-04   1.4458928E+05   -1.7383573E+00
   3.2081386E-04   1.4343601E+05   -1.7377826E+00
   3.2229541E-04   1.4229233E+05   -1.7372080E+00
   3.2378381E-04   1.4115813E+05   -1.7366336E+00
   3.2527908E-04   1.4003335E+05   -1.7360593E+00
   3.2678125E-04   1.3891789E+05   -1.7354851E+00
   3.2829036E-04   1.3781169E+05   -1.7349111E+00
   3.2980644E-04   1.3671466E+05   -1.7343373E+00
   3.3132952E-04   1.3562671E+05   -1.7337636E+00
   3.3285963E-04   1.3454778E+05   -1.7331901E+00
   3.3439681E-04   1.3347779E+05   -1.7326167E+00
   3.3594109E-04   1.3241666E+05   -1.7320436E+00
   3.3749250E-04   1.3136430E+05   -1.7314706E+00
   3.3905108E-04   1.3032066E+05   -1.7308979E+00
   3.4061685E-04   1.2928565E+05   -1.7303253E+00
   3.4218986E-04   1.2825919E+05   -1.7297529E+00
   3.4377013E-04   1.2724122E+05   -1.7291808E+00
   3.4535769E-04   1.2623167E+05   -1.7286089E+00
   3.4695259E-04   1.2523045E+05   -1.7280372E+00
   3.4855485E-04   1.2423750E+05   -1.7274657E+00
   3.5016452E-04   1.2325275E+05   -1.7268945E+00
   3.5178161E-04   1.2227613E+05   -1.7263235E+00
   3.5340618E-04   1.2130756E+05   -1.7257527E+00
   3.5503824E-04   1.2034699E+05   -1.7251822E+00
   3.5667785E-04   1.1939433E+05   -1.7246120E+00
   3.5832502E-04   1.1844952E+05   -1.7240420E+00
   3.5997981E-04   1.1751250E+05   -1.7234723E+00
   3.6164223E-04   1.1658320E+05   -1.7229029E+00
   3.6331233E-04   1.1566155E+05   -1.7223338E+00
   3.6499015E-04   1.1474749E+05   -1.7217650E+00
   3.6667571E-04   1.1384095E+05   -1.7211964E+00
   3.6836906E-04   1.1294187E+05   -1.7206282E+00
   3.7007022E-04   1.1205018E+05   -1.7200602E+00
   3.7177925E-04   1.1116582E+05   -1.7194926E+00
   3.7349616E-04   1.1028873E+05   -1.7189253E+00
   3.7522101E-04   1.0941885E+05   -1.7183583E+00
   3.7695382E-04   1.0855611E+05   -1.7177917E+00
   3.7869463E-04   1.0770046E+05   -1.7172254E+00
   3.8044348E-04   1.0685182E+05   -1.7166594E+00
   3.8220041E-04   1.0601015E+05   -1.7160938E+00
   3.8396545E-04   1.0517539E+05   -1.7155285E+00
   3.8573864E-04   1.0434747E+05   -1.7149636E+00
   3.8752002E-04   1.0352634E+05   -1.7143990E+00
   3.8930963E-04   1.0271193E+05   -1.7138348E+00
   3.9110750E-04   1.0190420E+05   -1.7132710E+00
   3.9291368E-04   1.0110308E+05   -1.7127076E+00
   3.9472820E-04   1.0030852E+05   -1.7121445E+00
   3.9655109E-04   9.9520460E+04   -1.7115819E+00
   3.9838241E-04   9.8738849E+04   -1.7110196E+00
   4.0022218E-04   9.7963631E+04   -1.7104578E+00
   4.0207045E-04   9.7194750E+04   -1.7098963E+00
   4.0392725E-04   9.6432154E+04   -1.7093353E+00
   4.0579263E-04   9.5675788E+04   -1.7087747E+00
   4.0766662E-04   9.4925600E+04   -1.7082145E+00
   4.0954927E-04   9.4181537E+04   -1.7076548E+00
   4.1144061E-04   9.3443547E+04   -1.7070955E+00
   4.1334068E-04   9.2711578E+04   -1.7065366E+00
   4.1524953E-04   9.1985580E+04   -1.7059782E+00
   4.1716720E-04   9.1265502E+04   -1.7054202E+00
   4.1909372E-04   9.0551293E+04   -1.7048627E+00
   4.2102914E-04   8.9842905E+04   -1.7043056E+00
   4.2297350E-04   8.9140286E+04   -1.7037490E+00
   4.2492683E-04   8.8443389E+04   -1.7031929E+00
   4.2688919E-04   8.7752166E+04   -1.7026373E+00
   4.2886061E-04   8.7066567E+04   -1.7020821E+00
   4.3084113E-04   8.6386546E+04   -1.7015274E+00
   4.3283080E-04   8.5712055E+04   -1.7009733E+00
   4.3482966E-04   8.5043047E+04   -1.7004196E+00
   4.3683775E-04   8.4379477E+04   -1.6998664E+00
   4.3885511E-04   8.3721297E+04   -1.6993138E+00
   4.4088179E-04   8.3068462E+04   -1.6987617E+00
   4.4291783E-04   8.2420928E+04   -1.6982100E+00
   4.4496327E-04   8.1778649E+04   -1.6976589E+00
   4.4701816E-04   8.1141581E+04   -1.6971084E+00
   4.4908253E-04   8.0509680E+04   -1.6965584E+00
   4.5115644E-04   7.9882903E+04   -1.6960089E+00
   4.5323993E-04   7.9261205E+04   -1.6954599E+00
   4.5533304E-04   7.8644545E+04   -1.6949115E+00
   4.5743582E-04   7.8032880E+04   -1.6943637E+00
   4.5954830E-04   7.7426167E+04   -1.6938164E+00
   4.6167054E-04   7.6824365E+04   -1.6932697E+00
   4.6380259E-04   7.6227433E+04   -1.6927236E+00
   4.6594448E-04   7.5635329E+04   -1.6921780E+00
   4.6809626E-04   7.5048013E+04   -1.6916330E+00
   4.7025797E-04   7.4465444E+04   -1.6910886E+00
   4.7242967E-04   7.3887582E+04   -1.6905448E+00
   4.7461140E-04   7.3314389E+04   -1.6900016E+00
   4.7680321E-04   7.2745824E+04   -1.6894590E+00
   4.7900514E-04   7.2181849E+04   -1.6889170E+00
   4.8121723E-04   7.1622425E+04   -1.6883756E+00
   4.8343954E-04   7.1067513E+04   -1.6878348E+00
   4.8567212E-04   7.0517077E+04   -1.6872946E+00
   4.8791500E-04   6.9971078E+04   -1.6867551E+00
   4.9016825E-04   6.9429479E+04   -1.6862162E+00
   4.9243189E-04   6.8892243E+04   -1.6856779E+00
   4.9470600E-04   6.8359334E+04   -1.6851402E+00
   4.9699060E-04   6.7830715E+04   -1.6846032E+00
   4.9928575E-04   6.7306350E+04   -1.6840668E+00
   5.0159151E-04   6.6786204E+04   -1.6835311E+00
   5.0390791E-04   6.6270240E+04   -1.6829961E+00
   5.0623501E-04   6.5758425E+04   -1.6824617E+00
   5.0857286E-04   6.5250723E+04   -1.6819279E+00
   5.1092150E-04   6.4747101E+04   -1.6813949E+00
   5.1328099E-04   6.4247523E+04   -1.6808625E+00
   5.1565137E-04   6.3751956E+04   -1.6803308E+00
   5.1803270E-04   6.3260366E+04   -1.6797997E+00
   5.2042503E-04   6.2772721E+04   -1.6792694E+00
   5.2282841E-04   6.2288986E+04   -1.6787397E+00
   5.2524289E-04   6.1809131E+04   -1.6782107E+00
   5.2766851E-04   6.1333121E+04   -1.6776825E+00
   5.3010534E-04   6.0860925E+04   -1.6771549E+00
   5.3255342E-04   6.0392511E+04   -1.6766281E+00
   5.3501281E-04   5.9927847E+04   -1.6761019E+00
   5.3748356E-04   5.9466903E+04   -1.6755765E+00
   5.3996571E-04   5.9009647E+04   -1.6750518E+00
   5.4245933E-04   5.8556049E+04   -1.6745278E+00
   5.4496446E-04   5.8106077E+04   -1.6740045E+00
   5.4748117E-04   5.7659702E+04   -1.6734820E+00
   5.5000949E-04   5.7216894E+04   -1.6729602E+00
   5.5254949E-04   5.6777623E+04   -1.6724391E+00
   5.5510123E-04   5.6341860E+04   -1.6719188E+00
   5.5766474E-04   5.5909575E+04   -1.6713992E+00
   5.6024010E-04   5.5480739E+04   -1.6708804E+00
   5.6282734E-04   5.5055324E+04   -1.6703624E+00
   5.6542654E-04   5.4633301E+04   -1.6698450E+00
   5.6803774E-04   5.4214643E+04   -1.6693285E+00
   5.7066099E-04   5.3799320E+04   -1.6688127E+00
   5.7329637E-04   5.3387306E+04   -1.6682977E+00
   5.7594391E-04   5.2978573E+04   -1.6677835E+00
   5.7860368E-04   5.2573094E+04   -1.6672700E+00
   5.8127573E-04   5.2170842E+04   -1.6667574E+00
   5.8396012E-04   5.1771789E+04   -1.6662455E+00
   5.8665691E-04   5.1375910E+04   -1.6657344E+00
   5.8936616E-04   5.0983178E+04   -1.6652241E+00
   5.9208791E-04   5.0593567E+04   -1.6647146E+00
   5.9482223E-04   5.0207051E+04   -1.6642058E+00
   5.9756919E-04   4.9823605E+04   -1.6636979E+00
   6.0032882E-04   4.9443202E+04   -1.6631908E+00
   6.0310120E-04   4.9065819E+04   -1.6626845E+00
   6.0588639E-04   4.8691429E+04   -1.6621791E+00
   6.0868443E-04   4.8320009E+04   -1.6616744E+00
   6.1149540E-04   4.7951533E+04   -1.6611705E+00
   6.1431935E-04   4.7585978E+04   -1.6606675E+00
   6.1715634E-04   4.7223319E+04   -1.6601653E+00
   6.2000644E-04   4.6863532E+04   -1.6596639E+00
   6.2286969E-04   4.6506594E+04   -1.6591634E+00
