#        a       HoverH0(a)       dlogHdloga_of_a(a)
   1.0000000E-04   1.2254930E+06   -1.8724921E+00
   1.0046181E-04   1.2149668E+06   -1.8720540E+00
   1.0092575E-04   1.2045335E+06   -1.8716148E+00
   1.0139184E-04   1.1941921E+06   -1.8711747E+00
   1.0186008E-04   1.1839420E+06   -1.8707335E+00
   1.0233048E-04   1.1737822E+06   -1.8702914E+00
   1.0280305E-04   1.1637120E+06   -1.8698483E+00
   1.0327781E-04   1.1537306E+06   -1.8694042E+00
   1.0375475E-04   1.1438371E+06   -1.8689592E+00
   1.0423390E-04   1.1340307E+06   -1.8685131E+00
   1.0471527E-04   1.1243108E+06   -1.8680661E+00
   1.0519885E-04   1.1146764E+06   -1.8676181E+00
   1.0568467E-04   1.1051269E+06   -1.8671692E+00
   1.0617274E-04   1.0956615E+06   -1.8667193E+00
   1.0666305E-04   1.0862794E+06   -1.8662684E+00
   1.0715563E-04   1.0769799E+06   -1.8658165E+00
   1.0765049E-04   1.0677622E+06   -1.8653637E+00
   1.0814763E-04   1.0586257E+06   -1.8649099E+00
   1.0864707E-04   1.0495695E+06   -1.8644551E+00
   1.0914881E-04   1.0405929E+06   -1.8639994E+00
   1.0965287E-04   1.0316953E+06   -1.8635428E+00
   1.1015926E-04   1.0228759E+06   -1.8630851E+00
   1.1066799E-04   1.0141341E+06   -1.8626265E+00
   1.1117906E-04   1.0054691E+06   -1.8621670E+00
   1.1169250E-04   9.9688026E+05   -1.8617065E+00
   1.1220831E-04   9.8836687E+05   -1.8612451E+00
   1.1272650E-04   9.7992827E+05   -1.8607827E+00
   1.1324708E-04   9.7156380E+05   -1.8603194E+00
   1.1377007E-04   9.6327278E+05   -1.8598551E+00
   1.1429547E-04   9.5505457E+05   -1.8593899E+00
   1.1482330E-04   9.4690849E+05   -1.8589237E+00
   1.1535356E-04   9.3883392E+05   -1.8584566E+00
   1.1588628E-04   9.3083021E+05   -1.8579886E+00
   1.1642145E-04   9.2289672E+05   -1.8575196E+00
   1.1695910E-04   9.1503282E+05   -1.8570498E+00
   1.1749923E-04   9.0723790E+05   -1.8565789E+00
   1.1804185E-04   8.9951134E+05   -1.8561072E+00
   1.1858698E-04   8.9185252E+05   -1.8556345E+00
   1.1913463E-04   8.8426084E+05   -1.8551610E+00
   1.1968481E-04   8.7673569E+05   -1.8546864E+00
   1.2023752E-04   8.6927649E+05   -1.8542110E+00
   1.2079279E-04   8.6188264E+05   -1.8537347E+00
   1.2135063E-04   8.5455356E+05   -1.8532574E+00
   1.2191104E-04   8.4728867E+05   -1.8527793E+00
   1.2247403E-04   8.4008739E+05   -1.8523002E+00
   1.2303963E-04   8.3294915E+05   -1.8518203E+00
   1.2360784E-04   8.2587340E+05   -1.8513394E+00
   1.2417868E-04   8.1885957E+05   -1.8508576E+00
   1.2475215E-04   8.1190711E+05   -1.8503750E+00
   1.2532826E-04   8.0501547E+05   -1.8498914E+00
   1.2590704E-04   7.9818411E+05   -1.8494069E+00
   1.2648850E-04   7.9141249E+05   -1.8489216E+00
   1.2707263E-04   7.8470007E+05   -1.8484354E+00
   1.2765947E-04   7.7804633E+05   -1.8479483E+00
   1.2824901E-04   7.7145074E+05   -1.8474603E+00
   1.2884128E-04   7.6491279E+05   -1.8469714E+00
   1.2943628E-04   7.5843196E+05   -1.8464817E+00
   1.3003403E-04   7.5200773E+05   -1.8459911E+00
   1.3063454E-04   7.4563960E+05   -1.8454996E+00
   1.3123783E-04   7.3932708E+05   -1.8450072E+00
   1.3184390E-04   7.3306966E+05   -1.8445140E+00
   1.3245277E-04   7.2686686E+05   -1.8440200E+00
   1.3306445E-04   7.2071818E+05   -1.8435250E+00
   1.3367895E-04   7.1462314E+05   -1.8430293E+00
   1.3429630E-04   7.0858127E+05   -1.8425326E+00
   1.3491649E-04   7.0259210E+05   -1.8420352E+00
   1.3553955E-04   6.9665514E+05   -1.8415368E+00
   1.3616548E-04   6.9076994E+05   -1.8410377E+00
   1.3679431E-04   6.8493603E+05   -1.8405377E+00
   1.3742604E-04   6.7915296E+05   -1.8400368E+00
   1.3806069E-04   6.7342027E+05   -1.8395352E+00
   1.3869827E-04   6.6773751E+05   -1.8390327E+00
   1.3933879E-04   6.6210425E+05   -1.8385293E+00
   1.3998227E-04   6.5652003E+05   -1.8380252E+00
   1.4062872E-04   6.5098442E+05   -1.8375202E+00
   1.4127816E-04   6.4549699E+05   -1.8370144E+00
   1.4193060E-04   6.4005731E+05   -1.8365078E+00
   1.4258605E-04   6.3466495E+05   -1.8360004E+00
   1.4324453E-04   6.2931950E+05   -1.8354922E+00
   1.4390605E-04   6.2402053E+05   -1.8349832E+00
   1.4457062E-04   6.1876763E+05   -1.8344734E+00
   1.4523826E-04   6.1356039E+05   -1.8339628E+00
   1.4590899E-04   6.0839840E+05   -1.8334514E+00
   1.4658281E-04   6.0328127E+05   -1.8329392E+00
   1.4725974E-04   5.9820858E+05   -1.8324263E+00
   1.4793981E-04   5.9317996E+05   -1.8319125E+00
   1.4862301E-04   5.8819500E+05   -1.8313980E+00
   1.4930936E-04   5.8325331E+05   -1.8308827E+00
   1.4999889E-04   5.7835452E+05   -1.8303667E+00
   1.5069160E-04   5.7349823E+05   -1.8298498E+00
   1.5138751E-04   5.6868408E+05   -1.8293323E+00
   1.5208663E-04   5.6391168E+05   -1.8288139E+00
   1.5278899E-04   5.5918068E+05   -1.8282948E+00
   1.5349458E-04   5.5449069E+05   -1.8277750E+00
   1.5420343E-04   5.4984135E+05   -1.8272544E+00
   1.5491556E-04   5.4523231E+05   -1.8267330E+00
   1.5563098E-04   5.4066320E+05   -1.8262110E+00
   1.5634970E-04   5.3613368E+05   -1.8256882E+00
   1.5707174E-04   5.3164338E+05   -1.8251646E+00
   1.5779711E-04   5.2719196E+05   -1.8246404E+00
   1.5852584E-04   5.2277908E+05   -1.8241154E+00
   1.5925792E-04   5.1840438E+05   -1.8235897E+00
   1.5999339E-04   5.1406755E+05   -1.8230633E+00
   1.6073226E-04   5.0976823E+05   -1.8225361E+00
   1.6147454E-04   5.0550609E+05   -1.8220083E+00
   1.6222024E-04   5.0128082E+05   -1.8214798E+00
   1.6296939E-04   4.9709207E+05   -1.8209505E+00
   1.6372200E-04   4.9293952E+05   -1.8204206E+00
   1.6447809E-04   4.8882286E+05   -1.8198900E+00
   1.6523767E-04   4.8474177E+05   -1.8193587E+00
   1.6600075E-04   4.8069592E+05   -1.8188267E+00
   1.6676736E-04   4.7668501E+05   -1.8182941E+00
   1.6753751E-04   4.7270873E+05   -1.8177608E+00
   1.6831122E-04   4.6876677E+05   -1.8172268E+00
   1.6908849E-04   4.6485882E+05   -1.8166921E+00
   1.6986936E-04   4.6098459E+05   -1.8161568E+00
   1.7065384E-04   4.5714378E+05   -1.8156208E+00
   1.7144193E-04   4.5333609E+05   -1.8150842E+00
   1.7223367E-04   4.4956123E+05   -1.8145470E+00
   1.7302906E-04   4.4581890E+05   -1.8140091E+00
   1.7382813E-04   4.4210882E+05   -1.8134706E+00
   1.7463089E-04   4.3843071E+05   -1.8129314E+00
   1.7543735E-04   4.3478428E+05   -1.8123916E+00
   1.7624754E-04   4.3116925E+05   -1.8118512E+00
   1.7706147E-04   4.2758534E+05   -1.8113102E+00
   1.7787916E-04   4.2403227E+05   -1.8107685E+00
   1.7870062E-04   4.2050978E+05   -1.8102263E+00
   1.7952588E-04   4.1701760E+05   -1.8096835E+00
   1.8035495E-04   4.1355545E+05   -1.8091400E+00
   1.8118785E-04   4.1012307E+05   -1.8085960E+00
   1.8202459E-04   4.0672020E+05   -1.8080513E+00
   1.8286520E-04   4.0334658E+05   -1.8075061E+00
   1.8370969E-04   4.0000195E+05   -1.8069604E+00
   1.8455808E-04   3.9668605E+05   -1.8064140E+00
   1.8541039E-04   3.9339862E+05   -1.8058671E+00
   1.8626663E-04   3.9013943E+05   -1.8053196E+00
   1.8712683E-04   3.8690821E+05   -1.8047715E+00
   1.8799100E-04   3.8370472E+05   -1.8042229E+00
   1.8885917E-04   3.8052872E+05   -1.8036738E+00
   1.8973134E-04   3.7737997E+05   -1.8031241E+00
   1.9060754E-04   3.7425821E+05   -1.8025738E+00
   1.9148778E-04   3.7116323E+05   -1.8020231E+00
   1.9237209E-04   3.6809477E+05   -1.8014718E+00
   1.9326049E-04   3.6505260E+05   -1.8009199E+00
   1.9415299E-04   3.6203650E+05   -1.8003676E+00
   1.9504960E-04   3.5904623E+05   -1.7998147E+00
   1.9595036E-04   3.5608157E+05   -1.7992614E+00
   1.9685528E-04   3.5314229E+05   -1.7987075E+00
   1.9776438E-04   3.5022817E+05   -1.7981532E+00
   1.9867768E-04   3.4733898E+05   -1.7975983E+00
   1.9959519E-04   3.4447450E+05   -1.7970430E+00
   2.0051694E-04   3.4163453E+05   -1.7964871E+00
   2.0144295E-04   3.3881883E+05   -1.7959308E+00
   2.0237324E-04   3.3602720E+05   -1.7953741E+00
   2.0330782E-04   3.3325943E+05   -1.7948168E+00
   2.0424671E-04   3.3051531E+05   -1.7942591E+00
   2.0518995E-04   3.2779462E+05   -1.7937010E+00
   2.0613754E-04   3.2509717E+05   -1.7931424E+00
   2.0708950E-04   3.2242274E+05   -1.7925833E+00
   2.0804586E-04   3.1977114E+05   -1.7920238E+00
   2.0900664E-04   3.1714216E+05   -1.7914639E+00
   2.0997185E-04   3.1453561E+05   -1.7909036E+00
   2.1094152E-04   3.1195129E+05   -1.7903428E+00
   2.1191567E-04   3.0938900E+05   -1.7897816E+00
   2.1289432E-04   3.0684855E+05   -1.7892200E+00
   2.1387749E-04   3.0432975E+05   -1.7886580E+00
   2.1486520E-04   3.0183241E+05   -1.7880956E+00
   2.1585747E-04   2.9935634E+05   -1.7875328E+00
   2.1685432E-04   2.9690134E+05   -1.7869696E+00
   2.1785578E-04   2.9446725E+05   -1.7864060E+00
   2.1886186E-04   2.9205387E+05   -1.7858420E+00
   2.1987259E-04   2.8966102E+05   -1.7852777E+00
   2.2088798E-04   2.8728853E+05   -1.7847130E+00
   2.2190807E-04   2.8493620E+05   -1.7841479E+00
   2.2293286E-04   2.8260388E+05   -1.7835825E+00
   2.2396239E-04   2.8029138E+05   -1.7830168E+00
   2.2499667E-04   2.7799852E+05   -1.7824507E+00
   2.2603573E-04   2.7572514E+05   -1.7818842E+00
   2.2707958E-04   2.7347107E+05   -1.7813174E+00
   2.2812826E-04   2.7123613E+05   -1.7807503E+00
   2.2918178E-04   2.6902016E+05   -1.7801829E+00
   2.3024017E-04   2.6682299E+05   -1.7796151E+00
   2.3130344E-04   2.6464445E+05   -1.7790471E+00
   2.3237162E-04   2.6248440E+05   -1.7784787E+00
   2.3344474E-04   2.6034265E+05   -1.7779100E+00
   2.3452281E-04   2.5821906E+05   -1.7773411E+00
   2.3560586E-04   2.5611346E+05   -1.7767718E+00
   2.3669392E-04   2.5402570E+05   -1.7762023E+00
   2.3778699E-04   2.5195562E+05   -1.7756325E+00
   2.3888512E-04   2.4990306E+05   -1.7750624E+00
   2.3998831E-04   2.4786787E+05   -1.7744921E+00
   2.4109661E-04   2.4584991E+05   -1.7739215E+00
   2.4221001E-04   2.4384901E+05   -1.7733507E+00
   2.4332857E-04   2.4186504E+05   -1.7727796E+00
   2.4445228E-04   2.3989784E+05   -1.7722083E+00
   2.4558119E-04   2.3794727E+05   -1.7716367E+00
   2.4671531E-04   2.3601317E+05   -1.7710649E+00
   2.4785467E-04   2.3409542E+05   -1.7704929E+00
   2.4899928E-04   2.3219386E+05   -1.7699207E+00
   2.5014919E-04   2.3030836E+05   -1.7693482E+00
   2.5130440E-04   2.2843876E+05   -1.7687756E+00
   2.5246495E-04   2.2658495E+05   -1.7682027E+00
   2.5363086E-04   2.2474677E+05   -1.7676297E+00
   2.5480216E-04   2.2292409E+05   -1.7670565E+00
   2.5597886E-04   2.2111677E+05   -1.7664831E+00
   2.5716100E-04   2.1932469E+05   -1.7659095E+00
   2.5834859E-04   2.1754771E+05   -1.7653357E+00
   2.5954168E-04   2.1578570E+05   -1.7647618E+00
   2.6074027E-04   2.1403852E+05   -1.7641877E+00
   2.6194439E-04   2.1230605E+05   -1.7636135E+00
   2.6315408E-04   2.1058816E+05   -1.7630392E+00
   2.6436935E-04   2.0888473E+05   -1.7624647E+00
   2.6559024E-04   2.0719562E+05   -1.7618900E+00
   2.6681676E-04   2.0552072E+05   -1.7613153E+00
   2.6804895E-04   2.0385989E+05   -1.7607404E+00
   2.6928683E-04   2.0221302E+05   -1.7601654E+00
   2.7053042E-04   2.0057999E+05   -1.7595903E+00
   2.7177976E-04   1.9896067E+05   -1.7590151E+00
   2.7303487E-04   1.9735495E+05   -1.7584398E+00
   2.7429577E-04   1.9576271E+05   -1.7578644E+00
   2.7556250E-04   1.9418382E+05   -1.7572889E+00
   2.7683507E-04   1.9261819E+05   -1.7567134E+00
   2.7811353E-04   1.9106568E+05   -1.7561377E+00
   2.7939788E-04   1.8952619E+05   -1.7555621E+00
   2.8068817E-04   1.8799960E+05   -1.7549863E+00
   2.8198442E-04   1.8648580E+05   -1.7544105E+00
   2.8328665E-04   1.8498468E+05   -1.7538347E+00
   2.8459490E-04   1.8349613E+05   -1.7532588E+00
   2.8590919E-04   1.8202005E+05   -1.7526828E+00
   2.8722955E-04   1.8055631E+05   -1.7521069E+00
   2.8855600E-04   1.7910483E+05   -1.7515309E+00
   2.8988859E-04   1.7766548E+05   -1.7509549E+00
   2.9122732E-04   1.7623817E+05   -1.7503789E+00
   2.9257224E-04   1.7482279E+05   -1.7498029E+00
   2.9392337E-04   1.7341923E+05   -1.7492269E+00
   2.9528074E-04   1.7202740E+05   -1.7486509E+00
   2.9664438E-04   1.7064719E+05   -1.7480749E+00
   2.9801431E-04   1.6927851E+05   -1.7474989E+00
   2.9939057E-04   1.6792125E+05   -1.7469230E+00
   3.0077319E-04   1.6657531E+05   -1.7463471E+00
   3.0216219E-04   1.6524061E+05   -1.7457712E+00
   3.0355761E-04   1.6391703E+05   -1.7451954E+00
   3.0495947E-04   1.6260448E+05   -1.7446196E+00
   3.0636780E-04   1.6130287E+05   -1.7440439E+00
   3.0778264E-04   1.6001211E+05   -1.7434682E+00
   3.0920401E-04   1.5873209E+05   -1.7428926E+00
   3.1063195E-04   1.5746273E+05   -1.7423171E+00
   3.1206648E-04   1.5620394E+05   -1.7417417E+00
   3.1350764E-04   1.5495562E+05   -1.7411663E+00
   3.1495545E-04   1.5371768E+05   -1.7405911E+00
   3.1640994E-04   1.5249004E+05   -1.7400159E+00
   3.1787116E-04   1.5127260E+05   -1.7394409E+00
   3.1933912E-04   1.5006529E+05   -1.7388660E+00
   3.2081386E-04   1.4886800E+05   -1.7382911E+00
   3.2229541E-04   1.4768065E+05   -1.7377164E+00
   3.2378381E-04   1.4650316E+05   -1.7371419E+00
   3.2527908E-04   1.4533545E+05   -1.7365674E+00
   3.2678125E-04   1.4417742E+05   -1.7359932E+00
   3.2829036E-04   1.4302900E+05   -1.7354190E+00
   3.2980644E-04   1.4189010E+05   -1.7348450E+00
   3.3132952E-04   1.4076065E+05   -1.7342712E+00
   3.3285963E-04   1.3964055E+05   -1.7336975E+00
   3.3439681E-04   1.3852973E+05   -1.7331240E+00
   3.3594109E-04   1.3742811E+05   -1.7325507E+00
   3.3749250E-04   1.3633562E+05   -1.7319776E+00
   3.3905108E-04   1.3525216E+05   -1.7314047E+00
   3.4061685E-04   1.3417767E+05   -1.7308319E+00
   3.4218986E-04   1.3311206E+05   -1.7302594E+00
   3.4377013E-04   1.3205527E+05   -1.7296870E+00
   3.4535769E-04   1.3100721E+05   -1.7291149E+00
   3.4695259E-04   1.2996782E+05   -1.7285430E+00
   3.4855485E-04   1.2893701E+05   -1.7279713E+00
   3.5016452E-04   1.2791471E+05   -1.7273999E+00
   3.5178161E-04   1.2690085E+05   -1.7268287E+00
   3.5340618E-04   1.2589536E+05   -1.7262577E+00
   3.5503824E-04   1.2489816E+05   -1.7256870E+00
   3.5667785E-04   1.2390919E+05   -1.7251165E+00
   3.5832502E-04   1.2292837E+05   -1.7245463E+00
   3.5997981E-04   1.2195563E+05   -1.7239764E+00
   3.6164223E-04   1.2099092E+05   -1.7234067E+00
   3.6331233E-04   1.2003414E+05   -1.7228374E+00
   3.6499015E-04   1.1908525E+05   -1.7222683E+00
   3.6667571E-04   1.1814417E+05   -1.7216995E+00
   3.6836906E-04   1.1721083E+05   -1.7211309E+00
   3.7007022E-04   1.1628516E+05   -1.7205627E+00
   3.7177925E-04   1.1536711E+05   -1.7199948E+00
   3.7349616E-04   1.1445661E+05   -1.7194272E+00
   3.7522101E-04   1.1355359E+05   -1.7188600E+00
   3.7695382E-04   1.1265799E+05   -1.7182930E+00
   3.7869463E-04   1.1176975E+05   -1.7177264E+00
   3.8044348E-04   1.1088880E+05   -1.7171601E+00
   3.8220041E-04   1.1001507E+05   -1.7165942E+00
   3.8396545E-04   1.0914852E+05   -1.7160286E+00
   3.8573864E-04   1.0828908E+05   -1.7154634E+00
   3.8752002E-04   1.0743668E+05   -1.7148985E+00
   3.8930963E-04   1.0659127E+05   -1.7143340E+00
   3.9110750E-04   1.0575278E+05   -1.7137698E+00
   3.9291368E-04   1.0492117E+05   -1.7132061E+00
   3.9472820E-04   1.0409636E+05   -1.7126427E+00
   3.9655109E-04   1.0327831E+05   -1.7120797E+00
   3.9838241E-04   1.0246695E+05   -1.7115171E+00
   4.0022218E-04   1.0166223E+05   -1.7109549E+00
   4.0207045E-04   1.0086409E+05   -1.7103931E+00
   4.0392725E-04   1.0007247E+05   -1.7098317E+00
   4.0579263E-04   9.9287325E+04   -1.7092707E+00
   4.0766662E-04   9.8508594E+04   -1.7087101E+00
   4.0954927E-04   9.7736223E+04   -1.7081500E+00
   4.1144061E-04   9.6970158E+04   -1.7075903E+00
   4.1334068E-04   9.6210346E+04   -1.7070310E+00
   4.1524953E-04   9.5456732E+04   -1.7064722E+00
   4.1716720E-04   9.4709266E+04   -1.7059138E+00
   4.1909372E-04   9.3967894E+04   -1.7053559E+00
   4.2102914E-04   9.3232565E+04   -1.7047984E+00
   4.2297350E-04   9.2503228E+04   -1.7042414E+00
   4.2492683E-04   9.1779831E+04   -1.7036849E+00
   4.2688919E-04   9.1062326E+04   -1.7031288E+00
   4.2886061E-04   9.0350661E+04   -1.7025733E+00
   4.3084113E-04   8.9644787E+04   -1.7020182E+00
   4.3283080E-04   8.8944655E+04   -1.7014636E+00
   4.3482966E-04   8.8250217E+04   -1.7009094E+00
   4.3683775E-04   8.7561424E+04   -1.7003558E+00
   4.3885511E-04   8.6878228E+04   -1.6998027E+00
   4.4088179E-04   8.6200583E+04   -1.6992501E+00
   4.4291783E-04   8.5528441E+04   -1.6986980E+00
   4.4496327E-04   8.4861755E+04   -1.6981465E+00
   4.4701816E-04   8.4200480E+04   -1.6975955E+00
   4.4908253E-04   8.3544570E+04   -1.6970450E+00
   4.5115644E-04   8.2893980E+04   -1.6964950E+00
   4.5323993E-04   8.2248665E+04   -1.6959456E+00
   4.5533304E-04   8.1608579E+04   -1.6953967E+00
   4.5743582E-04   8.0973680E+04   -1.6948484E+00
   4.5954830E-04   8.0343923E+04   -1.6943006E+00
   4.6167054E-04   7.9719265E+04   -1.6937534E+00
   4.6380259E-04   7.9099662E+04   -1.6932067E+00
   4.6594448E-04   7.8485074E+04   -1.6926607E+00
   4.6809626E-04   7.7875456E+04   -1.6921152E+00
   4.7025797E-04   7.7270767E+04   -1.6915702E+00
   4.7242967E-04   7.6670966E+04   -1.6910259E+00
   4.7461140E-04   7.6076011E+04   -1.6904822E+00
   4.7680321E-04   7.5485862E+04   -1.6899390E+00
   4.7900514E-04   7.4900479E+04   -1.6893965E+00
   4.8121723E-04   7.4319821E+04   -1.6888545E+00
   4.8343954E-04   7.3743848E+04   -1.6883132E+00
   4.8567212E-04   7.3172522E+04   -1.6877725E+00
   4.8791500E-04   7.2605803E+04   -1.6872324E+00
   4.9016825E-04   7.2043652E+04   -1.6866929E+00
   4.9243189E-04   7.1486031E+04   -1.6861541E+00
   4.9470600E-04   7.0932902E+04   -1.6856158E+00
   4.9699060E-04   7.0384227E+04   -1.6850783E+00
   4.9928575E-04   6.9839970E+04   -1.6845413E+00
   5.0159151E-04   6.9300092E+04   -1.6840050E+00
   5.0390791E-04   6.8764557E+04   -1.6834694E+00
   5.0623501E-04   6.8233330E+04   -1.6829344E+00
   5.0857286E-04   6.7706372E+04   -1.6824001E+00
   5.1092150E-04   6.7183650E+04   -1.6818664E+00
   5.1328099E-04   6.6665128E+04   -1.6813334E+00
   5.1565137E-04   6.6150769E+04   -1.6808011E+00
   5.1803270E-04   6.5640540E+04   -1.6802695E+00
   5.2042503E-04   6.5134406E+04   -1.6797385E+00
   5.2282841E-04   6.4632333E+04   -1.6792082E+00
   5.2524289E-04   6.4134286E+04   -1.6786787E+00
   5.2766851E-04   6.3640233E+04   -1.6781498E+00
   5.3010534E-04   6.3150139E+04   -1.6776216E+00
   5.3255342E-04   6.2663971E+04   -1.6770941E+00
   5.3501281E-04   6.2181698E+04   -1.6765673E+00
   5.3748356E-04   6.1703285E+04   -1.6760413E+00
   5.3996571E-04   6.1228702E+04   -1.6755159E+00
   5.4245933E-04   6.0757916E+04   -1.6749913E+00
   5.4496446E-04   6.0290896E+04   -1.6744674E+00
   5.4748117E-04   5.9827610E+04   -1.6739442E+00
   5.5000949E-04   5.9368026E+04   -1.6734217E+00
   5.5254949E-04   5.8912115E+04   -1.6729000E+00
   5.5510123E-04   5.8459846E+04   -1.6723790E+00
   5.5766474E-04   5.8011187E+04   -1.6718588E+00
   5.6024010E-04   5.7566110E+04   -1.6713393E+00
   5.6282734E-04   5.7124584E+04   -1.6708206E+00
   5.6542654E-04   5.6686580E+04   -1.6703026E+00
   5.6803774E-04   5.6252069E+04   -1.6697854E+00
   5.7066099E-04   5.5821021E+04   -1.6692689E+00
   5.7329637E-04   5.5393407E+04   -1.6687533E+00
   5.7594391E-04   5.4969200E+04   -1.6682383E+00
   5.7860368E-04   5.4548371E+04   -1.6677242E+00
   5.8127573E-04   5.4130892E+04   -1.6672108E+00
   5.8396012E-04   5.3716735E+04   -1.6666982E+00
   5.8665691E-04   5.3305873E+04   -1.6661864E+00
   5.8936616E-04   5.2898278E+04   -1.6656754E+00
   5.9208791E-04   5.2493922E+04   -1.6651652E+00
   5.9482223E-04   5.2092780E+04   -1.6646558E+00
   5.9756919E-04   5.1694825E+04   -1.6641472E+00
   6.0032882E-04   5.1300030E+04   -1.6636394E+00
   6.0310120E-04   5.0908369E+04   -1.6631323E+00
   6.0588639E-04   5.0519816E+04   -1.6626261E+00
   6.0868443E-04   5.0134345E+04   -1.6621207E+00
   6.1149540E-04   4.9751932E+04   -1.6616162E+00
   6.1431935E-04   4.9372550E+04   -1.6611124E+00
   6.1715634E-04   4.8996175E+04   -1.6606095E+00
   6.2000644E-04   4.8622781E+04   -1.6601074E+00
   6.2286969E-04   4.8252345E+04   -1.6596061E+00
