#        a       HoverH0(a)       dlogHdloga_of_a(a)
   1.0000000E-04   1.1553707E+06   -1.8815042E+00
   1.0046181E-04   1.1453992E+06   -1.8810871E+00
   1.0092575E-04   1.1355159E+06   -1.8806690E+00
   1.0139184E-04   1.1257201E+06   -1.8802498E+00
   1.0186008E-04   1.1160110E+06   -1.8798297E+00
   1.0233048E-04   1.1063877E+06   -1.8794086E+00
   1.0280305E-04   1.0968496E+06   -1.8789865E+00
   1.0327781E-04   1.0873958E+06   -1.8785633E+00
   1.0375475E-04   1.0780256E+06   -1.8781392E+00
   1.0423390E-04   1.0687382E+06   -1.8777140E+00
   1.0471527E-04   1.0595329E+06   -1.8772879E+00
   1.0519885E-04   1.0504090E+06   -1.8768607E+00
   1.0568467E-04   1.0413657E+06   -1.8764326E+00
   1.0617274E-04   1.0324023E+06   -1.8760035E+00
   1.0666305E-04   1.0235180E+06   -1.8755733E+00
   1.0715563E-04   1.0147122E+06   -1.8751422E+00
   1.0765049E-04   1.0059842E+06   -1.8747100E+00
   1.0814763E-04   9.9733328E+05   -1.8742769E+00
   1.0864707E-04   9.8875870E+05   -1.8738428E+00
   1.0914881E-04   9.8025980E+05   -1.8734077E+00
   1.0965287E-04   9.7183590E+05   -1.8729716E+00
   1.1015926E-04   9.6348633E+05   -1.8725345E+00
   1.1066799E-04   9.5521043E+05   -1.8720964E+00
   1.1117906E-04   9.4700752E+05   -1.8716573E+00
   1.1169250E-04   9.3887696E+05   -1.8712172E+00
   1.1220831E-04   9.3081809E+05   -1.8707762E+00
   1.1272650E-04   9.2283027E+05   -1.8703342E+00
   1.1324708E-04   9.1491286E+05   -1.8698912E+00
   1.1377007E-04   9.0706524E+05   -1.8694472E+00
   1.1429547E-04   8.9928678E+05   -1.8690022E+00
   1.1482330E-04   8.9157684E+05   -1.8685563E+00
   1.1535356E-04   8.8393483E+05   -1.8681094E+00
   1.1588628E-04   8.7636012E+05   -1.8676615E+00
   1.1642145E-04   8.6885211E+05   -1.8672126E+00
   1.1695910E-04   8.6141022E+05   -1.8667628E+00
   1.1749923E-04   8.5403383E+05   -1.8663120E+00
   1.1804185E-04   8.4672238E+05   -1.8658602E+00
   1.1858698E-04   8.3947526E+05   -1.8654075E+00
   1.1913463E-04   8.3229191E+05   -1.8649538E+00
   1.1968481E-04   8.2517176E+05   -1.8644991E+00
   1.2023752E-04   8.1811423E+05   -1.8640435E+00
   1.2079279E-04   8.1111877E+05   -1.8635869E+00
   1.2135063E-04   8.0418482E+05   -1.8631293E+00
   1.2191104E-04   7.9731183E+05   -1.8626708E+00
   1.2247403E-04   7.9049925E+05   -1.8622114E+00
   1.2303963E-04   7.8374654E+05   -1.8617510E+00
   1.2360784E-04   7.7705317E+05   -1.8612896E+00
   1.2417868E-04   7.7041859E+05   -1.8608274E+00
   1.2475215E-04   7.6384230E+05   -1.8603641E+00
   1.2532826E-04   7.5732375E+05   -1.8598999E+00
   1.2590704E-04   7.5086244E+05   -1.8594348E+00
   1.2648850E-04   7.4445786E+05   -1.8589687E+00
   1.2707263E-04   7.3810949E+05   -1.8585017E+00
   1.2765947E-04   7.3181683E+05   -1.8580338E+00
   1.2824901E-04   7.2557938E+05   -1.8575649E+00
   1.2884128E-04   7.1939666E+05   -1.8570951E+00
   1.2943628E-04   7.1326816E+05   -1.8566244E+00
   1.3003403E-04   7.0719341E+05   -1.8561527E+00
   1.3063454E-04   7.0117192E+05   -1.8556802E+00
   1.3123783E-04   6.9520322E+05   -1.8552066E+00
   1.3184390E-04   6.8928683E+05   -1.8547322E+00
   1.3245277E-04   6.8342228E+05   -1.8542569E+00
   1.3306445E-04   6.7760912E+05   -1.8537806E+00
   1.3367895E-04   6.7184687E+05   -1.8533035E+00
   1.3429630E-04   6.6613510E+05   -1.8528254E+00
   1.3491649E-04   6.6047334E+05   -1.8523464E+00
   1.3553955E-04   6.5486115E+05   -1.8518665E+00
   1.3616548E-04   6.4929808E+05   -1.8513858E+00
   1.3679431E-04   6.4378370E+05   -1.8509041E+00
   1.3742604E-04   6.3831758E+05   -1.8504215E+00
   1.3806069E-04   6.3289927E+05   -1.8499380E+00
   1.3869827E-04   6.2752835E+05   -1.8494536E+00
   1.3933879E-04   6.2220440E+05   -1.8489684E+00
   1.3998227E-04   6.1692700E+05   -1.8484822E+00
   1.4062872E-04   6.1169573E+05   -1.8479952E+00
   1.4127816E-04   6.0651019E+05   -1.8475073E+00
   1.4193060E-04   6.0136995E+05   -1.8470185E+00
   1.4258605E-04   5.9627463E+05   -1.8465289E+00
   1.4324453E-04   5.9122381E+05   -1.8460383E+00
   1.4390605E-04   5.8621710E+05   -1.8455469E+00
   1.4457062E-04   5.8125411E+05   -1.8450547E+00
   1.4523826E-04   5.7633444E+05   -1.8445615E+00
   1.4590899E-04   5.7145771E+05   -1.8440675E+00
   1.4658281E-04   5.6662354E+05   -1.8435727E+00
   1.4725974E-04   5.6183155E+05   -1.8430770E+00
   1.4793981E-04   5.5708135E+05   -1.8425804E+00
   1.4862301E-04   5.5237258E+05   -1.8420830E+00
   1.4930936E-04   5.4770487E+05   -1.8415848E+00
   1.4999889E-04   5.4307785E+05   -1.8410857E+00
   1.5069160E-04   5.3849116E+05   -1.8405858E+00
   1.5138751E-04   5.3394443E+05   -1.8400850E+00
   1.5208663E-04   5.2943732E+05   -1.8395834E+00
   1.5278899E-04   5.2496947E+05   -1.8390810E+00
   1.5349458E-04   5.2054053E+05   -1.8385777E+00
   1.5420343E-04   5.1615015E+05   -1.8380737E+00
   1.5491556E-04   5.1179799E+05   -1.8375688E+00
   1.5563098E-04   5.0748371E+05   -1.8370631E+00
   1.5634970E-04   5.0320697E+05   -1.8365565E+00
   1.5707174E-04   4.9896744E+05   -1.8360492E+00
   1.5779711E-04   4.9476479E+05   -1.8355411E+00
   1.5852584E-04   4.9059868E+05   -1.8350321E+00
   1.5925792E-04   4.8646879E+05   -1.8345224E+00
   1.5999339E-04   4.8237480E+05   -1.8340119E+00
   1.6073226E-04   4.7831639E+05   -1.8335006E+00
   1.6147454E-04   4.7429325E+05   -1.8329884E+00
   1.6222024E-04   4.7030505E+05   -1.8324755E+00
   1.6296939E-04   4.6635149E+05   -1.8319619E+00
   1.6372200E-04   4.6243227E+05   -1.8314474E+00
   1.6447809E-04   4.5854707E+05   -1.8309322E+00
   1.6523767E-04   4.5469559E+05   -1.8304162E+00
   1.6600075E-04   4.5087753E+05   -1.8298995E+00
   1.6676736E-04   4.4709260E+05   -1.8293819E+00
   1.6753751E-04   4.4334050E+05   -1.8288637E+00
   1.6831122E-04   4.3962094E+05   -1.8283446E+00
   1.6908849E-04   4.3593363E+05   -1.8278248E+00
   1.6986936E-04   4.3227828E+05   -1.8273043E+00
   1.7065384E-04   4.2865461E+05   -1.8267830E+00
   1.7144193E-04   4.2506233E+05   -1.8262610E+00
   1.7223367E-04   4.2150118E+05   -1.8257383E+00
   1.7302906E-04   4.1797087E+05   -1.8252148E+00
   1.7382813E-04   4.1447113E+05   -1.8246906E+00
   1.7463089E-04   4.1100169E+05   -1.8241657E+00
   1.7543735E-04   4.0756227E+05   -1.8236401E+00
   1.7624754E-04   4.0415262E+05   -1.8231137E+00
   1.7706147E-04   4.0077246E+05   -1.8225866E+00
   1.7787916E-04   3.9742154E+05   -1.8220589E+00
   1.7870062E-04   3.9409960E+05   -1.8215304E+00
   1.7952588E-04   3.9080637E+05   -1.8210012E+00
   1.8035495E-04   3.8754161E+05   -1.8204714E+00
   1.8118785E-04   3.8430507E+05   -1.8199408E+00
   1.8202459E-04   3.8109648E+05   -1.8194096E+00
   1.8286520E-04   3.7791561E+05   -1.8188776E+00
   1.8370969E-04   3.7476221E+05   -1.8183451E+00
   1.8455808E-04   3.7163603E+05   -1.8178118E+00
   1.8541039E-04   3.6853684E+05   -1.8172779E+00
   1.8626663E-04   3.6546439E+05   -1.8167433E+00
   1.8712683E-04   3.6241845E+05   -1.8162080E+00
   1.8799100E-04   3.5939878E+05   -1.8156721E+00
   1.8885917E-04   3.5640516E+05   -1.8151355E+00
   1.8973134E-04   3.5343734E+05   -1.8145983E+00
   1.9060754E-04   3.5049510E+05   -1.8140605E+00
   1.9148778E-04   3.4757822E+05   -1.8135220E+00
   1.9237209E-04   3.4468647E+05   -1.8129829E+00
   1.9326049E-04   3.4181963E+05   -1.8124432E+00
   1.9415299E-04   3.3897747E+05   -1.8119028E+00
   1.9504960E-04   3.3615979E+05   -1.8113619E+00
   1.9595036E-04   3.3336635E+05   -1.8108203E+00
   1.9685528E-04   3.3059696E+05   -1.8102781E+00
   1.9776438E-04   3.2785139E+05   -1.8097353E+00
   1.9867768E-04   3.2512944E+05   -1.8091919E+00
   1.9959519E-04   3.2243089E+05   -1.8086479E+00
   2.0051694E-04   3.1975555E+05   -1.8081033E+00
   2.0144295E-04   3.1710319E+05   -1.8075582E+00
   2.0237324E-04   3.1447363E+05   -1.8070124E+00
   2.0330782E-04   3.1186666E+05   -1.8064661E+00
   2.0424671E-04   3.0928208E+05   -1.8059192E+00
   2.0518995E-04   3.0671969E+05   -1.8053718E+00
   2.0613754E-04   3.0417930E+05   -1.8048238E+00
   2.0708950E-04   3.0166071E+05   -1.8042752E+00
   2.0804586E-04   2.9916373E+05   -1.8037261E+00
   2.0900664E-04   2.9668818E+05   -1.8031765E+00
   2.0997185E-04   2.9423385E+05   -1.8026263E+00
   2.1094152E-04   2.9180057E+05   -1.8020755E+00
   2.1191567E-04   2.8938814E+05   -1.8015243E+00
   2.1289432E-04   2.8699639E+05   -1.8009725E+00
   2.1387749E-04   2.8462512E+05   -1.8004202E+00
   2.1486520E-04   2.8227417E+05   -1.7998674E+00
   2.1585747E-04   2.7994335E+05   -1.7993141E+00
   2.1685432E-04   2.7763249E+05   -1.7987602E+00
   2.1785578E-04   2.7534140E+05   -1.7982059E+00
   2.1886186E-04   2.7306992E+05   -1.7976511E+00
   2.1987259E-04   2.7081787E+05   -1.7970958E+00
   2.2088798E-04   2.6858508E+05   -1.7965400E+00
   2.2190807E-04   2.6637138E+05   -1.7959837E+00
   2.2293286E-04   2.6417661E+05   -1.7954270E+00
   2.2396239E-04   2.6200059E+05   -1.7948698E+00
   2.2499667E-04   2.5984316E+05   -1.7943121E+00
   2.2603573E-04   2.5770416E+05   -1.7937540E+00
   2.2707958E-04   2.5558342E+05   -1.7931954E+00
   2.2812826E-04   2.5348079E+05   -1.7926364E+00
   2.2918178E-04   2.5139611E+05   -1.7920770E+00
   2.3024017E-04   2.4932921E+05   -1.7915171E+00
   2.3130344E-04   2.4727995E+05   -1.7909568E+00
   2.3237162E-04   2.4524816E+05   -1.7903960E+00
   2.3344474E-04   2.4323369E+05   -1.7898349E+00
   2.3452281E-04   2.4123640E+05   -1.7892733E+00
   2.3560586E-04   2.3925612E+05   -1.7887113E+00
   2.3669392E-04   2.3729272E+05   -1.7881489E+00
   2.3778699E-04   2.3534604E+05   -1.7875861E+00
   2.3888512E-04   2.3341593E+05   -1.7870230E+00
   2.3998831E-04   2.3150225E+05   -1.7864594E+00
   2.4109661E-04   2.2960486E+05   -1.7858955E+00
   2.4221001E-04   2.2772361E+05   -1.7853312E+00
   2.4332857E-04   2.2585837E+05   -1.7847665E+00
   2.4445228E-04   2.2400898E+05   -1.7842015E+00
   2.4558119E-04   2.2217531E+05   -1.7836361E+00
   2.4671531E-04   2.2035723E+05   -1.7830703E+00
   2.4785467E-04   2.1855460E+05   -1.7825042E+00
   2.4899928E-04   2.1676728E+05   -1.7819378E+00
   2.5014919E-04   2.1499514E+05   -1.7813710E+00
   2.5130440E-04   2.1323804E+05   -1.7808040E+00
   2.5246495E-04   2.1149586E+05   -1.7802365E+00
   2.5363086E-04   2.0976845E+05   -1.7796688E+00
   2.5480216E-04   2.0805570E+05   -1.7791008E+00
   2.5597886E-04   2.0635748E+05   -1.7785324E+00
   2.5716100E-04   2.0467365E+05   -1.7779638E+00
   2.5834859E-04   2.0300410E+05   -1.7773948E+00
   2.5954168E-04   2.0134869E+05   -1.7768256E+00
   2.6074027E-04   1.9970730E+05   -1.7762561E+00
   2.6194439E-04   1.9807981E+05   -1.7756863E+00
   2.6315408E-04   1.9646611E+05   -1.7751162E+00
   2.6436935E-04   1.9486606E+05   -1.7745459E+00
   2.6559024E-04   1.9327955E+05   -1.7739753E+00
   2.6681676E-04   1.9170646E+05   -1.7734045E+00
   2.6804895E-04   1.9014668E+05   -1.7728334E+00
   2.6928683E-04   1.8860008E+05   -1.7722621E+00
   2.7053042E-04   1.8706656E+05   -1.7716906E+00
   2.7177976E-04   1.8554599E+05   -1.7711188E+00
   2.7303487E-04   1.8403826E+05   -1.7705468E+00
   2.7429577E-04   1.8254327E+05   -1.7699745E+00
   2.7556250E-04   1.8106091E+05   -1.7694021E+00
   2.7683507E-04   1.7959105E+05   -1.7688295E+00
   2.7811353E-04   1.7813359E+05   -1.7682566E+00
   2.7939788E-04   1.7668843E+05   -1.7676836E+00
   2.8068817E-04   1.7525546E+05   -1.7671104E+00
   2.8198442E-04   1.7383457E+05   -1.7665370E+00
   2.8328665E-04   1.7242565E+05   -1.7659634E+00
   2.8459490E-04   1.7102861E+05   -1.7653897E+00
   2.8590919E-04   1.6964333E+05   -1.7648157E+00
   2.8722955E-04   1.6826972E+05   -1.7642417E+00
   2.8855600E-04   1.6690767E+05   -1.7636675E+00
   2.8988859E-04   1.6555708E+05   -1.7630931E+00
   2.9122732E-04   1.6421786E+05   -1.7625186E+00
   2.9257224E-04   1.6288990E+05   -1.7619440E+00
   2.9392337E-04   1.6157311E+05   -1.7613692E+00
   2.9528074E-04   1.6026739E+05   -1.7607943E+00
   2.9664438E-04   1.5897264E+05   -1.7602193E+00
   2.9801431E-04   1.5768877E+05   -1.7596442E+00
   2.9939057E-04   1.5641568E+05   -1.7590690E+00
   3.0077319E-04   1.5515328E+05   -1.7584937E+00
   3.0216219E-04   1.5390148E+05   -1.7579183E+00
   3.0355761E-04   1.5266018E+05   -1.7573428E+00
   3.0495947E-04   1.5142930E+05   -1.7567672E+00
   3.0636780E-04   1.5020874E+05   -1.7561916E+00
   3.0778264E-04   1.4899841E+05   -1.7556159E+00
   3.0920401E-04   1.4779822E+05   -1.7550402E+00
   3.1063195E-04   1.4660810E+05   -1.7544643E+00
   3.1206648E-04   1.4542794E+05   -1.7538885E+00
   3.1350764E-04   1.4425766E+05   -1.7533126E+00
   3.1495545E-04   1.4309718E+05   -1.7527366E+00
   3.1640994E-04   1.4194642E+05   -1.7521607E+00
   3.1787116E-04   1.4080528E+05   -1.7515847E+00
   3.1933912E-04   1.3967369E+05   -1.7510087E+00
   3.2081386E-04   1.3855156E+05   -1.7504326E+00
   3.2229541E-04   1.3743880E+05   -1.7498566E+00
   3.2378381E-04   1.3633535E+05   -1.7492806E+00
   3.2527908E-04   1.3524111E+05   -1.7487046E+00
   3.2678125E-04   1.3415602E+05   -1.7481286E+00
   3.2829036E-04   1.3307998E+05   -1.7475526E+00
   3.2980644E-04   1.3201292E+05   -1.7469766E+00
   3.3132952E-04   1.3095477E+05   -1.7464007E+00
   3.3285963E-04   1.2990544E+05   -1.7458248E+00
   3.3439681E-04   1.2886487E+05   -1.7452490E+00
   3.3594109E-04   1.2783297E+05   -1.7446732E+00
   3.3749250E-04   1.2680966E+05   -1.7440974E+00
   3.3905108E-04   1.2579489E+05   -1.7435217E+00
   3.4061685E-04   1.2478856E+05   -1.7429461E+00
   3.4218986E-04   1.2379061E+05   -1.7423706E+00
   3.4377013E-04   1.2280097E+05   -1.7417951E+00
   3.4535769E-04   1.2181957E+05   -1.7412197E+00
   3.4695259E-04   1.2084632E+05   -1.7406445E+00
   3.4855485E-04   1.1988117E+05   -1.7400693E+00
   3.5016452E-04   1.1892405E+05   -1.7394942E+00
   3.5178161E-04   1.1797488E+05   -1.7389192E+00
   3.5340618E-04   1.1703359E+05   -1.7383444E+00
   3.5503824E-04   1.1610012E+05   -1.7377697E+00
   3.5667785E-04   1.1517440E+05   -1.7371951E+00
   3.5832502E-04   1.1425637E+05   -1.7366206E+00
   3.5997981E-04   1.1334595E+05   -1.7360463E+00
   3.6164223E-04   1.1244309E+05   -1.7354721E+00
   3.6331233E-04   1.1154771E+05   -1.7348981E+00
   3.6499015E-04   1.1065975E+05   -1.7343242E+00
   3.6667571E-04   1.0977916E+05   -1.7337505E+00
   3.6836906E-04   1.0890585E+05   -1.7331770E+00
   3.7007022E-04   1.0803978E+05   -1.7326037E+00
   3.7177925E-04   1.0718089E+05   -1.7320305E+00
   3.7349616E-04   1.0632910E+05   -1.7314575E+00
   3.7522101E-04   1.0548435E+05   -1.7308847E+00
   3.7695382E-04   1.0464660E+05   -1.7303121E+00
   3.7869463E-04   1.0381577E+05   -1.7297398E+00
   3.8044348E-04   1.0299181E+05   -1.7291676E+00
   3.8220041E-04   1.0217466E+05   -1.7285957E+00
   3.8396545E-04   1.0136426E+05   -1.7280239E+00
   3.8573864E-04   1.0056055E+05   -1.7274525E+00
   3.8752002E-04   9.9763481E+04   -1.7268812E+00
   3.8930963E-04   9.8972986E+04   -1.7263102E+00
   3.9110750E-04   9.8189014E+04   -1.7257394E+00
   3.9291368E-04   9.7411507E+04   -1.7251689E+00
   3.9472820E-04   9.6640411E+04   -1.7245987E+00
   3.9655109E-04   9.5875671E+04   -1.7240287E+00
   3.9838241E-04   9.5117232E+04   -1.7234590E+00
   4.0022218E-04   9.4365040E+04   -1.7228896E+00
   4.0207045E-04   9.3619043E+04   -1.7223204E+00
   4.0392725E-04   9.2879187E+04   -1.7217516E+00
   4.0579263E-04   9.2145419E+04   -1.7211830E+00
   4.0766662E-04   9.1417687E+04   -1.7206147E+00
   4.0954927E-04   9.0695940E+04   -1.7200468E+00
   4.1144061E-04   8.9980127E+04   -1.7194791E+00
   4.1334068E-04   8.9270196E+04   -1.7189118E+00
   4.1524953E-04   8.8566098E+04   -1.7183448E+00
   4.1716720E-04   8.7867783E+04   -1.7177782E+00
   4.1909372E-04   8.7175202E+04   -1.7172118E+00
   4.2102914E-04   8.6488305E+04   -1.7166458E+00
   4.2297350E-04   8.5807044E+04   -1.7160802E+00
   4.2492683E-04   8.5131372E+04   -1.7155149E+00
   4.2688919E-04   8.4461239E+04   -1.7149500E+00
   4.2886061E-04   8.3796600E+04   -1.7143854E+00
   4.3084113E-04   8.3137408E+04   -1.7138212E+00
   4.3283080E-04   8.2483615E+04   -1.7132574E+00
   4.3482966E-04   8.1835176E+04   -1.7126939E+00
   4.3683775E-04   8.1192046E+04   -1.7121308E+00
   4.3885511E-04   8.0554178E+04   -1.7115682E+00
   4.4088179E-04   7.9921529E+04   -1.7110059E+00
   4.4291783E-04   7.9294054E+04   -1.7104440E+00
   4.4496327E-04   7.8671709E+04   -1.7098826E+00
   4.4701816E-04   7.8054451E+04   -1.7093215E+00
   4.4908253E-04   7.7442235E+04   -1.7087609E+00
   4.5115644E-04   7.6835020E+04   -1.7082007E+00
   4.5323993E-04   7.6232762E+04   -1.7076409E+00
   4.5533304E-04   7.5635421E+04   -1.7070816E+00
   4.5743582E-04   7.5042953E+04   -1.7065227E+00
   4.5954830E-04   7.4455318E+04   -1.7059643E+00
   4.6167054E-04   7.3872474E+04   -1.7054063E+00
   4.6380259E-04   7.3294382E+04   -1.7048487E+00
   4.6594448E-04   7.2721000E+04   -1.7042917E+00
   4.6809626E-04   7.2152288E+04   -1.7037351E+00
   4.7025797E-04   7.1588208E+04   -1.7031789E+00
   4.7242967E-04   7.1028719E+04   -1.7026233E+00
   4.7461140E-04   7.0473784E+04   -1.7020681E+00
   4.7680321E-04   6.9923362E+04   -1.7015134E+00
   4.7900514E-04   6.9377417E+04   -1.7009592E+00
   4.8121723E-04   6.8835911E+04   -1.7004056E+00
   4.8343954E-04   6.8298805E+04   -1.6998524E+00
   4.8567212E-04   6.7766063E+04   -1.6992997E+00
   4.8791500E-04   6.7237647E+04   -1.6987476E+00
   4.9016825E-04   6.6713521E+04   -1.6981959E+00
   4.9243189E-04   6.6193649E+04   -1.6976448E+00
   4.9470600E-04   6.5677995E+04   -1.6970942E+00
   4.9699060E-04   6.5166523E+04   -1.6965442E+00
   4.9928575E-04   6.4659198E+04   -1.6959947E+00
   5.0159151E-04   6.4155985E+04   -1.6954457E+00
   5.0390791E-04   6.3656849E+04   -1.6948973E+00
   5.0623501E-04   6.3161756E+04   -1.6943495E+00
   5.0857286E-04   6.2670672E+04   -1.6938022E+00
   5.1092150E-04   6.2183562E+04   -1.6932554E+00
   5.1328099E-04   6.1700394E+04   -1.6927093E+00
   5.1565137E-04   6.1221135E+04   -1.6921637E+00
   5.1803270E-04   6.0745750E+04   -1.6916187E+00
   5.2042503E-04   6.0274208E+04   -1.6910743E+00
   5.2282841E-04   5.9806477E+04   -1.6905305E+00
   5.2524289E-04   5.9342523E+04   -1.6899872E+00
   5.2766851E-04   5.8882317E+04   -1.6894446E+00
   5.3010534E-04   5.8425825E+04   -1.6889026E+00
   5.3255342E-04   5.7973016E+04   -1.6883611E+00
   5.3501281E-04   5.7523861E+04   -1.6878203E+00
   5.3748356E-04   5.7078327E+04   -1.6872801E+00
   5.3996571E-04   5.6636385E+04   -1.6867406E+00
   5.4245933E-04   5.6198005E+04   -1.6862016E+00
   5.4496446E-04   5.5763156E+04   -1.6856633E+00
   5.4748117E-04   5.5331810E+04   -1.6851257E+00
   5.5000949E-04   5.4903935E+04   -1.6845886E+00
   5.5254949E-04   5.4479504E+04   -1.6840523E+00
   5.5510123E-04   5.4058488E+04   -1.6835165E+00
   5.5766474E-04   5.3640858E+04   -1.6829815E+00
   5.6024010E-04   5.3226585E+04   -1.6824470E+00
   5.6282734E-04   5.2815641E+04   -1.6819133E+00
   5.6542654E-04   5.2408000E+04   -1.6813802E+00
   5.6803774E-04   5.2003631E+04   -1.6808478E+00
   5.7066099E-04   5.1602510E+04   -1.6803160E+00
   5.7329637E-04   5.1204608E+04   -1.6797850E+00
   5.7594391E-04   5.0809898E+04   -1.6792546E+00
   5.7860368E-04   5.0418354E+04   -1.6787249E+00
   5.8127573E-04   5.0029950E+04   -1.6781960E+00
   5.8396012E-04   4.9644658E+04   -1.6776677E+00
   5.8665691E-04   4.9262454E+04   -1.6771401E+00
   5.8936616E-04   4.8883310E+04   -1.6766132E+00
   5.9208791E-04   4.8507203E+04   -1.6760870E+00
   5.9482223E-04   4.8134106E+04   -1.6755616E+00
   5.9756919E-04   4.7763994E+04   -1.6750368E+00
   6.0032882E-04   4.7396842E+04   -1.6745128E+00
   6.0310120E-04   4.7032626E+04   -1.6739896E+00
   6.0588639E-04   4.6671321E+04   -1.6734670E+00
   6.0868443E-04   4.6312904E+04   -1.6729452E+00
   6.1149540E-04   4.5957349E+04   -1.6724241E+00
   6.1431935E-04   4.5604633E+04   -1.6719038E+00
   6.1715634E-04   4.5254733E+04   -1.6713842E+00
   6.2000644E-04   4.4907625E+04   -1.6708653E+00
   6.2286969E-04   4.4563286E+04   -1.6703473E+00
