#        a       HoverH0(a)       dlogHdloga_of_a(a)
   1.0000000E-04   1.1043207E+06   -1.8998694E+00
   1.0046181E-04   1.0946970E+06   -1.8994999E+00
   1.0092575E-04   1.0851591E+06   -1.8991294E+00
   1.0139184E-04   1.0757061E+06   -1.8987579E+00
   1.0186008E-04   1.0663372E+06   -1.8983854E+00
   1.0233048E-04   1.0570518E+06   -1.8980118E+00
   1.0280305E-04   1.0478491E+06   -1.8976372E+00
   1.0327781E-04   1.0387282E+06   -1.8972616E+00
   1.0375475E-04   1.0296886E+06   -1.8968850E+00
   1.0423390E-04   1.0207293E+06   -1.8965073E+00
   1.0471527E-04   1.0118498E+06   -1.8961287E+00
   1.0519885E-04   1.0030493E+06   -1.8957490E+00
   1.0568467E-04   9.9432709E+05   -1.8953683E+00
   1.0617274E-04   9.8568245E+05   -1.8949865E+00
   1.0666305E-04   9.7711467E+05   -1.8946038E+00
   1.0715563E-04   9.6862309E+05   -1.8942200E+00
   1.0765049E-04   9.6020700E+05   -1.8938352E+00
   1.0814763E-04   9.5186572E+05   -1.8934494E+00
   1.0864707E-04   9.4359859E+05   -1.8930626E+00
   1.0914881E-04   9.3540492E+05   -1.8926747E+00
   1.0965287E-04   9.2728407E+05   -1.8922858E+00
   1.1015926E-04   9.1923536E+05   -1.8918959E+00
   1.1066799E-04   9.1125816E+05   -1.8915050E+00
   1.1117906E-04   9.0335181E+05   -1.8911130E+00
   1.1169250E-04   8.9551568E+05   -1.8907201E+00
   1.1220831E-04   8.8774913E+05   -1.8903261E+00
   1.1272650E-04   8.8005154E+05   -1.8899311E+00
   1.1324708E-04   8.7242228E+05   -1.8895351E+00
   1.1377007E-04   8.6486075E+05   -1.8891380E+00
   1.1429547E-04   8.5736632E+05   -1.8887399E+00
   1.1482330E-04   8.4993840E+05   -1.8883409E+00
   1.1535356E-04   8.4257638E+05   -1.8879408E+00
   1.1588628E-04   8.3527967E+05   -1.8875396E+00
   1.1642145E-04   8.2804768E+05   -1.8871375E+00
   1.1695910E-04   8.2087983E+05   -1.8867343E+00
   1.1749923E-04   8.1377554E+05   -1.8863302E+00
   1.1804185E-04   8.0673424E+05   -1.8859250E+00
   1.1858698E-04   7.9975536E+05   -1.8855187E+00
   1.1913463E-04   7.9283833E+05   -1.8851115E+00
   1.1968481E-04   7.8598261E+05   -1.8847033E+00
   1.2023752E-04   7.7918764E+05   -1.8842940E+00
   1.2079279E-04   7.7245288E+05   -1.8838838E+00
   1.2135063E-04   7.6577777E+05   -1.8834725E+00
   1.2191104E-04   7.5916178E+05   -1.8830602E+00
   1.2247403E-04   7.5260439E+05   -1.8826469E+00
   1.2303963E-04   7.4610506E+05   -1.8822325E+00
   1.2360784E-04   7.3966327E+05   -1.8818172E+00
   1.2417868E-04   7.3327850E+05   -1.8814009E+00
   1.2475215E-04   7.2695024E+05   -1.8809835E+00
   1.2532826E-04   7.2067798E+05   -1.8805651E+00
   1.2590704E-04   7.1446122E+05   -1.8801458E+00
   1.2648850E-04   7.0829945E+05   -1.8797254E+00
   1.2707263E-04   7.0219219E+05   -1.8793040E+00
   1.2765947E-04   6.9613895E+05   -1.8788816E+00
   1.2824901E-04   6.9013923E+05   -1.8784582E+00
   1.2884128E-04   6.8419255E+05   -1.8780338E+00
   1.2943628E-04   6.7829844E+05   -1.8776084E+00
   1.3003403E-04   6.7245643E+05   -1.8771820E+00
   1.3063454E-04   6.6666605E+05   -1.8767546E+00
   1.3123783E-04   6.6092683E+05   -1.8763262E+00
   1.3184390E-04   6.5523831E+05   -1.8758968E+00
   1.3245277E-04   6.4960003E+05   -1.8754664E+00
   1.3306445E-04   6.4401156E+05   -1.8750350E+00
   1.3367895E-04   6.3847243E+05   -1.8746026E+00
   1.3429630E-04   6.3298220E+05   -1.8741692E+00
   1.3491649E-04   6.2754044E+05   -1.8737349E+00
   1.3553955E-04   6.2214671E+05   -1.8732995E+00
   1.3616548E-04   6.1680058E+05   -1.8728631E+00
   1.3679431E-04   6.1150162E+05   -1.8724258E+00
   1.3742604E-04   6.0624941E+05   -1.8719874E+00
   1.3806069E-04   6.0104352E+05   -1.8715481E+00
   1.3869827E-04   5.9588354E+05   -1.8711078E+00
   1.3933879E-04   5.9076906E+05   -1.8706665E+00
   1.3998227E-04   5.8569967E+05   -1.8702242E+00
   1.4062872E-04   5.8067497E+05   -1.8697810E+00
   1.4127816E-04   5.7569455E+05   -1.8693367E+00
   1.4193060E-04   5.7075801E+05   -1.8688915E+00
   1.4258605E-04   5.6586497E+05   -1.8684453E+00
   1.4324453E-04   5.6101503E+05   -1.8679982E+00
   1.4390605E-04   5.5620781E+05   -1.8675500E+00
   1.4457062E-04   5.5144292E+05   -1.8671009E+00
   1.4523826E-04   5.4671998E+05   -1.8666508E+00
   1.4590899E-04   5.4203861E+05   -1.8661998E+00
   1.4658281E-04   5.3739845E+05   -1.8657477E+00
   1.4725974E-04   5.3279912E+05   -1.8652948E+00
   1.4793981E-04   5.2824026E+05   -1.8648408E+00
   1.4862301E-04   5.2372151E+05   -1.8643859E+00
   1.4930936E-04   5.1924249E+05   -1.8639300E+00
   1.4999889E-04   5.1480287E+05   -1.8634732E+00
   1.5069160E-04   5.1040228E+05   -1.8630154E+00
   1.5138751E-04   5.0604038E+05   -1.8625566E+00
   1.5208663E-04   5.0171681E+05   -1.8620970E+00
   1.5278899E-04   4.9743124E+05   -1.8616363E+00
   1.5349458E-04   4.9318332E+05   -1.8611747E+00
   1.5420343E-04   4.8897272E+05   -1.8607122E+00
   1.5491556E-04   4.8479911E+05   -1.8602487E+00
   1.5563098E-04   4.8066214E+05   -1.8597842E+00
   1.5634970E-04   4.7656150E+05   -1.8593189E+00
   1.5707174E-04   4.7249686E+05   -1.8588526E+00
   1.5779711E-04   4.6846789E+05   -1.8583853E+00
   1.5852584E-04   4.6447427E+05   -1.8579171E+00
   1.5925792E-04   4.6051570E+05   -1.8574480E+00
   1.5999339E-04   4.5659185E+05   -1.8569780E+00
   1.6073226E-04   4.5270242E+05   -1.8565070E+00
   1.6147454E-04   4.4884709E+05   -1.8560351E+00
   1.6222024E-04   4.4502556E+05   -1.8555623E+00
   1.6296939E-04   4.4123754E+05   -1.8550885E+00
   1.6372200E-04   4.3748271E+05   -1.8546139E+00
   1.6447809E-04   4.3376079E+05   -1.8541383E+00
   1.6523767E-04   4.3007147E+05   -1.8536618E+00
   1.6600075E-04   4.2641447E+05   -1.8531844E+00
   1.6676736E-04   4.2278949E+05   -1.8527061E+00
   1.6753751E-04   4.1919626E+05   -1.8522269E+00
   1.6831122E-04   4.1563448E+05   -1.8517468E+00
   1.6908849E-04   4.1210388E+05   -1.8512657E+00
   1.6986936E-04   4.0860418E+05   -1.8507838E+00
   1.7065384E-04   4.0513510E+05   -1.8503010E+00
   1.7144193E-04   4.0169636E+05   -1.8498173E+00
   1.7223367E-04   3.9828770E+05   -1.8493327E+00
   1.7302906E-04   3.9490885E+05   -1.8488472E+00
   1.7382813E-04   3.9155954E+05   -1.8483608E+00
   1.7463089E-04   3.8823951E+05   -1.8478736E+00
   1.7543735E-04   3.8494849E+05   -1.8473854E+00
   1.7624754E-04   3.8168623E+05   -1.8468964E+00
   1.7706147E-04   3.7845247E+05   -1.8464065E+00
   1.7787916E-04   3.7524695E+05   -1.8459157E+00
   1.7870062E-04   3.7206943E+05   -1.8454241E+00
   1.7952588E-04   3.6891965E+05   -1.8449316E+00
   1.8035495E-04   3.6579736E+05   -1.8444383E+00
   1.8118785E-04   3.6270232E+05   -1.8439440E+00
   1.8202459E-04   3.5963430E+05   -1.8434490E+00
   1.8286520E-04   3.5659303E+05   -1.8429530E+00
   1.8370969E-04   3.5357830E+05   -1.8424562E+00
   1.8455808E-04   3.5058986E+05   -1.8419586E+00
   1.8541039E-04   3.4762747E+05   -1.8414601E+00
   1.8626663E-04   3.4469090E+05   -1.8409608E+00
   1.8712683E-04   3.4177993E+05   -1.8404607E+00
   1.8799100E-04   3.3889433E+05   -1.8399597E+00
   1.8885917E-04   3.3603386E+05   -1.8394579E+00
   1.8973134E-04   3.3319831E+05   -1.8389552E+00
   1.9060754E-04   3.3038745E+05   -1.8384518E+00
   1.9148778E-04   3.2760106E+05   -1.8379475E+00
   1.9237209E-04   3.2483893E+05   -1.8374423E+00
   1.9326049E-04   3.2210084E+05   -1.8369364E+00
   1.9415299E-04   3.1938657E+05   -1.8364297E+00
   1.9504960E-04   3.1669591E+05   -1.8359221E+00
   1.9595036E-04   3.1402866E+05   -1.8354138E+00
   1.9685528E-04   3.1138460E+05   -1.8349046E+00
   1.9776438E-04   3.0876353E+05   -1.8343947E+00
   1.9867768E-04   3.0616524E+05   -1.8338839E+00
   1.9959519E-04   3.0358953E+05   -1.8333724E+00
   2.0051694E-04   3.0103620E+05   -1.8328601E+00
   2.0144295E-04   2.9850505E+05   -1.8323470E+00
   2.0237324E-04   2.9599589E+05   -1.8318331E+00
   2.0330782E-04   2.9350850E+05   -1.8313184E+00
   2.0424671E-04   2.9104272E+05   -1.8308030E+00
   2.0518995E-04   2.8859833E+05   -1.8302868E+00
   2.0613754E-04   2.8617515E+05   -1.8297698E+00
   2.0708950E-04   2.8377300E+05   -1.8292521E+00
   2.0804586E-04   2.8139168E+05   -1.8287336E+00
   2.0900664E-04   2.7903102E+05   -1.8282144E+00
   2.0997185E-04   2.7669082E+05   -1.8276944E+00
   2.1094152E-04   2.7437090E+05   -1.8271737E+00
   2.1191567E-04   2.7207109E+05   -1.8266522E+00
   2.1289432E-04   2.6979120E+05   -1.8261300E+00
   2.1387749E-04   2.6753107E+05   -1.8256070E+00
   2.1486520E-04   2.6529050E+05   -1.8250833E+00
   2.1585747E-04   2.6306934E+05   -1.8245589E+00
   2.1685432E-04   2.6086740E+05   -1.8240338E+00
   2.1785578E-04   2.5868453E+05   -1.8235080E+00
   2.1886186E-04   2.5652053E+05   -1.8229814E+00
   2.1987259E-04   2.5437526E+05   -1.8224542E+00
   2.2088798E-04   2.5224855E+05   -1.8219262E+00
   2.2190807E-04   2.5014022E+05   -1.8213975E+00
   2.2293286E-04   2.4805012E+05   -1.8208682E+00
   2.2396239E-04   2.4597808E+05   -1.8203381E+00
   2.2499667E-04   2.4392395E+05   -1.8198074E+00
   2.2603573E-04   2.4188757E+05   -1.8192759E+00
   2.2707958E-04   2.3986877E+05   -1.8187438E+00
   2.2812826E-04   2.3786740E+05   -1.8182110E+00
   2.2918178E-04   2.3588331E+05   -1.8176776E+00
   2.3024017E-04   2.3391635E+05   -1.8171435E+00
   2.3130344E-04   2.3196636E+05   -1.8166087E+00
   2.3237162E-04   2.3003319E+05   -1.8160733E+00
   2.3344474E-04   2.2811670E+05   -1.8155372E+00
   2.3452281E-04   2.2621674E+05   -1.8150004E+00
   2.3560586E-04   2.2433315E+05   -1.8144630E+00
   2.3669392E-04   2.2246580E+05   -1.8139250E+00
   2.3778699E-04   2.2061454E+05   -1.8133864E+00
   2.3888512E-04   2.1877922E+05   -1.8128471E+00
   2.3998831E-04   2.1695972E+05   -1.8123072E+00
   2.4109661E-04   2.1515588E+05   -1.8117666E+00
   2.4221001E-04   2.1336757E+05   -1.8112255E+00
   2.4332857E-04   2.1159466E+05   -1.8106837E+00
   2.4445228E-04   2.0983700E+05   -1.8101413E+00
   2.4558119E-04   2.0809445E+05   -1.8095984E+00
   2.4671531E-04   2.0636690E+05   -1.8090548E+00
   2.4785467E-04   2.0465420E+05   -1.8085106E+00
   2.4899928E-04   2.0295623E+05   -1.8079659E+00
   2.5014919E-04   2.0127285E+05   -1.8074206E+00
   2.5130440E-04   1.9960393E+05   -1.8068747E+00
   2.5246495E-04   1.9794935E+05   -1.8063282E+00
   2.5363086E-04   1.9630898E+05   -1.8057811E+00
   2.5480216E-04   1.9468269E+05   -1.8052335E+00
   2.5597886E-04   1.9307036E+05   -1.8046853E+00
   2.5716100E-04   1.9147187E+05   -1.8041366E+00
   2.5834859E-04   1.8988710E+05   -1.8035873E+00
   2.5954168E-04   1.8831592E+05   -1.8030375E+00
   2.6074027E-04   1.8675821E+05   -1.8024872E+00
   2.6194439E-04   1.8521386E+05   -1.8019363E+00
   2.6315408E-04   1.8368274E+05   -1.8013849E+00
   2.6436935E-04   1.8216474E+05   -1.8008329E+00
   2.6559024E-04   1.8065975E+05   -1.8002805E+00
   2.6681676E-04   1.7916765E+05   -1.7997275E+00
   2.6804895E-04   1.7768833E+05   -1.7991740E+00
   2.6928683E-04   1.7622167E+05   -1.7986200E+00
   2.7053042E-04   1.7476756E+05   -1.7980656E+00
   2.7177976E-04   1.7332590E+05   -1.7975106E+00
   2.7303487E-04   1.7189656E+05   -1.7969551E+00
   2.7429577E-04   1.7047945E+05   -1.7963992E+00
   2.7556250E-04   1.6907445E+05   -1.7958428E+00
   2.7683507E-04   1.6768147E+05   -1.7952859E+00
   2.7811353E-04   1.6630039E+05   -1.7947286E+00
   2.7939788E-04   1.6493110E+05   -1.7941708E+00
   2.8068817E-04   1.6357352E+05   -1.7936125E+00
   2.8198442E-04   1.6222752E+05   -1.7930538E+00
   2.8328665E-04   1.6089301E+05   -1.7924946E+00
   2.8459490E-04   1.5956990E+05   -1.7919350E+00
   2.8590919E-04   1.5825807E+05   -1.7913750E+00
   2.8722955E-04   1.5695743E+05   -1.7908145E+00
   2.8855600E-04   1.5566788E+05   -1.7902537E+00
   2.8988859E-04   1.5438933E+05   -1.7896924E+00
   2.9122732E-04   1.5312167E+05   -1.7891306E+00
   2.9257224E-04   1.5186482E+05   -1.7885685E+00
   2.9392337E-04   1.5061867E+05   -1.7880060E+00
   2.9528074E-04   1.4938314E+05   -1.7874431E+00
   2.9664438E-04   1.4815812E+05   -1.7868798E+00
   2.9801431E-04   1.4694353E+05   -1.7863161E+00
   2.9939057E-04   1.4573928E+05   -1.7857521E+00
   3.0077319E-04   1.4454528E+05   -1.7851876E+00
   3.0216219E-04   1.4336142E+05   -1.7846228E+00
   3.0355761E-04   1.4218764E+05   -1.7840577E+00
   3.0495947E-04   1.4102383E+05   -1.7834922E+00
   3.0636780E-04   1.3986991E+05   -1.7829263E+00
   3.0778264E-04   1.3872580E+05   -1.7823601E+00
   3.0920401E-04   1.3759140E+05   -1.7817935E+00
   3.1063195E-04   1.3646664E+05   -1.7812266E+00
   3.1206648E-04   1.3535142E+05   -1.7806594E+00
   3.1350764E-04   1.3424567E+05   -1.7800919E+00
   3.1495545E-04   1.3314930E+05   -1.7795241E+00
   3.1640994E-04   1.3206223E+05   -1.7789559E+00
   3.1787116E-04   1.3098438E+05   -1.7783875E+00
   3.1933912E-04   1.2991567E+05   -1.7778187E+00
   3.2081386E-04   1.2885601E+05   -1.7772496E+00
   3.2229541E-04   1.2780533E+05   -1.7766803E+00
   3.2378381E-04   1.2676355E+05   -1.7761107E+00
   3.2527908E-04   1.2573060E+05   -1.7755408E+00
   3.2678125E-04   1.2470639E+05   -1.7749706E+00
   3.2829036E-04   1.2369084E+05   -1.7744002E+00
   3.2980644E-04   1.2268389E+05   -1.7738295E+00
   3.3132952E-04   1.2168546E+05   -1.7732586E+00
   3.3285963E-04   1.2069547E+05   -1.7726874E+00
   3.3439681E-04   1.1971384E+05   -1.7721160E+00
   3.3594109E-04   1.1874052E+05   -1.7715443E+00
   3.3749250E-04   1.1777542E+05   -1.7709725E+00
   3.3905108E-04   1.1681847E+05   -1.7704004E+00
   3.4061685E-04   1.1586960E+05   -1.7698280E+00
   3.4218986E-04   1.1492874E+05   -1.7692555E+00
   3.4377013E-04   1.1399583E+05   -1.7686828E+00
   3.4535769E-04   1.1307078E+05   -1.7681099E+00
   3.4695259E-04   1.1215354E+05   -1.7675367E+00
   3.4855485E-04   1.1124403E+05   -1.7669634E+00
   3.5016452E-04   1.1034219E+05   -1.7663899E+00
   3.5178161E-04   1.0944795E+05   -1.7658163E+00
   3.5340618E-04   1.0856124E+05   -1.7652425E+00
   3.5503824E-04   1.0768200E+05   -1.7646685E+00
   3.5667785E-04   1.0681016E+05   -1.7640943E+00
   3.5832502E-04   1.0594567E+05   -1.7635200E+00
   3.5997981E-04   1.0508845E+05   -1.7629456E+00
   3.6164223E-04   1.0423844E+05   -1.7623710E+00
   3.6331233E-04   1.0339558E+05   -1.7617963E+00
   3.6499015E-04   1.0255980E+05   -1.7612214E+00
   3.6667571E-04   1.0173106E+05   -1.7606465E+00
   3.6836906E-04   1.0090927E+05   -1.7600714E+00
   3.7007022E-04   1.0009439E+05   -1.7594962E+00
   3.7177925E-04   9.9286356E+04   -1.7589210E+00
   3.7349616E-04   9.8485103E+04   -1.7583456E+00
   3.7522101E-04   9.7690575E+04   -1.7577701E+00
   3.7695382E-04   9.6902715E+04   -1.7571946E+00
   3.7869463E-04   9.6121463E+04   -1.7566189E+00
   3.8044348E-04   9.5346764E+04   -1.7560432E+00
   3.8220041E-04   9.4578558E+04   -1.7554675E+00
   3.8396545E-04   9.3816791E+04   -1.7548917E+00
   3.8573864E-04   9.3061406E+04   -1.7543158E+00
   3.8752002E-04   9.2312349E+04   -1.7537399E+00
   3.8930963E-04   9.1569563E+04   -1.7531639E+00
   3.9110750E-04   9.0832996E+04   -1.7525879E+00
   3.9291368E-04   9.0102592E+04   -1.7520119E+00
   3.9472820E-04   8.9378299E+04   -1.7514358E+00
   3.9655109E-04   8.8660063E+04   -1.7508598E+00
   3.9838241E-04   8.7947832E+04   -1.7502837E+00
   4.0022218E-04   8.7241555E+04   -1.7497076E+00
   4.0207045E-04   8.6541179E+04   -1.7491316E+00
   4.0392725E-04   8.5846654E+04   -1.7485555E+00
   4.0579263E-04   8.5157929E+04   -1.7479794E+00
   4.0766662E-04   8.4474953E+04   -1.7474034E+00
   4.0954927E-04   8.3797677E+04   -1.7468274E+00
   4.1144061E-04   8.3126052E+04   -1.7462514E+00
   4.1334068E-04   8.2460028E+04   -1.7456755E+00
   4.1524953E-04   8.1799558E+04   -1.7450996E+00
   4.1716720E-04   8.1144593E+04   -1.7445238E+00
   4.1909372E-04   8.0495087E+04   -1.7439480E+00
   4.2102914E-04   7.9850990E+04   -1.7433723E+00
   4.2297350E-04   7.9212258E+04   -1.7427966E+00
   4.2492683E-04   7.8578843E+04   -1.7422210E+00
   4.2688919E-04   7.7950701E+04   -1.7416456E+00
   4.2886061E-04   7.7327784E+04   -1.7410702E+00
   4.3084113E-04   7.6710049E+04   -1.7404948E+00
   4.3283080E-04   7.6097450E+04   -1.7399196E+00
   4.3482966E-04   7.5489943E+04   -1.7393445E+00
   4.3683775E-04   7.4887485E+04   -1.7387695E+00
   4.3885511E-04   7.4290032E+04   -1.7381947E+00
   4.4088179E-04   7.3697540E+04   -1.7376199E+00
   4.4291783E-04   7.3109967E+04   -1.7370453E+00
   4.4496327E-04   7.2527270E+04   -1.7364708E+00
   4.4701816E-04   7.1949408E+04   -1.7358965E+00
   4.4908253E-04   7.1376339E+04   -1.7353223E+00
   4.5115644E-04   7.0808022E+04   -1.7347482E+00
   4.5323993E-04   7.0244416E+04   -1.7341743E+00
   4.5533304E-04   6.9685480E+04   -1.7336006E+00
   4.5743582E-04   6.9131175E+04   -1.7330271E+00
   4.5954830E-04   6.8581459E+04   -1.7324537E+00
   4.6167054E-04   6.8036295E+04   -1.7318805E+00
   4.6380259E-04   6.7495642E+04   -1.7313076E+00
   4.6594448E-04   6.6959463E+04   -1.7307348E+00
   4.6809626E-04   6.6427718E+04   -1.7301622E+00
   4.7025797E-04   6.5900370E+04   -1.7295898E+00
   4.7242967E-04   6.5377380E+04   -1.7290176E+00
   4.7461140E-04   6.4858712E+04   -1.7284457E+00
   4.7680321E-04   6.4344328E+04   -1.7278739E+00
   4.7900514E-04   6.3834192E+04   -1.7273025E+00
   4.8121723E-04   6.3328267E+04   -1.7267312E+00
   4.8343954E-04   6.2826517E+04   -1.7261602E+00
   4.8567212E-04   6.2328907E+04   -1.7255894E+00
   4.8791500E-04   6.1835400E+04   -1.7250189E+00
   4.9016825E-04   6.1345962E+04   -1.7244487E+00
   4.9243189E-04   6.0860558E+04   -1.7238787E+00
   4.9470600E-04   6.0379153E+04   -1.7233090E+00
   4.9699060E-04   5.9901714E+04   -1.7227396E+00
   4.9928575E-04   5.9428205E+04   -1.7221704E+00
   5.0159151E-04   5.8958594E+04   -1.7216016E+00
   5.0390791E-04   5.8492847E+04   -1.7210330E+00
   5.0623501E-04   5.8030931E+04   -1.7204648E+00
   5.0857286E-04   5.7572814E+04   -1.7198969E+00
   5.1092150E-04   5.7118463E+04   -1.7193292E+00
   5.1328099E-04   5.6667846E+04   -1.7187619E+00
   5.1565137E-04   5.6220930E+04   -1.7181949E+00
   5.1803270E-04   5.5777685E+04   -1.7176283E+00
   5.2042503E-04   5.5338079E+04   -1.7170620E+00
   5.2282841E-04   5.4902080E+04   -1.7164960E+00
   5.2524289E-04   5.4469659E+04   -1.7159304E+00
   5.2766851E-04   5.4040785E+04   -1.7153651E+00
   5.3010534E-04   5.3615426E+04   -1.7148002E+00
   5.3255342E-04   5.3193555E+04   -1.7142356E+00
   5.3501281E-04   5.2775140E+04   -1.7136714E+00
   5.3748356E-04   5.2360152E+04   -1.7131076E+00
   5.3996571E-04   5.1948562E+04   -1.7125442E+00
   5.4245933E-04   5.1540342E+04   -1.7119812E+00
   5.4496446E-04   5.1135462E+04   -1.7114186E+00
   5.4748117E-04   5.0733894E+04   -1.7108563E+00
   5.5000949E-04   5.0335610E+04   -1.7102945E+00
   5.5254949E-04   4.9940582E+04   -1.7097330E+00
   5.5510123E-04   4.9548782E+04   -1.7091720E+00
   5.5766474E-04   4.9160183E+04   -1.7086114E+00
   5.6024010E-04   4.8774757E+04   -1.7080513E+00
   5.6282734E-04   4.8392478E+04   -1.7074915E+00
   5.6542654E-04   4.8013319E+04   -1.7069322E+00
   5.6803774E-04   4.7637254E+04   -1.7063734E+00
   5.7066099E-04   4.7264256E+04   -1.7058150E+00
   5.7329637E-04   4.6894298E+04   -1.7052570E+00
   5.7594391E-04   4.6527357E+04   -1.7046995E+00
   5.7860368E-04   4.6163405E+04   -1.7041425E+00
   5.8127573E-04   4.5802418E+04   -1.7035859E+00
   5.8396012E-04   4.5444370E+04   -1.7030298E+00
   5.8665691E-04   4.5089236E+04   -1.7024742E+00
   5.8936616E-04   4.4736992E+04   -1.7019191E+00
   5.9208791E-04   4.4387613E+04   -1.7013645E+00
   5.9482223E-04   4.4041076E+04   -1.7008103E+00
   5.9756919E-04   4.3697355E+04   -1.7002567E+00
   6.0032882E-04   4.3356427E+04   -1.6997036E+00
   6.0310120E-04   4.3018269E+04   -1.6991509E+00
   6.0588639E-04   4.2682857E+04   -1.6985988E+00
   6.0868443E-04   4.2350168E+04   -1.6980472E+00
   6.1149540E-04   4.2020179E+04   -1.6974962E+00
   6.1431935E-04   4.1692867E+04   -1.6969457E+00
   6.1715634E-04   4.1368209E+04   -1.6963957E+00
   6.2000644E-04   4.1046183E+04   -1.6958462E+00
   6.2286969E-04   4.0726767E+04   -1.6952973E+00
