#        a       HoverH0(a)       dlogHdloga_of_a(a)
   1.0000000E-04   1.1527985E+06   -1.8564668E+00
   1.0046181E-04   1.1429812E+06   -1.8559948E+00
   1.0092575E-04   1.1332500E+06   -1.8555219E+00
   1.0139184E-04   1.1236040E+06   -1.8550481E+00
   1.0186008E-04   1.1140426E+06   -1.8545734E+00
   1.0233048E-04   1.1045650E+06   -1.8540978E+00
   1.0280305E-04   1.0951705E+06   -1.8536212E+00
   1.0327781E-04   1.0858582E+06   -1.8531438E+00
   1.0375475E-04   1.0766274E+06   -1.8526654E+00
   1.0423390E-04   1.0674775E+06   -1.8521861E+00
   1.0471527E-04   1.0584077E+06   -1.8517059E+00
   1.0519885E-04   1.0494173E+06   -1.8512249E+00
   1.0568467E-04   1.0405055E+06   -1.8507429E+00
   1.0617274E-04   1.0316717E+06   -1.8502600E+00
   1.0666305E-04   1.0229152E+06   -1.8497763E+00
   1.0715563E-04   1.0142353E+06   -1.8492916E+00
   1.0765049E-04   1.0056313E+06   -1.8488061E+00
   1.0814763E-04   9.9710248E+05   -1.8483196E+00
   1.0864707E-04   9.8864824E+05   -1.8478323E+00
   1.0914881E-04   9.8026788E+05   -1.8473441E+00
   1.0965287E-04   9.7196075E+05   -1.8468551E+00
   1.1015926E-04   9.6372618E+05   -1.8463651E+00
   1.1066799E-04   9.5556354E+05   -1.8458743E+00
   1.1117906E-04   9.4747218E+05   -1.8453826E+00
   1.1169250E-04   9.3945146E+05   -1.8448901E+00
   1.1220831E-04   9.3150076E+05   -1.8443967E+00
   1.1272650E-04   9.2361945E+05   -1.8439024E+00
   1.1324708E-04   9.1580691E+05   -1.8434073E+00
   1.1377007E-04   9.0806253E+05   -1.8429113E+00
   1.1429547E-04   9.0038569E+05   -1.8424145E+00
   1.1482330E-04   8.9277580E+05   -1.8419168E+00
   1.1535356E-04   8.8523226E+05   -1.8414183E+00
   1.1588628E-04   8.7775448E+05   -1.8409189E+00
   1.1642145E-04   8.7034187E+05   -1.8404187E+00
   1.1695910E-04   8.6299384E+05   -1.8399177E+00
   1.1749923E-04   8.5570983E+05   -1.8394158E+00
   1.1804185E-04   8.4848927E+05   -1.8389131E+00
   1.1858698E-04   8.4133158E+05   -1.8384096E+00
   1.1913463E-04   8.3423621E+05   -1.8379053E+00
   1.1968481E-04   8.2720260E+05   -1.8374001E+00
   1.2023752E-04   8.2023020E+05   -1.8368942E+00
   1.2079279E-04   8.1331848E+05   -1.8363874E+00
   1.2135063E-04   8.0646688E+05   -1.8358798E+00
   1.2191104E-04   7.9967487E+05   -1.8353714E+00
   1.2247403E-04   7.9294192E+05   -1.8348622E+00
   1.2303963E-04   7.8626751E+05   -1.8343522E+00
   1.2360784E-04   7.7965111E+05   -1.8338415E+00
   1.2417868E-04   7.7309221E+05   -1.8333299E+00
   1.2475215E-04   7.6659029E+05   -1.8328175E+00
   1.2532826E-04   7.6014485E+05   -1.8323044E+00
   1.2590704E-04   7.5375539E+05   -1.8317905E+00
   1.2648850E-04   7.4742140E+05   -1.8312758E+00
   1.2707263E-04   7.4114240E+05   -1.8307603E+00
   1.2765947E-04   7.3491790E+05   -1.8302441E+00
   1.2824901E-04   7.2874741E+05   -1.8297271E+00
   1.2884128E-04   7.2263045E+05   -1.8292093E+00
   1.2943628E-04   7.1656654E+05   -1.8286908E+00
   1.3003403E-04   7.1055522E+05   -1.8281715E+00
   1.3063454E-04   7.0459602E+05   -1.8276515E+00
   1.3123783E-04   6.9868847E+05   -1.8271308E+00
   1.3184390E-04   6.9283211E+05   -1.8266093E+00
   1.3245277E-04   6.8702649E+05   -1.8260870E+00
   1.3306445E-04   6.8127116E+05   -1.8255640E+00
   1.3367895E-04   6.7556567E+05   -1.8250403E+00
   1.3429630E-04   6.6990958E+05   -1.8245159E+00
   1.3491649E-04   6.6430246E+05   -1.8239908E+00
   1.3553955E-04   6.5874386E+05   -1.8234649E+00
   1.3616548E-04   6.5323335E+05   -1.8229383E+00
   1.3679431E-04   6.4777052E+05   -1.8224110E+00
   1.3742604E-04   6.4235493E+05   -1.8218830E+00
   1.3806069E-04   6.3698617E+05   -1.8213544E+00
   1.3869827E-04   6.3166382E+05   -1.8208250E+00
   1.3933879E-04   6.2638747E+05   -1.8202949E+00
   1.3998227E-04   6.2115671E+05   -1.8197641E+00
   1.4062872E-04   6.1597114E+05   -1.8192327E+00
   1.4127816E-04   6.1083035E+05   -1.8187005E+00
   1.4193060E-04   6.0573396E+05   -1.8181677E+00
   1.4258605E-04   6.0068156E+05   -1.8176343E+00
   1.4324453E-04   5.9567277E+05   -1.8171001E+00
   1.4390605E-04   5.9070720E+05   -1.8165653E+00
   1.4457062E-04   5.8578447E+05   -1.8160299E+00
   1.4523826E-04   5.8090419E+05   -1.8154938E+00
   1.4590899E-04   5.7606600E+05   -1.8149570E+00
   1.4658281E-04   5.7126952E+05   -1.8144196E+00
   1.4725974E-04   5.6651438E+05   -1.8138816E+00
   1.4793981E-04   5.6180021E+05   -1.8133429E+00
   1.4862301E-04   5.5712665E+05   -1.8128036E+00
   1.4930936E-04   5.5249335E+05   -1.8122637E+00
   1.4999889E-04   5.4789994E+05   -1.8117232E+00
   1.5069160E-04   5.4334608E+05   -1.8111820E+00
   1.5138751E-04   5.3883141E+05   -1.8106402E+00
   1.5208663E-04   5.3435559E+05   -1.8100978E+00
   1.5278899E-04   5.2991827E+05   -1.8095549E+00
   1.5349458E-04   5.2551911E+05   -1.8090113E+00
   1.5420343E-04   5.2115778E+05   -1.8084671E+00
   1.5491556E-04   5.1683394E+05   -1.8079224E+00
   1.5563098E-04   5.1254726E+05   -1.8073770E+00
   1.5634970E-04   5.0829742E+05   -1.8068311E+00
   1.5707174E-04   5.0408408E+05   -1.8062846E+00
   1.5779711E-04   4.9990692E+05   -1.8057376E+00
   1.5852584E-04   4.9576563E+05   -1.8051900E+00
   1.5925792E-04   4.9165989E+05   -1.8046418E+00
   1.5999339E-04   4.8758938E+05   -1.8040931E+00
   1.6073226E-04   4.8355380E+05   -1.8035438E+00
   1.6147454E-04   4.7955283E+05   -1.8029940E+00
   1.6222024E-04   4.7558617E+05   -1.8024436E+00
   1.6296939E-04   4.7165351E+05   -1.8018928E+00
   1.6372200E-04   4.6775457E+05   -1.8013413E+00
   1.6447809E-04   4.6388903E+05   -1.8007894E+00
   1.6523767E-04   4.6005661E+05   -1.8002370E+00
   1.6600075E-04   4.5625702E+05   -1.7996840E+00
   1.6676736E-04   4.5248995E+05   -1.7991305E+00
   1.6753751E-04   4.4875514E+05   -1.7985766E+00
   1.6831122E-04   4.4505229E+05   -1.7980221E+00
   1.6908849E-04   4.4138112E+05   -1.7974671E+00
   1.6986936E-04   4.3774135E+05   -1.7969117E+00
   1.7065384E-04   4.3413271E+05   -1.7963558E+00
   1.7144193E-04   4.3055492E+05   -1.7957994E+00
   1.7223367E-04   4.2700771E+05   -1.7952425E+00
   1.7302906E-04   4.2349081E+05   -1.7946852E+00
   1.7382813E-04   4.2000396E+05   -1.7941274E+00
   1.7463089E-04   4.1654689E+05   -1.7935691E+00
   1.7543735E-04   4.1311933E+05   -1.7930104E+00
   1.7624754E-04   4.0972104E+05   -1.7924513E+00
   1.7706147E-04   4.0635175E+05   -1.7918917E+00
   1.7787916E-04   4.0301120E+05   -1.7913317E+00
   1.7870062E-04   3.9969914E+05   -1.7907713E+00
   1.7952588E-04   3.9641533E+05   -1.7902104E+00
   1.8035495E-04   3.9315952E+05   -1.7896491E+00
   1.8118785E-04   3.8993145E+05   -1.7890874E+00
   1.8202459E-04   3.8673089E+05   -1.7885253E+00
   1.8286520E-04   3.8355759E+05   -1.7879628E+00
   1.8370969E-04   3.8041132E+05   -1.7874000E+00
   1.8455808E-04   3.7729184E+05   -1.7868367E+00
   1.8541039E-04   3.7419891E+05   -1.7862730E+00
   1.8626663E-04   3.7113229E+05   -1.7857090E+00
   1.8712683E-04   3.6809177E+05   -1.7851446E+00
   1.8799100E-04   3.6507710E+05   -1.7845798E+00
   1.8885917E-04   3.6208807E+05   -1.7840147E+00
   1.8973134E-04   3.5912445E+05   -1.7834492E+00
   1.9060754E-04   3.5618600E+05   -1.7828834E+00
   1.9148778E-04   3.5327253E+05   -1.7823172E+00
   1.9237209E-04   3.5038380E+05   -1.7817507E+00
   1.9326049E-04   3.4751960E+05   -1.7811838E+00
   1.9415299E-04   3.4467971E+05   -1.7806167E+00
   1.9504960E-04   3.4186392E+05   -1.7800492E+00
   1.9595036E-04   3.3907202E+05   -1.7794814E+00
   1.9685528E-04   3.3630381E+05   -1.7789132E+00
   1.9776438E-04   3.3355906E+05   -1.7783448E+00
   1.9867768E-04   3.3083759E+05   -1.7777761E+00
   1.9959519E-04   3.2813918E+05   -1.7772071E+00
   2.0051694E-04   3.2546363E+05   -1.7766378E+00
   2.0144295E-04   3.2281074E+05   -1.7760682E+00
   2.0237324E-04   3.2018032E+05   -1.7754984E+00
   2.0330782E-04   3.1757217E+05   -1.7749283E+00
   2.0424671E-04   3.1498609E+05   -1.7743579E+00
   2.0518995E-04   3.1242189E+05   -1.7737872E+00
   2.0613754E-04   3.0987938E+05   -1.7732164E+00
   2.0708950E-04   3.0735836E+05   -1.7726452E+00
   2.0804586E-04   3.0485867E+05   -1.7720739E+00
   2.0900664E-04   3.0238009E+05   -1.7715023E+00
   2.0997185E-04   2.9992246E+05   -1.7709304E+00
   2.1094152E-04   2.9748559E+05   -1.7703584E+00
   2.1191567E-04   2.9506929E+05   -1.7697861E+00
   2.1289432E-04   2.9267340E+05   -1.7692136E+00
   2.1387749E-04   2.9029772E+05   -1.7686410E+00
   2.1486520E-04   2.8794208E+05   -1.7680681E+00
   2.1585747E-04   2.8560632E+05   -1.7674950E+00
   2.1685432E-04   2.8329025E+05   -1.7669218E+00
   2.1785578E-04   2.8099370E+05   -1.7663483E+00
   2.1886186E-04   2.7871651E+05   -1.7657747E+00
   2.1987259E-04   2.7645851E+05   -1.7652010E+00
   2.2088798E-04   2.7421952E+05   -1.7646270E+00
   2.2190807E-04   2.7199938E+05   -1.7640530E+00
   2.2293286E-04   2.6979794E+05   -1.7634787E+00
   2.2396239E-04   2.6761501E+05   -1.7629043E+00
   2.2499667E-04   2.6545046E+05   -1.7623298E+00
   2.2603573E-04   2.6330410E+05   -1.7617552E+00
   2.2707958E-04   2.6117580E+05   -1.7611804E+00
   2.2812826E-04   2.5906538E+05   -1.7606055E+00
   2.2918178E-04   2.5697270E+05   -1.7600305E+00
   2.3024017E-04   2.5489760E+05   -1.7594554E+00
   2.3130344E-04   2.5283992E+05   -1.7588802E+00
   2.3237162E-04   2.5079952E+05   -1.7583049E+00
   2.3344474E-04   2.4877624E+05   -1.7577295E+00
   2.3452281E-04   2.4676994E+05   -1.7571540E+00
   2.3560586E-04   2.4478048E+05   -1.7565785E+00
   2.3669392E-04   2.4280769E+05   -1.7560029E+00
   2.3778699E-04   2.4085144E+05   -1.7554272E+00
   2.3888512E-04   2.3891159E+05   -1.7548514E+00
   2.3998831E-04   2.3698799E+05   -1.7542756E+00
   2.4109661E-04   2.3508050E+05   -1.7536998E+00
   2.4221001E-04   2.3318898E+05   -1.7531239E+00
   2.4332857E-04   2.3131330E+05   -1.7525480E+00
   2.4445228E-04   2.2945331E+05   -1.7519721E+00
   2.4558119E-04   2.2760888E+05   -1.7513961E+00
   2.4671531E-04   2.2577988E+05   -1.7508201E+00
   2.4785467E-04   2.2396617E+05   -1.7502441E+00
   2.4899928E-04   2.2216762E+05   -1.7496682E+00
   2.5014919E-04   2.2038409E+05   -1.7490922E+00
   2.5130440E-04   2.1861547E+05   -1.7485162E+00
   2.5246495E-04   2.1686161E+05   -1.7479402E+00
   2.5363086E-04   2.1512240E+05   -1.7473643E+00
   2.5480216E-04   2.1339770E+05   -1.7467884E+00
   2.5597886E-04   2.1168739E+05   -1.7462125E+00
   2.5716100E-04   2.0999134E+05   -1.7456367E+00
   2.5834859E-04   2.0830944E+05   -1.7450609E+00
   2.5954168E-04   2.0664155E+05   -1.7444851E+00
   2.6074027E-04   2.0498756E+05   -1.7439094E+00
   2.6194439E-04   2.0334735E+05   -1.7433338E+00
   2.6315408E-04   2.0172080E+05   -1.7427583E+00
   2.6436935E-04   2.0010779E+05   -1.7421828E+00
   2.6559024E-04   1.9850821E+05   -1.7416074E+00
   2.6681676E-04   1.9692193E+05   -1.7410321E+00
   2.6804895E-04   1.9534885E+05   -1.7404569E+00
   2.6928683E-04   1.9378885E+05   -1.7398818E+00
   2.7053042E-04   1.9224181E+05   -1.7393068E+00
   2.7177976E-04   1.9070763E+05   -1.7387319E+00
   2.7303487E-04   1.8918620E+05   -1.7381571E+00
   2.7429577E-04   1.8767739E+05   -1.7375825E+00
   2.7556250E-04   1.8618112E+05   -1.7370080E+00
   2.7683507E-04   1.8469726E+05   -1.7364336E+00
   2.7811353E-04   1.8322572E+05   -1.7358594E+00
   2.7939788E-04   1.8176637E+05   -1.7352853E+00
   2.8068817E-04   1.8031913E+05   -1.7347114E+00
   2.8198442E-04   1.7888389E+05   -1.7341376E+00
   2.8328665E-04   1.7746054E+05   -1.7335640E+00
   2.8459490E-04   1.7604898E+05   -1.7329906E+00
   2.8590919E-04   1.7464910E+05   -1.7324174E+00
   2.8722955E-04   1.7326082E+05   -1.7318443E+00
   2.8855600E-04   1.7188403E+05   -1.7312714E+00
   2.8988859E-04   1.7051862E+05   -1.7306988E+00
   2.9122732E-04   1.6916451E+05   -1.7301263E+00
   2.9257224E-04   1.6782160E+05   -1.7295540E+00
   2.9392337E-04   1.6648978E+05   -1.7289820E+00
   2.9528074E-04   1.6516897E+05   -1.7284102E+00
   2.9664438E-04   1.6385907E+05   -1.7278386E+00
   2.9801431E-04   1.6255998E+05   -1.7272672E+00
   2.9939057E-04   1.6127162E+05   -1.7266961E+00
   3.0077319E-04   1.5999390E+05   -1.7261252E+00
   3.0216219E-04   1.5872671E+05   -1.7255546E+00
   3.0355761E-04   1.5746997E+05   -1.7249842E+00
   3.0495947E-04   1.5622359E+05   -1.7244141E+00
   3.0636780E-04   1.5498749E+05   -1.7238442E+00
   3.0778264E-04   1.5376157E+05   -1.7232747E+00
   3.0920401E-04   1.5254574E+05   -1.7227054E+00
   3.1063195E-04   1.5133993E+05   -1.7221364E+00
   3.1206648E-04   1.5014404E+05   -1.7215677E+00
   3.1350764E-04   1.4895799E+05   -1.7209993E+00
   3.1495545E-04   1.4778170E+05   -1.7204312E+00
   3.1640994E-04   1.4661508E+05   -1.7198634E+00
   3.1787116E-04   1.4545805E+05   -1.7192959E+00
   3.1933912E-04   1.4431053E+05   -1.7187287E+00
   3.2081386E-04   1.4317243E+05   -1.7181619E+00
   3.2229541E-04   1.4204368E+05   -1.7175954E+00
   3.2378381E-04   1.4092420E+05   -1.7170292E+00
   3.2527908E-04   1.3981391E+05   -1.7164634E+00
   3.2678125E-04   1.3871272E+05   -1.7158979E+00
   3.2829036E-04   1.3762057E+05   -1.7153328E+00
   3.2980644E-04   1.3653737E+05   -1.7147680E+00
   3.3132952E-04   1.3546305E+05   -1.7142036E+00
   3.3285963E-04   1.3439753E+05   -1.7136396E+00
   3.3439681E-04   1.3334074E+05   -1.7130759E+00
   3.3594109E-04   1.3229260E+05   -1.7125127E+00
   3.3749250E-04   1.3125304E+05   -1.7119498E+00
   3.3905108E-04   1.3022199E+05   -1.7113873E+00
   3.4061685E-04   1.2919937E+05   -1.7108252E+00
   3.4218986E-04   1.2818512E+05   -1.7102636E+00
   3.4377013E-04   1.2717915E+05   -1.7097023E+00
   3.4535769E-04   1.2618141E+05   -1.7091414E+00
   3.4695259E-04   1.2519182E+05   -1.7085810E+00
   3.4855485E-04   1.2421031E+05   -1.7080210E+00
   3.5016452E-04   1.2323681E+05   -1.7074614E+00
   3.5178161E-04   1.2227126E+05   -1.7069023E+00
   3.5340618E-04   1.2131358E+05   -1.7063436E+00
   3.5503824E-04   1.2036371E+05   -1.7057854E+00
   3.5667785E-04   1.1942159E+05   -1.7052276E+00
   3.5832502E-04   1.1848715E+05   -1.7046703E+00
   3.5997981E-04   1.1756032E+05   -1.7041134E+00
   3.6164223E-04   1.1664104E+05   -1.7035570E+00
   3.6331233E-04   1.1572925E+05   -1.7030011E+00
   3.6499015E-04   1.1482488E+05   -1.7024457E+00
   3.6667571E-04   1.1392786E+05   -1.7018907E+00
   3.6836906E-04   1.1303814E+05   -1.7013363E+00
   3.7007022E-04   1.1215566E+05   -1.7007823E+00
   3.7177925E-04   1.1128035E+05   -1.7002289E+00
   3.7349616E-04   1.1041215E+05   -1.6996759E+00
   3.7522101E-04   1.0955101E+05   -1.6991235E+00
   3.7695382E-04   1.0869686E+05   -1.6985715E+00
   3.7869463E-04   1.0784964E+05   -1.6980201E+00
   3.8044348E-04   1.0700930E+05   -1.6974693E+00
   3.8220041E-04   1.0617577E+05   -1.6969189E+00
   3.8396545E-04   1.0534900E+05   -1.6963691E+00
   3.8573864E-04   1.0452894E+05   -1.6958199E+00
   3.8752002E-04   1.0371552E+05   -1.6952711E+00
   3.8930963E-04   1.0290870E+05   -1.6947230E+00
   3.9110750E-04   1.0210840E+05   -1.6941754E+00
   3.9291368E-04   1.0131459E+05   -1.6936283E+00
   3.9472820E-04   1.0052720E+05   -1.6930819E+00
   3.9655109E-04   9.9746178E+04   -1.6925360E+00
   3.9838241E-04   9.8971475E+04   -1.6919906E+00
   4.0022218E-04   9.8203036E+04   -1.6914459E+00
   4.0207045E-04   9.7440808E+04   -1.6909017E+00
   4.0392725E-04   9.6684738E+04   -1.6903582E+00
   4.0579263E-04   9.5934775E+04   -1.6898152E+00
   4.0766662E-04   9.5190867E+04   -1.6892728E+00
   4.0954927E-04   9.4452964E+04   -1.6887311E+00
   4.1144061E-04   9.3721014E+04   -1.6881899E+00
   4.1334068E-04   9.2994969E+04   -1.6876494E+00
   4.1524953E-04   9.2274777E+04   -1.6871095E+00
   4.1716720E-04   9.1560391E+04   -1.6865702E+00
   4.1909372E-04   9.0851761E+04   -1.6860315E+00
   4.2102914E-04   9.0148839E+04   -1.6854935E+00
   4.2297350E-04   8.9451577E+04   -1.6849561E+00
   4.2492683E-04   8.8759927E+04   -1.6844194E+00
   4.2688919E-04   8.8073844E+04   -1.6838833E+00
   4.2886061E-04   8.7393279E+04   -1.6833478E+00
   4.3084113E-04   8.6718188E+04   -1.6828130E+00
   4.3283080E-04   8.6048522E+04   -1.6822789E+00
   4.3482966E-04   8.5384239E+04   -1.6817455E+00
   4.3683775E-04   8.4725291E+04   -1.6812127E+00
   4.3885511E-04   8.4071635E+04   -1.6806806E+00
   4.4088179E-04   8.3423227E+04   -1.6801491E+00
   4.4291783E-04   8.2780022E+04   -1.6796184E+00
   4.4496327E-04   8.2141977E+04   -1.6790883E+00
   4.4701816E-04   8.1509048E+04   -1.6785589E+00
   4.4908253E-04   8.0881194E+04   -1.6780302E+00
   4.5115644E-04   8.0258371E+04   -1.6775022E+00
   4.5323993E-04   7.9640538E+04   -1.6769750E+00
   4.5533304E-04   7.9027654E+04   -1.6764484E+00
   4.5743582E-04   7.8419675E+04   -1.6759225E+00
   4.5954830E-04   7.7816563E+04   -1.6753974E+00
   4.6167054E-04   7.7218276E+04   -1.6748730E+00
   4.6380259E-04   7.6624773E+04   -1.6743493E+00
   4.6594448E-04   7.6036016E+04   -1.6738263E+00
   4.6809626E-04   7.5451964E+04   -1.6733041E+00
   4.7025797E-04   7.4872578E+04   -1.6727826E+00
   4.7242967E-04   7.4297819E+04   -1.6722618E+00
   4.7461140E-04   7.3727650E+04   -1.6717418E+00
   4.7680321E-04   7.3162031E+04   -1.6712226E+00
   4.7900514E-04   7.2600925E+04   -1.6707041E+00
   4.8121723E-04   7.2044295E+04   -1.6701863E+00
   4.8343954E-04   7.1492102E+04   -1.6696693E+00
   4.8567212E-04   7.0944311E+04   -1.6691531E+00
   4.8791500E-04   7.0400885E+04   -1.6686376E+00
   4.9016825E-04   6.9861786E+04   -1.6681229E+00
   4.9243189E-04   6.9326981E+04   -1.6676090E+00
   4.9470600E-04   6.8796432E+04   -1.6670959E+00
   4.9699060E-04   6.8270104E+04   -1.6665835E+00
   4.9928575E-04   6.7747963E+04   -1.6660720E+00
   5.0159151E-04   6.7229974E+04   -1.6655612E+00
   5.0390791E-04   6.6716102E+04   -1.6650512E+00
   5.0623501E-04   6.6206314E+04   -1.6645420E+00
   5.0857286E-04   6.5700574E+04   -1.6640336E+00
   5.1092150E-04   6.5198851E+04   -1.6635260E+00
   5.1328099E-04   6.4701110E+04   -1.6630193E+00
   5.1565137E-04   6.4207319E+04   -1.6625133E+00
   5.1803270E-04   6.3717445E+04   -1.6620082E+00
   5.2042503E-04   6.3231456E+04   -1.6615038E+00
   5.2282841E-04   6.2749318E+04   -1.6610003E+00
   5.2524289E-04   6.2271002E+04   -1.6604976E+00
   5.2766851E-04   6.1796475E+04   -1.6599958E+00
   5.3010534E-04   6.1325705E+04   -1.6594947E+00
   5.3255342E-04   6.0858662E+04   -1.6589945E+00
   5.3501281E-04   6.0395315E+04   -1.6584952E+00
   5.3748356E-04   5.9935633E+04   -1.6579967E+00
   5.3996571E-04   5.9479587E+04   -1.6574990E+00
   5.4245933E-04   5.9027146E+04   -1.6570022E+00
   5.4496446E-04   5.8578280E+04   -1.6565062E+00
   5.4748117E-04   5.8132961E+04   -1.6560111E+00
   5.5000949E-04   5.7691159E+04   -1.6555168E+00
   5.5254949E-04   5.7252844E+04   -1.6550234E+00
   5.5510123E-04   5.6817989E+04   -1.6545308E+00
   5.5766474E-04   5.6386564E+04   -1.6540392E+00
   5.6024010E-04   5.5958542E+04   -1.6535483E+00
   5.6282734E-04   5.5533894E+04   -1.6530584E+00
   5.6542654E-04   5.5112593E+04   -1.6525693E+00
   5.6803774E-04   5.4694612E+04   -1.6520811E+00
   5.7066099E-04   5.4279922E+04   -1.6515938E+00
   5.7329637E-04   5.3868498E+04   -1.6511074E+00
   5.7594391E-04   5.3460311E+04   -1.6506218E+00
   5.7860368E-04   5.3055336E+04   -1.6501372E+00
   5.8127573E-04   5.2653547E+04   -1.6496534E+00
   5.8396012E-04   5.2254916E+04   -1.6491705E+00
   5.8665691E-04   5.1859419E+04   -1.6486885E+00
   5.8936616E-04   5.1467030E+04   -1.6482075E+00
   5.9208791E-04   5.1077722E+04   -1.6477273E+00
   5.9482223E-04   5.0691471E+04   -1.6472480E+00
   5.9756919E-04   5.0308253E+04   -1.6467696E+00
   6.0032882E-04   4.9928041E+04   -1.6462922E+00
   6.0310120E-04   4.9550811E+04   -1.6458156E+00
   6.0588639E-04   4.9176540E+04   -1.6453400E+00
   6.0868443E-04   4.8805202E+04   -1.6448652E+00
   6.1149540E-04   4.8436774E+04   -1.6443914E+00
   6.1431935E-04   4.8071233E+04   -1.6439185E+00
   6.1715634E-04   4.7708554E+04   -1.6434466E+00
   6.2000644E-04   4.7348714E+04   -1.6429755E+00
   6.2286969E-04   4.6991690E+04   -1.6425054E+00
