#        a       HoverH0(a)       dlogHdloga_of_a(a)
   1.0000000E-04   1.1619502E+06   -1.8585828E+00
   1.0046181E-04   1.1520437E+06   -1.8581151E+00
   1.0092575E-04   1.1422241E+06   -1.8576464E+00
   1.0139184E-04   1.1324907E+06   -1.8571767E+00
   1.0186008E-04   1.1228427E+06   -1.8567062E+00
   1.0233048E-04   1.1132792E+06   -1.8562347E+00
   1.0280305E-04   1.1037997E+06   -1.8557623E+00
   1.0327781E-04   1.0944032E+06   -1.8552890E+00
   1.0375475E-04   1.0850891E+06   -1.8548147E+00
   1.0423390E-04   1.0758566E+06   -1.8543395E+00
   1.0471527E-04   1.0667050E+06   -1.8538634E+00
   1.0519885E-04   1.0576335E+06   -1.8533864E+00
   1.0568467E-04   1.0486416E+06   -1.8529085E+00
   1.0617274E-04   1.0397283E+06   -1.8524297E+00
   1.0666305E-04   1.0308931E+06   -1.8519500E+00
   1.0715563E-04   1.0221352E+06   -1.8514694E+00
   1.0765049E-04   1.0134540E+06   -1.8509879E+00
   1.0814763E-04   1.0048488E+06   -1.8505054E+00
   1.0864707E-04   9.9631882E+05   -1.8500221E+00
   1.0914881E-04   9.8786346E+05   -1.8495379E+00
   1.0965287E-04   9.7948205E+05   -1.8490528E+00
   1.1015926E-04   9.7117392E+05   -1.8485669E+00
   1.1066799E-04   9.6293842E+05   -1.8480800E+00
   1.1117906E-04   9.5477490E+05   -1.8475922E+00
   1.1169250E-04   9.4668272E+05   -1.8471036E+00
   1.1220831E-04   9.3866124E+05   -1.8466141E+00
   1.1272650E-04   9.3070982E+05   -1.8461238E+00
   1.1324708E-04   9.2282785E+05   -1.8456325E+00
   1.1377007E-04   9.1501471E+05   -1.8451404E+00
   1.1429547E-04   9.0726977E+05   -1.8446474E+00
   1.1482330E-04   8.9959244E+05   -1.8441536E+00
   1.1535356E-04   8.9198210E+05   -1.8436589E+00
   1.1588628E-04   8.8443816E+05   -1.8431634E+00
   1.1642145E-04   8.7696003E+05   -1.8426670E+00
   1.1695910E-04   8.6954712E+05   -1.8421697E+00
   1.1749923E-04   8.6219884E+05   -1.8416716E+00
   1.1804185E-04   8.5491463E+05   -1.8411727E+00
   1.1858698E-04   8.4769390E+05   -1.8406729E+00
   1.1913463E-04   8.4053610E+05   -1.8401723E+00
   1.1968481E-04   8.3344067E+05   -1.8396709E+00
   1.2023752E-04   8.2640704E+05   -1.8391686E+00
   1.2079279E-04   8.1943467E+05   -1.8386655E+00
   1.2135063E-04   8.1252301E+05   -1.8381616E+00
   1.2191104E-04   8.0567152E+05   -1.8376569E+00
   1.2247403E-04   7.9887966E+05   -1.8371513E+00
   1.2303963E-04   7.9214691E+05   -1.8366449E+00
   1.2360784E-04   7.8547273E+05   -1.8361378E+00
   1.2417868E-04   7.7885660E+05   -1.8356298E+00
   1.2475215E-04   7.7229802E+05   -1.8351210E+00
   1.2532826E-04   7.6579645E+05   -1.8346114E+00
   1.2590704E-04   7.5935141E+05   -1.8341010E+00
   1.2648850E-04   7.5296238E+05   -1.8335899E+00
   1.2707263E-04   7.4662886E+05   -1.8330779E+00
   1.2765947E-04   7.4035037E+05   -1.8325652E+00
   1.2824901E-04   7.3412641E+05   -1.8320516E+00
   1.2884128E-04   7.2795650E+05   -1.8315373E+00
   1.2943628E-04   7.2184015E+05   -1.8310223E+00
   1.3003403E-04   7.1577689E+05   -1.8305064E+00
   1.3063454E-04   7.0976625E+05   -1.8299898E+00
   1.3123783E-04   7.0380777E+05   -1.8294724E+00
   1.3184390E-04   6.9790096E+05   -1.8289543E+00
   1.3245277E-04   6.9204539E+05   -1.8284354E+00
   1.3306445E-04   6.8624058E+05   -1.8279158E+00
   1.3367895E-04   6.8048610E+05   -1.8273954E+00
   1.3429630E-04   6.7478149E+05   -1.8268743E+00
   1.3491649E-04   6.6912631E+05   -1.8263524E+00
   1.3553955E-04   6.6352012E+05   -1.8258298E+00
   1.3616548E-04   6.5796248E+05   -1.8253064E+00
   1.3679431E-04   6.5245298E+05   -1.8247824E+00
   1.3742604E-04   6.4699117E+05   -1.8242576E+00
   1.3806069E-04   6.4157663E+05   -1.8237321E+00
   1.3869827E-04   6.3620895E+05   -1.8232059E+00
   1.3933879E-04   6.3088771E+05   -1.8226790E+00
   1.3998227E-04   6.2561250E+05   -1.8221513E+00
   1.4062872E-04   6.2038290E+05   -1.8216230E+00
   1.4127816E-04   6.1519851E+05   -1.8210940E+00
   1.4193060E-04   6.1005894E+05   -1.8205642E+00
   1.4258605E-04   6.0496378E+05   -1.8200338E+00
   1.4324453E-04   5.9991265E+05   -1.8195027E+00
   1.4390605E-04   5.9490514E+05   -1.8189709E+00
   1.4457062E-04   5.8994089E+05   -1.8184385E+00
   1.4523826E-04   5.8501949E+05   -1.8179053E+00
   1.4590899E-04   5.8014057E+05   -1.8173715E+00
   1.4658281E-04   5.7530376E+05   -1.8168371E+00
   1.4725974E-04   5.7050868E+05   -1.8163019E+00
   1.4793981E-04   5.6575496E+05   -1.8157662E+00
   1.4862301E-04   5.6104224E+05   -1.8152297E+00
   1.4930936E-04   5.5637015E+05   -1.8146927E+00
   1.4999889E-04   5.5173833E+05   -1.8141550E+00
   1.5069160E-04   5.4714643E+05   -1.8136166E+00
   1.5138751E-04   5.4259409E+05   -1.8130776E+00
   1.5208663E-04   5.3808097E+05   -1.8125380E+00
   1.5278899E-04   5.3360671E+05   -1.8119978E+00
   1.5349458E-04   5.2917098E+05   -1.8114569E+00
   1.5420343E-04   5.2477342E+05   -1.8109155E+00
   1.5491556E-04   5.2041371E+05   -1.8103734E+00
   1.5563098E-04   5.1609151E+05   -1.8098307E+00
   1.5634970E-04   5.1180649E+05   -1.8092875E+00
   1.5707174E-04   5.0755832E+05   -1.8087436E+00
   1.5779711E-04   5.0334666E+05   -1.8081991E+00
   1.5852584E-04   4.9917121E+05   -1.8076541E+00
   1.5925792E-04   4.9503164E+05   -1.8071085E+00
   1.5999339E-04   4.9092764E+05   -1.8065623E+00
   1.6073226E-04   4.8685888E+05   -1.8060155E+00
   1.6147454E-04   4.8282506E+05   -1.8054682E+00
   1.6222024E-04   4.7882588E+05   -1.8049203E+00
   1.6296939E-04   4.7486101E+05   -1.8043718E+00
   1.6372200E-04   4.7093017E+05   -1.8038228E+00
   1.6447809E-04   4.6703305E+05   -1.8032733E+00
   1.6523767E-04   4.6316935E+05   -1.8027232E+00
   1.6600075E-04   4.5933878E+05   -1.8021726E+00
   1.6676736E-04   4.5554105E+05   -1.8016215E+00
   1.6753751E-04   4.5177586E+05   -1.8010698E+00
   1.6831122E-04   4.4804294E+05   -1.8005176E+00
   1.6908849E-04   4.4434199E+05   -1.7999649E+00
   1.6986936E-04   4.4067273E+05   -1.7994117E+00
   1.7065384E-04   4.3703489E+05   -1.7988580E+00
   1.7144193E-04   4.3342818E+05   -1.7983038E+00
   1.7223367E-04   4.2985234E+05   -1.7977490E+00
   1.7302906E-04   4.2630708E+05   -1.7971938E+00
   1.7382813E-04   4.2279216E+05   -1.7966382E+00
   1.7463089E-04   4.1930728E+05   -1.7960820E+00
   1.7543735E-04   4.1585220E+05   -1.7955254E+00
   1.7624754E-04   4.1242664E+05   -1.7949683E+00
   1.7706147E-04   4.0903035E+05   -1.7944107E+00
   1.7787916E-04   4.0566307E+05   -1.7938527E+00
   1.7870062E-04   4.0232455E+05   -1.7932942E+00
   1.7952588E-04   3.9901453E+05   -1.7927353E+00
   1.8035495E-04   3.9573276E+05   -1.7921759E+00
   1.8118785E-04   3.9247900E+05   -1.7916161E+00
   1.8202459E-04   3.8925299E+05   -1.7910559E+00
   1.8286520E-04   3.8605450E+05   -1.7904953E+00
   1.8370969E-04   3.8288327E+05   -1.7899342E+00
   1.8455808E-04   3.7973908E+05   -1.7893727E+00
   1.8541039E-04   3.7662169E+05   -1.7888108E+00
   1.8626663E-04   3.7353085E+05   -1.7882485E+00
   1.8712683E-04   3.7046634E+05   -1.7876859E+00
   1.8799100E-04   3.6742792E+05   -1.7871228E+00
   1.8885917E-04   3.6441537E+05   -1.7865593E+00
   1.8973134E-04   3.6142846E+05   -1.7859955E+00
   1.9060754E-04   3.5846696E+05   -1.7854313E+00
   1.9148778E-04   3.5553065E+05   -1.7848667E+00
   1.9237209E-04   3.5261931E+05   -1.7843017E+00
   1.9326049E-04   3.4973272E+05   -1.7837364E+00
   1.9415299E-04   3.4687067E+05   -1.7831707E+00
   1.9504960E-04   3.4403293E+05   -1.7826047E+00
   1.9595036E-04   3.4121930E+05   -1.7820384E+00
   1.9685528E-04   3.3842957E+05   -1.7814717E+00
   1.9776438E-04   3.3566352E+05   -1.7809047E+00
   1.9867768E-04   3.3292094E+05   -1.7803374E+00
   1.9959519E-04   3.3020164E+05   -1.7797697E+00
   2.0051694E-04   3.2750541E+05   -1.7792018E+00
   2.0144295E-04   3.2483204E+05   -1.7786335E+00
   2.0237324E-04   3.2218134E+05   -1.7780649E+00
   2.0330782E-04   3.1955311E+05   -1.7774961E+00
   2.0424671E-04   3.1694714E+05   -1.7769269E+00
   2.0518995E-04   3.1436326E+05   -1.7763575E+00
   2.0613754E-04   3.1180125E+05   -1.7757878E+00
   2.0708950E-04   3.0926094E+05   -1.7752178E+00
   2.0804586E-04   3.0674214E+05   -1.7746475E+00
   2.0900664E-04   3.0424464E+05   -1.7740770E+00
   2.0997185E-04   3.0176827E+05   -1.7735063E+00
   2.1094152E-04   2.9931285E+05   -1.7729353E+00
   2.1191567E-04   2.9687819E+05   -1.7723640E+00
   2.1289432E-04   2.9446411E+05   -1.7717925E+00
   2.1387749E-04   2.9207042E+05   -1.7712208E+00
   2.1486520E-04   2.8969696E+05   -1.7706489E+00
   2.1585747E-04   2.8734354E+05   -1.7700767E+00
   2.1685432E-04   2.8500999E+05   -1.7695043E+00
   2.1785578E-04   2.8269614E+05   -1.7689318E+00
   2.1886186E-04   2.8040181E+05   -1.7683590E+00
   2.1987259E-04   2.7812684E+05   -1.7677860E+00
   2.2088798E-04   2.7587106E+05   -1.7672128E+00
   2.2190807E-04   2.7363429E+05   -1.7666395E+00
   2.2293286E-04   2.7141637E+05   -1.7660660E+00
   2.2396239E-04   2.6921715E+05   -1.7654923E+00
   2.2499667E-04   2.6703645E+05   -1.7649185E+00
   2.2603573E-04   2.6487411E+05   -1.7643444E+00
   2.2707958E-04   2.6272998E+05   -1.7637703E+00
   2.2812826E-04   2.6060390E+05   -1.7631960E+00
   2.2918178E-04   2.5849570E+05   -1.7626215E+00
   2.3024017E-04   2.5640524E+05   -1.7620469E+00
   2.3130344E-04   2.5433235E+05   -1.7614722E+00
   2.3237162E-04   2.5227690E+05   -1.7608974E+00
   2.3344474E-04   2.5023871E+05   -1.7603225E+00
   2.3452281E-04   2.4821765E+05   -1.7597474E+00
   2.3560586E-04   2.4621357E+05   -1.7591722E+00
   2.3669392E-04   2.4422632E+05   -1.7585970E+00
   2.3778699E-04   2.4225574E+05   -1.7580216E+00
   2.3888512E-04   2.4030171E+05   -1.7574462E+00
   2.3998831E-04   2.3836406E+05   -1.7568707E+00
   2.4109661E-04   2.3644267E+05   -1.7562951E+00
   2.4221001E-04   2.3453739E+05   -1.7557194E+00
   2.4332857E-04   2.3264808E+05   -1.7551437E+00
   2.4445228E-04   2.3077460E+05   -1.7545679E+00
   2.4558119E-04   2.2891681E+05   -1.7539921E+00
   2.4671531E-04   2.2707458E+05   -1.7534163E+00
   2.4785467E-04   2.2524777E+05   -1.7528404E+00
   2.4899928E-04   2.2343626E+05   -1.7522644E+00
   2.5014919E-04   2.2163990E+05   -1.7516885E+00
   2.5130440E-04   2.1985857E+05   -1.7511125E+00
   2.5246495E-04   2.1809213E+05   -1.7505365E+00
   2.5363086E-04   2.1634046E+05   -1.7499605E+00
   2.5480216E-04   2.1460342E+05   -1.7493845E+00
   2.5597886E-04   2.1288090E+05   -1.7488086E+00
   2.5716100E-04   2.1117277E+05   -1.7482326E+00
   2.5834859E-04   2.0947890E+05   -1.7476566E+00
   2.5954168E-04   2.0779916E+05   -1.7470807E+00
   2.6074027E-04   2.0613344E+05   -1.7465048E+00
   2.6194439E-04   2.0448162E+05   -1.7459289E+00
   2.6315408E-04   2.0284357E+05   -1.7453531E+00
   2.6436935E-04   2.0121918E+05   -1.7447773E+00
   2.6559024E-04   1.9960832E+05   -1.7442016E+00
   2.6681676E-04   1.9801089E+05   -1.7436260E+00
   2.6804895E-04   1.9642676E+05   -1.7430504E+00
   2.6928683E-04   1.9485582E+05   -1.7424749E+00
   2.7053042E-04   1.9329796E+05   -1.7418994E+00
   2.7177976E-04   1.9175306E+05   -1.7413241E+00
   2.7303487E-04   1.9022101E+05   -1.7407488E+00
   2.7429577E-04   1.8870171E+05   -1.7401737E+00
   2.7556250E-04   1.8719503E+05   -1.7395986E+00
   2.7683507E-04   1.8570087E+05   -1.7390237E+00
   2.7811353E-04   1.8421913E+05   -1.7384488E+00
   2.7939788E-04   1.8274970E+05   -1.7378741E+00
   2.8068817E-04   1.8129247E+05   -1.7372995E+00
   2.8198442E-04   1.7984733E+05   -1.7367251E+00
   2.8328665E-04   1.7841419E+05   -1.7361508E+00
   2.8459490E-04   1.7699293E+05   -1.7355766E+00
   2.8590919E-04   1.7558346E+05   -1.7350026E+00
   2.8722955E-04   1.7418568E+05   -1.7344288E+00
   2.8855600E-04   1.7279948E+05   -1.7338551E+00
   2.8988859E-04   1.7142476E+05   -1.7332816E+00
   2.9122732E-04   1.7006143E+05   -1.7327082E+00
   2.9257224E-04   1.6870939E+05   -1.7321351E+00
   2.9392337E-04   1.6736854E+05   -1.7315621E+00
   2.9528074E-04   1.6603878E+05   -1.7309893E+00
   2.9664438E-04   1.6472002E+05   -1.7304168E+00
   2.9801431E-04   1.6341217E+05   -1.7298444E+00
   2.9939057E-04   1.6211513E+05   -1.7292722E+00
   3.0077319E-04   1.6082881E+05   -1.7287003E+00
   3.0216219E-04   1.5955312E+05   -1.7281286E+00
   3.0355761E-04   1.5828796E+05   -1.7275571E+00
   3.0495947E-04   1.5703325E+05   -1.7269858E+00
   3.0636780E-04   1.5578889E+05   -1.7264148E+00
   3.0778264E-04   1.5455480E+05   -1.7258441E+00
   3.0920401E-04   1.5333089E+05   -1.7252736E+00
   3.1063195E-04   1.5211707E+05   -1.7247033E+00
   3.1206648E-04   1.5091326E+05   -1.7241333E+00
   3.1350764E-04   1.4971936E+05   -1.7235636E+00
   3.1495545E-04   1.4853530E+05   -1.7229942E+00
   3.1640994E-04   1.4736100E+05   -1.7224250E+00
   3.1787116E-04   1.4619635E+05   -1.7218562E+00
   3.1933912E-04   1.4504130E+05   -1.7212876E+00
   3.2081386E-04   1.4389574E+05   -1.7207193E+00
   3.2229541E-04   1.4275961E+05   -1.7201514E+00
   3.2378381E-04   1.4163282E+05   -1.7195837E+00
   3.2527908E-04   1.4051529E+05   -1.7190164E+00
   3.2678125E-04   1.3940694E+05   -1.7184494E+00
   3.2829036E-04   1.3830770E+05   -1.7178827E+00
   3.2980644E-04   1.3721748E+05   -1.7173164E+00
   3.3132952E-04   1.3613621E+05   -1.7167504E+00
   3.3285963E-04   1.3506381E+05   -1.7161847E+00
   3.3439681E-04   1.3400021E+05   -1.7156194E+00
   3.3594109E-04   1.3294533E+05   -1.7150545E+00
   3.3749250E-04   1.3189910E+05   -1.7144899E+00
   3.3905108E-04   1.3086144E+05   -1.7139257E+00
   3.4061685E-04   1.2983228E+05   -1.7133618E+00
   3.4218986E-04   1.2881155E+05   -1.7127983E+00
   3.4377013E-04   1.2779918E+05   -1.7122353E+00
   3.4535769E-04   1.2679509E+05   -1.7116726E+00
   3.4695259E-04   1.2579922E+05   -1.7111103E+00
   3.4855485E-04   1.2481149E+05   -1.7105484E+00
   3.5016452E-04   1.2383184E+05   -1.7099869E+00
   3.5178161E-04   1.2286020E+05   -1.7094259E+00
   3.5340618E-04   1.2189649E+05   -1.7088652E+00
   3.5503824E-04   1.2094066E+05   -1.7083050E+00
   3.5667785E-04   1.1999263E+05   -1.7077452E+00
   3.5832502E-04   1.1905234E+05   -1.7071858E+00
   3.5997981E-04   1.1811972E+05   -1.7066269E+00
   3.6164223E-04   1.1719471E+05   -1.7060685E+00
   3.6331233E-04   1.1627724E+05   -1.7055104E+00
   3.6499015E-04   1.1536725E+05   -1.7049529E+00
   3.6667571E-04   1.1446468E+05   -1.7043958E+00
   3.6836906E-04   1.1356946E+05   -1.7038391E+00
   3.7007022E-04   1.1268153E+05   -1.7032830E+00
   3.7177925E-04   1.1180083E+05   -1.7027273E+00
   3.7349616E-04   1.1092729E+05   -1.7021721E+00
   3.7522101E-04   1.1006087E+05   -1.7016174E+00
   3.7695382E-04   1.0920148E+05   -1.7010632E+00
   3.7869463E-04   1.0834909E+05   -1.7005095E+00
   3.8044348E-04   1.0750362E+05   -1.6999562E+00
   3.8220041E-04   1.0666503E+05   -1.6994035E+00
   3.8396545E-04   1.0583324E+05   -1.6988513E+00
   3.8573864E-04   1.0500821E+05   -1.6982997E+00
   3.8752002E-04   1.0418987E+05   -1.6977485E+00
   3.8930963E-04   1.0337817E+05   -1.6971979E+00
   3.9110750E-04   1.0257306E+05   -1.6966478E+00
   3.9291368E-04   1.0177447E+05   -1.6960983E+00
   3.9472820E-04   1.0098236E+05   -1.6955493E+00
   3.9655109E-04   1.0019667E+05   -1.6950009E+00
   3.9838241E-04   9.9417335E+04   -1.6944530E+00
   4.0022218E-04   9.8644316E+04   -1.6939056E+00
   4.0207045E-04   9.7877554E+04   -1.6933589E+00
   4.0392725E-04   9.7116996E+04   -1.6928127E+00
   4.0579263E-04   9.6362591E+04   -1.6922670E+00
   4.0766662E-04   9.5614286E+04   -1.6917220E+00
   4.0954927E-04   9.4872031E+04   -1.6911775E+00
   4.1144061E-04   9.4135773E+04   -1.6906337E+00
   4.1334068E-04   9.3405463E+04   -1.6900904E+00
   4.1524953E-04   9.2681051E+04   -1.6895477E+00
   4.1716720E-04   9.1962487E+04   -1.6890056E+00
   4.1909372E-04   9.1249721E+04   -1.6884642E+00
   4.2102914E-04   9.0542706E+04   -1.6879233E+00
   4.2297350E-04   8.9841393E+04   -1.6873831E+00
   4.2492683E-04   8.9145733E+04   -1.6868435E+00
   4.2688919E-04   8.8455680E+04   -1.6863045E+00
   4.2886061E-04   8.7771186E+04   -1.6857662E+00
   4.3084113E-04   8.7092205E+04   -1.6852284E+00
   4.3283080E-04   8.6418691E+04   -1.6846914E+00
   4.3482966E-04   8.5750597E+04   -1.6841549E+00
   4.3683775E-04   8.5087878E+04   -1.6836191E+00
   4.3885511E-04   8.4430489E+04   -1.6830840E+00
   4.4088179E-04   8.3778386E+04   -1.6825496E+00
   4.4291783E-04   8.3131524E+04   -1.6820157E+00
   4.4496327E-04   8.2489859E+04   -1.6814826E+00
   4.4701816E-04   8.1853347E+04   -1.6809501E+00
   4.4908253E-04   8.1221947E+04   -1.6804184E+00
   4.5115644E-04   8.0595614E+04   -1.6798872E+00
   4.5323993E-04   7.9974306E+04   -1.6793568E+00
   4.5533304E-04   7.9357983E+04   -1.6788271E+00
   4.5743582E-04   7.8746601E+04   -1.6782981E+00
   4.5954830E-04   7.8140119E+04   -1.6777697E+00
   4.6167054E-04   7.7538497E+04   -1.6772421E+00
   4.6380259E-04   7.6941694E+04   -1.6767151E+00
   4.6594448E-04   7.6349670E+04   -1.6761889E+00
   4.6809626E-04   7.5762385E+04   -1.6756634E+00
   4.7025797E-04   7.5179798E+04   -1.6751386E+00
   4.7242967E-04   7.4601872E+04   -1.6746145E+00
   4.7461140E-04   7.4028568E+04   -1.6740912E+00
   4.7680321E-04   7.3459846E+04   -1.6735686E+00
   4.7900514E-04   7.2895668E+04   -1.6730467E+00
   4.8121723E-04   7.2335998E+04   -1.6725256E+00
   4.8343954E-04   7.1780797E+04   -1.6720052E+00
   4.8567212E-04   7.1230027E+04   -1.6714855E+00
   4.8791500E-04   7.0683653E+04   -1.6709666E+00
   4.9016825E-04   7.0141638E+04   -1.6704485E+00
   4.9243189E-04   6.9603944E+04   -1.6699311E+00
   4.9470600E-04   6.9070537E+04   -1.6694145E+00
   4.9699060E-04   6.8541381E+04   -1.6688986E+00
   4.9928575E-04   6.8016440E+04   -1.6683835E+00
   5.0159151E-04   6.7495680E+04   -1.6678692E+00
   5.0390791E-04   6.6979066E+04   -1.6673557E+00
   5.0623501E-04   6.6466562E+04   -1.6668429E+00
   5.0857286E-04   6.5958136E+04   -1.6663310E+00
   5.1092150E-04   6.5453754E+04   -1.6658198E+00
   5.1328099E-04   6.4953381E+04   -1.6653094E+00
   5.1565137E-04   6.4456985E+04   -1.6647998E+00
   5.1803270E-04   6.3964533E+04   -1.6642910E+00
   5.2042503E-04   6.3475992E+04   -1.6637830E+00
   5.2282841E-04   6.2991329E+04   -1.6632758E+00
   5.2524289E-04   6.2510513E+04   -1.6627694E+00
   5.2766851E-04   6.2033512E+04   -1.6622639E+00
   5.3010534E-04   6.1560293E+04   -1.6617591E+00
   5.3255342E-04   6.1090827E+04   -1.6612552E+00
   5.3501281E-04   6.0625081E+04   -1.6607521E+00
   5.3748356E-04   6.0163026E+04   -1.6602498E+00
   5.3996571E-04   5.9704630E+04   -1.6597483E+00
   5.4245933E-04   5.9249864E+04   -1.6592477E+00
   5.4496446E-04   5.8798697E+04   -1.6587479E+00
   5.4748117E-04   5.8351100E+04   -1.6582490E+00
   5.5000949E-04   5.7907043E+04   -1.6577508E+00
   5.5254949E-04   5.7466497E+04   -1.6572536E+00
   5.5510123E-04   5.7029434E+04   -1.6567572E+00
   5.5766474E-04   5.6595823E+04   -1.6562616E+00
   5.6024010E-04   5.6165638E+04   -1.6557669E+00
   5.6282734E-04   5.5738850E+04   -1.6552730E+00
   5.6542654E-04   5.5315430E+04   -1.6547801E+00
   5.6803774E-04   5.4895351E+04   -1.6542879E+00
   5.7066099E-04   5.4478586E+04   -1.6537967E+00
   5.7329637E-04   5.4065107E+04   -1.6533063E+00
   5.7594391E-04   5.3654888E+04   -1.6528168E+00
   5.7860368E-04   5.3247901E+04   -1.6523281E+00
   5.8127573E-04   5.2844121E+04   -1.6518403E+00
   5.8396012E-04   5.2443519E+04   -1.6513535E+00
   5.8665691E-04   5.2046072E+04   -1.6508675E+00
   5.8936616E-04   5.1651752E+04   -1.6503823E+00
   5.9208791E-04   5.1260534E+04   -1.6498981E+00
   5.9482223E-04   5.0872392E+04   -1.6494148E+00
   5.9756919E-04   5.0487302E+04   -1.6489323E+00
   6.0032882E-04   5.0105238E+04   -1.6484508E+00
   6.0310120E-04   4.9726176E+04   -1.6479701E+00
   6.0588639E-04   4.9350090E+04   -1.6474904E+00
   6.0868443E-04   4.8976958E+04   -1.6470115E+00
   6.1149540E-04   4.8606753E+04   -1.6465336E+00
   6.1431935E-04   4.8239453E+04   -1.6460566E+00
   6.1715634E-04   4.7875033E+04   -1.6455805E+00
   6.2000644E-04   4.7513471E+04   -1.6451053E+00
   6.2286969E-04   4.7154742E+04   -1.6446310E+00
