#        a       HoverH0(a)       dlogHdloga_of_a(a)
   1.0000000E-04   1.1532393E+06   -1.9034896E+00
   1.0046181E-04   1.1431702E+06   -1.9031302E+00
   1.0092575E-04   1.1331909E+06   -1.9027699E+00
   1.0139184E-04   1.1233007E+06   -1.9024085E+00
   1.0186008E-04   1.1134986E+06   -1.9020461E+00
   1.0233048E-04   1.1037838E+06   -1.9016826E+00
   1.0280305E-04   1.0941557E+06   -1.9013182E+00
   1.0327781E-04   1.0846134E+06   -1.9009527E+00
   1.0375475E-04   1.0751561E+06   -1.9005862E+00
   1.0423390E-04   1.0657830E+06   -1.9002187E+00
   1.0471527E-04   1.0564935E+06   -1.8998502E+00
   1.0519885E-04   1.0472867E+06   -1.8994807E+00
   1.0568467E-04   1.0381619E+06   -1.8991101E+00
   1.0617274E-04   1.0291184E+06   -1.8987386E+00
   1.0666305E-04   1.0201554E+06   -1.8983660E+00
   1.0715563E-04   1.0112723E+06   -1.8979923E+00
   1.0765049E-04   1.0024682E+06   -1.8976177E+00
   1.0814763E-04   9.9374242E+05   -1.8972420E+00
   1.0864707E-04   9.8509434E+05   -1.8968654E+00
   1.0914881E-04   9.7652322E+05   -1.8964877E+00
   1.0965287E-04   9.6802836E+05   -1.8961089E+00
   1.1015926E-04   9.5960907E+05   -1.8957292E+00
   1.1066799E-04   9.5126468E+05   -1.8953484E+00
   1.1117906E-04   9.4299450E+05   -1.8949666E+00
   1.1169250E-04   9.3479787E+05   -1.8945838E+00
   1.1220831E-04   9.2667412E+05   -1.8942000E+00
   1.1272650E-04   9.1862259E+05   -1.8938152E+00
   1.1324708E-04   9.1064264E+05   -1.8934293E+00
   1.1377007E-04   9.0273362E+05   -1.8930424E+00
   1.1429547E-04   8.9489489E+05   -1.8926545E+00
   1.1482330E-04   8.8712581E+05   -1.8922655E+00
   1.1535356E-04   8.7942576E+05   -1.8918756E+00
   1.1588628E-04   8.7179411E+05   -1.8914846E+00
   1.1642145E-04   8.6423024E+05   -1.8910926E+00
   1.1695910E-04   8.5673355E+05   -1.8906996E+00
   1.1749923E-04   8.4930343E+05   -1.8903055E+00
   1.1804185E-04   8.4193928E+05   -1.8899105E+00
   1.1858698E-04   8.3464050E+05   -1.8895144E+00
   1.1913463E-04   8.2740651E+05   -1.8891173E+00
   1.1968481E-04   8.2023671E+05   -1.8887192E+00
   1.2023752E-04   8.1313055E+05   -1.8883200E+00
   1.2079279E-04   8.0608743E+05   -1.8879199E+00
   1.2135063E-04   7.9910679E+05   -1.8875187E+00
   1.2191104E-04   7.9218807E+05   -1.8871165E+00
   1.2247403E-04   7.8533071E+05   -1.8867133E+00
   1.2303963E-04   7.7853416E+05   -1.8863091E+00
   1.2360784E-04   7.7179786E+05   -1.8859038E+00
   1.2417868E-04   7.6512128E+05   -1.8854975E+00
   1.2475215E-04   7.5850388E+05   -1.8850903E+00
   1.2532826E-04   7.5194513E+05   -1.8846820E+00
   1.2590704E-04   7.4544449E+05   -1.8842727E+00
   1.2648850E-04   7.3900145E+05   -1.8838623E+00
   1.2707263E-04   7.3261548E+05   -1.8834510E+00
   1.2765947E-04   7.2628607E+05   -1.8830386E+00
   1.2824901E-04   7.2001272E+05   -1.8826253E+00
   1.2884128E-04   7.1379491E+05   -1.8822109E+00
   1.2943628E-04   7.0763216E+05   -1.8817955E+00
   1.3003403E-04   7.0152395E+05   -1.8813791E+00
   1.3063454E-04   6.9546981E+05   -1.8809617E+00
   1.3123783E-04   6.8946924E+05   -1.8805433E+00
   1.3184390E-04   6.8352176E+05   -1.8801239E+00
   1.3245277E-04   6.7762690E+05   -1.8797034E+00
   1.3306445E-04   6.7178418E+05   -1.8792820E+00
   1.3367895E-04   6.6599313E+05   -1.8788595E+00
   1.3429630E-04   6.6025329E+05   -1.8784361E+00
   1.3491649E-04   6.5456419E+05   -1.8780116E+00
   1.3553955E-04   6.4892539E+05   -1.8775862E+00
   1.3616548E-04   6.4333643E+05   -1.8771597E+00
   1.3679431E-04   6.3779686E+05   -1.8767323E+00
   1.3742604E-04   6.3230623E+05   -1.8763038E+00
   1.3806069E-04   6.2686411E+05   -1.8758744E+00
   1.3869827E-04   6.2147006E+05   -1.8754439E+00
   1.3933879E-04   6.1612365E+05   -1.8750125E+00
   1.3998227E-04   6.1082445E+05   -1.8745800E+00
   1.4062872E-04   6.0557203E+05   -1.8741466E+00
   1.4127816E-04   6.0036598E+05   -1.8737121E+00
   1.4193060E-04   5.9520588E+05   -1.8732767E+00
   1.4258605E-04   5.9009131E+05   -1.8728403E+00
   1.4324453E-04   5.8502187E+05   -1.8724029E+00
   1.4390605E-04   5.7999715E+05   -1.8719645E+00
   1.4457062E-04   5.7501676E+05   -1.8715251E+00
   1.4523826E-04   5.7008028E+05   -1.8710848E+00
   1.4590899E-04   5.6518733E+05   -1.8706434E+00
   1.4658281E-04   5.6033752E+05   -1.8702011E+00
   1.4725974E-04   5.5553046E+05   -1.8697578E+00
   1.4793981E-04   5.5076576E+05   -1.8693135E+00
   1.4862301E-04   5.4604305E+05   -1.8688682E+00
   1.4930936E-04   5.4136194E+05   -1.8684219E+00
   1.4999889E-04   5.3672207E+05   -1.8679747E+00
   1.5069160E-04   5.3212306E+05   -1.8675265E+00
   1.5138751E-04   5.2756456E+05   -1.8670774E+00
   1.5208663E-04   5.2304618E+05   -1.8666272E+00
   1.5278899E-04   5.1856759E+05   -1.8661761E+00
   1.5349458E-04   5.1412841E+05   -1.8657240E+00
   1.5420343E-04   5.0972829E+05   -1.8652710E+00
   1.5491556E-04   5.0536689E+05   -1.8648170E+00
   1.5563098E-04   5.0104386E+05   -1.8643620E+00
   1.5634970E-04   4.9675884E+05   -1.8639061E+00
   1.5707174E-04   4.9251151E+05   -1.8634492E+00
   1.5779711E-04   4.8830153E+05   -1.8629914E+00
   1.5852584E-04   4.8412855E+05   -1.8625326E+00
   1.5925792E-04   4.7999225E+05   -1.8620728E+00
   1.5999339E-04   4.7589230E+05   -1.8616121E+00
   1.6073226E-04   4.7182837E+05   -1.8611505E+00
   1.6147454E-04   4.6780014E+05   -1.8606879E+00
   1.6222024E-04   4.6380730E+05   -1.8602243E+00
   1.6296939E-04   4.5984952E+05   -1.8597599E+00
   1.6372200E-04   4.5592648E+05   -1.8592944E+00
   1.6447809E-04   4.5203789E+05   -1.8588281E+00
   1.6523767E-04   4.4818342E+05   -1.8583608E+00
   1.6600075E-04   4.4436278E+05   -1.8578925E+00
   1.6676736E-04   4.4057566E+05   -1.8574234E+00
   1.6753751E-04   4.3682176E+05   -1.8569533E+00
   1.6831122E-04   4.3310079E+05   -1.8564823E+00
   1.6908849E-04   4.2941244E+05   -1.8560103E+00
   1.6986936E-04   4.2575643E+05   -1.8555374E+00
   1.7065384E-04   4.2213247E+05   -1.8550636E+00
   1.7144193E-04   4.1854027E+05   -1.8545889E+00
   1.7223367E-04   4.1497955E+05   -1.8541133E+00
   1.7302906E-04   4.1145002E+05   -1.8536368E+00
   1.7382813E-04   4.0795141E+05   -1.8531593E+00
   1.7463089E-04   4.0448344E+05   -1.8526809E+00
   1.7543735E-04   4.0104583E+05   -1.8522017E+00
   1.7624754E-04   3.9763832E+05   -1.8517215E+00
   1.7706147E-04   3.9426064E+05   -1.8512404E+00
   1.7787916E-04   3.9091251E+05   -1.8507584E+00
   1.7870062E-04   3.8759368E+05   -1.8502756E+00
   1.7952588E-04   3.8430388E+05   -1.8497918E+00
   1.8035495E-04   3.8104285E+05   -1.8493072E+00
   1.8118785E-04   3.7781034E+05   -1.8488216E+00
   1.8202459E-04   3.7460609E+05   -1.8483352E+00
   1.8286520E-04   3.7142984E+05   -1.8478479E+00
   1.8370969E-04   3.6828136E+05   -1.8473597E+00
   1.8455808E-04   3.6516039E+05   -1.8468706E+00
   1.8541039E-04   3.6206668E+05   -1.8463807E+00
   1.8626663E-04   3.5900000E+05   -1.8458899E+00
   1.8712683E-04   3.5596009E+05   -1.8453982E+00
   1.8799100E-04   3.5294673E+05   -1.8449056E+00
   1.8885917E-04   3.4995967E+05   -1.8444122E+00
   1.8973134E-04   3.4699868E+05   -1.8439180E+00
   1.9060754E-04   3.4406353E+05   -1.8434228E+00
   1.9148778E-04   3.4115398E+05   -1.8429269E+00
   1.9237209E-04   3.3826981E+05   -1.8424300E+00
   1.9326049E-04   3.3541079E+05   -1.8419324E+00
   1.9415299E-04   3.3257671E+05   -1.8414338E+00
   1.9504960E-04   3.2976732E+05   -1.8409345E+00
   1.9595036E-04   3.2698242E+05   -1.8404343E+00
   1.9685528E-04   3.2422179E+05   -1.8399332E+00
   1.9776438E-04   3.2148521E+05   -1.8394314E+00
   1.9867768E-04   3.1877246E+05   -1.8389287E+00
   1.9959519E-04   3.1608334E+05   -1.8384252E+00
   2.0051694E-04   3.1341762E+05   -1.8379208E+00
   2.0144295E-04   3.1077512E+05   -1.8374157E+00
   2.0237324E-04   3.0815561E+05   -1.8369097E+00
   2.0330782E-04   3.0555889E+05   -1.8364029E+00
   2.0424671E-04   3.0298476E+05   -1.8358953E+00
   2.0518995E-04   3.0043302E+05   -1.8353869E+00
   2.0613754E-04   2.9790347E+05   -1.8348777E+00
   2.0708950E-04   2.9539592E+05   -1.8343677E+00
   2.0804586E-04   2.9291016E+05   -1.8338569E+00
   2.0900664E-04   2.9044600E+05   -1.8333453E+00
   2.0997185E-04   2.8800325E+05   -1.8328330E+00
   2.1094152E-04   2.8558171E+05   -1.8323198E+00
   2.1191567E-04   2.8318121E+05   -1.8318059E+00
   2.1289432E-04   2.8080155E+05   -1.8312912E+00
   2.1387749E-04   2.7844255E+05   -1.8307757E+00
   2.1486520E-04   2.7610403E+05   -1.8302595E+00
   2.1585747E-04   2.7378579E+05   -1.8297424E+00
   2.1685432E-04   2.7148767E+05   -1.8292247E+00
   2.1785578E-04   2.6920948E+05   -1.8287061E+00
   2.1886186E-04   2.6695104E+05   -1.8281869E+00
   2.1987259E-04   2.6471219E+05   -1.8276668E+00
   2.2088798E-04   2.6249274E+05   -1.8271460E+00
   2.2190807E-04   2.6029253E+05   -1.8266245E+00
   2.2293286E-04   2.5811138E+05   -1.8261023E+00
   2.2396239E-04   2.5594912E+05   -1.8255793E+00
   2.2499667E-04   2.5380559E+05   -1.8250556E+00
   2.2603573E-04   2.5168062E+05   -1.8245311E+00
   2.2707958E-04   2.4957404E+05   -1.8240059E+00
   2.2812826E-04   2.4748569E+05   -1.8234801E+00
   2.2918178E-04   2.4541541E+05   -1.8229535E+00
   2.3024017E-04   2.4336305E+05   -1.8224262E+00
   2.3130344E-04   2.4132843E+05   -1.8218982E+00
   2.3237162E-04   2.3931140E+05   -1.8213694E+00
   2.3344474E-04   2.3731182E+05   -1.8208400E+00
   2.3452281E-04   2.3532951E+05   -1.8203099E+00
   2.3560586E-04   2.3336434E+05   -1.8197792E+00
   2.3669392E-04   2.3141614E+05   -1.8192477E+00
   2.3778699E-04   2.2948476E+05   -1.8187155E+00
   2.3888512E-04   2.2757007E+05   -1.8181827E+00
   2.3998831E-04   2.2567190E+05   -1.8176492E+00
   2.4109661E-04   2.2379012E+05   -1.8171151E+00
   2.4221001E-04   2.2192457E+05   -1.8165802E+00
   2.4332857E-04   2.2007512E+05   -1.8160448E+00
   2.4445228E-04   2.1824162E+05   -1.8155086E+00
   2.4558119E-04   2.1642393E+05   -1.8149718E+00
   2.4671531E-04   2.1462191E+05   -1.8144344E+00
   2.4785467E-04   2.1283542E+05   -1.8138964E+00
   2.4899928E-04   2.1106433E+05   -1.8133577E+00
   2.5014919E-04   2.0930849E+05   -1.8128183E+00
   2.5130440E-04   2.0756778E+05   -1.8122784E+00
   2.5246495E-04   2.0584206E+05   -1.8117378E+00
   2.5363086E-04   2.0413119E+05   -1.8111966E+00
   2.5480216E-04   2.0243505E+05   -1.8106548E+00
   2.5597886E-04   2.0075350E+05   -1.8101124E+00
   2.5716100E-04   1.9908642E+05   -1.8095694E+00
   2.5834859E-04   1.9743367E+05   -1.8090258E+00
   2.5954168E-04   1.9579514E+05   -1.8084816E+00
   2.6074027E-04   1.9417069E+05   -1.8079368E+00
   2.6194439E-04   1.9256021E+05   -1.8073914E+00
   2.6315408E-04   1.9096356E+05   -1.8068455E+00
   2.6436935E-04   1.8938063E+05   -1.8062990E+00
   2.6559024E-04   1.8781129E+05   -1.8057519E+00
   2.6681676E-04   1.8625542E+05   -1.8052042E+00
   2.6804895E-04   1.8471292E+05   -1.8046560E+00
   2.6928683E-04   1.8318364E+05   -1.8041073E+00
   2.7053042E-04   1.8166749E+05   -1.8035580E+00
   2.7177976E-04   1.8016435E+05   -1.8030081E+00
   2.7303487E-04   1.7867409E+05   -1.8024577E+00
   2.7429577E-04   1.7719661E+05   -1.8019068E+00
   2.7556250E-04   1.7573180E+05   -1.8013553E+00
   2.7683507E-04   1.7427953E+05   -1.8008034E+00
   2.7811353E-04   1.7283971E+05   -1.8002509E+00
   2.7939788E-04   1.7141222E+05   -1.7996979E+00
   2.8068817E-04   1.6999696E+05   -1.7991444E+00
   2.8198442E-04   1.6859380E+05   -1.7985903E+00
   2.8328665E-04   1.6720266E+05   -1.7980358E+00
   2.8459490E-04   1.6582342E+05   -1.7974808E+00
   2.8590919E-04   1.6445598E+05   -1.7969253E+00
   2.8722955E-04   1.6310023E+05   -1.7963694E+00
   2.8855600E-04   1.6175607E+05   -1.7958129E+00
   2.8988859E-04   1.6042340E+05   -1.7952560E+00
   2.9122732E-04   1.5910212E+05   -1.7946986E+00
   2.9257224E-04   1.5779213E+05   -1.7941408E+00
   2.9392337E-04   1.5649333E+05   -1.7935825E+00
   2.9528074E-04   1.5520561E+05   -1.7930237E+00
   2.9664438E-04   1.5392889E+05   -1.7924646E+00
   2.9801431E-04   1.5266307E+05   -1.7919049E+00
   2.9939057E-04   1.5140804E+05   -1.7913449E+00
   3.0077319E-04   1.5016372E+05   -1.7907844E+00
   3.0216219E-04   1.4893001E+05   -1.7902235E+00
   3.0355761E-04   1.4770682E+05   -1.7896621E+00
   3.0495947E-04   1.4649405E+05   -1.7891004E+00
   3.0636780E-04   1.4529162E+05   -1.7885383E+00
   3.0778264E-04   1.4409943E+05   -1.7879757E+00
   3.0920401E-04   1.4291739E+05   -1.7874128E+00
   3.1063195E-04   1.4174542E+05   -1.7868494E+00
   3.1206648E-04   1.4058342E+05   -1.7862857E+00
   3.1350764E-04   1.3943131E+05   -1.7857216E+00
   3.1495545E-04   1.3828900E+05   -1.7851572E+00
   3.1640994E-04   1.3715641E+05   -1.7845924E+00
   3.1787116E-04   1.3603345E+05   -1.7840272E+00
   3.1933912E-04   1.3492003E+05   -1.7834616E+00
   3.2081386E-04   1.3381608E+05   -1.7828957E+00
   3.2229541E-04   1.3272150E+05   -1.7823295E+00
   3.2378381E-04   1.3163622E+05   -1.7817629E+00
   3.2527908E-04   1.3056016E+05   -1.7811960E+00
   3.2678125E-04   1.2949323E+05   -1.7806288E+00
   3.2829036E-04   1.2843535E+05   -1.7800612E+00
   3.2980644E-04   1.2738646E+05   -1.7794933E+00
   3.3132952E-04   1.2634645E+05   -1.7789252E+00
   3.3285963E-04   1.2531527E+05   -1.7783567E+00
   3.3439681E-04   1.2429283E+05   -1.7777879E+00
   3.3594109E-04   1.2327905E+05   -1.7772188E+00
   3.3749250E-04   1.2227386E+05   -1.7766495E+00
   3.3905108E-04   1.2127719E+05   -1.7760798E+00
   3.4061685E-04   1.2028896E+05   -1.7755099E+00
   3.4218986E-04   1.1930909E+05   -1.7749397E+00
   3.4377013E-04   1.1833752E+05   -1.7743693E+00
   3.4535769E-04   1.1737416E+05   -1.7737986E+00
   3.4695259E-04   1.1641896E+05   -1.7732276E+00
   3.4855485E-04   1.1547183E+05   -1.7726564E+00
   3.5016452E-04   1.1453271E+05   -1.7720850E+00
   3.5178161E-04   1.1360153E+05   -1.7715133E+00
   3.5340618E-04   1.1267821E+05   -1.7709414E+00
   3.5503824E-04   1.1176269E+05   -1.7703693E+00
   3.5667785E-04   1.1085491E+05   -1.7697969E+00
   3.5832502E-04   1.0995478E+05   -1.7692244E+00
   3.5997981E-04   1.0906226E+05   -1.7686516E+00
   3.6164223E-04   1.0817726E+05   -1.7680787E+00
   3.6331233E-04   1.0729973E+05   -1.7675055E+00
   3.6499015E-04   1.0642960E+05   -1.7669322E+00
   3.6667571E-04   1.0556680E+05   -1.7663587E+00
   3.6836906E-04   1.0471128E+05   -1.7657850E+00
   3.7007022E-04   1.0386296E+05   -1.7652111E+00
   3.7177925E-04   1.0302179E+05   -1.7646371E+00
   3.7349616E-04   1.0218770E+05   -1.7640630E+00
   3.7522101E-04   1.0136063E+05   -1.7634886E+00
   3.7695382E-04   1.0054052E+05   -1.7629142E+00
   3.7869463E-04   9.9727313E+04   -1.7623396E+00
   3.8044348E-04   9.8920943E+04   -1.7617649E+00
   3.8220041E-04   9.8121354E+04   -1.7611900E+00
   3.8396545E-04   9.7328486E+04   -1.7606150E+00
   3.8573864E-04   9.6542280E+04   -1.7600399E+00
   3.8752002E-04   9.5762678E+04   -1.7594647E+00
   3.8930963E-04   9.4989624E+04   -1.7588894E+00
   3.9110750E-04   9.4223061E+04   -1.7583140E+00
   3.9291368E-04   9.3462931E+04   -1.7577386E+00
   3.9472820E-04   9.2709179E+04   -1.7571630E+00
   3.9655109E-04   9.1961750E+04   -1.7565874E+00
   3.9838241E-04   9.1220589E+04   -1.7560116E+00
   4.0022218E-04   9.0485641E+04   -1.7554359E+00
   4.0207045E-04   8.9756852E+04   -1.7548600E+00
   4.0392725E-04   8.9034170E+04   -1.7542841E+00
   4.0579263E-04   8.8317541E+04   -1.7537082E+00
   4.0766662E-04   8.7606912E+04   -1.7531322E+00
   4.0954927E-04   8.6902232E+04   -1.7525562E+00
   4.1144061E-04   8.6203449E+04   -1.7519802E+00
   4.1334068E-04   8.5510512E+04   -1.7514041E+00
   4.1524953E-04   8.4823370E+04   -1.7508280E+00
   4.1716720E-04   8.4141973E+04   -1.7502520E+00
   4.1909372E-04   8.3466271E+04   -1.7496759E+00
   4.2102914E-04   8.2796215E+04   -1.7490998E+00
   4.2297350E-04   8.2131757E+04   -1.7485237E+00
   4.2492683E-04   8.1472847E+04   -1.7479476E+00
   4.2688919E-04   8.0819438E+04   -1.7473716E+00
   4.2886061E-04   8.0171482E+04   -1.7467956E+00
   4.3084113E-04   7.9528931E+04   -1.7462196E+00
   4.3283080E-04   7.8891741E+04   -1.7456436E+00
   4.3482966E-04   7.8259862E+04   -1.7450677E+00
   4.3683775E-04   7.7633251E+04   -1.7444919E+00
   4.3885511E-04   7.7011862E+04   -1.7439161E+00
   4.4088179E-04   7.6395648E+04   -1.7433404E+00
   4.4291783E-04   7.5784567E+04   -1.7427647E+00
   4.4496327E-04   7.5178572E+04   -1.7421891E+00
   4.4701816E-04   7.4577621E+04   -1.7416136E+00
   4.4908253E-04   7.3981671E+04   -1.7410382E+00
   4.5115644E-04   7.3390676E+04   -1.7404629E+00
   4.5323993E-04   7.2804597E+04   -1.7398877E+00
   4.5533304E-04   7.2223388E+04   -1.7393126E+00
   4.5743582E-04   7.1647010E+04   -1.7387376E+00
   4.5954830E-04   7.1075419E+04   -1.7381627E+00
   4.6167054E-04   7.0508576E+04   -1.7375879E+00
   4.6380259E-04   6.9946438E+04   -1.7370133E+00
   4.6594448E-04   6.9388966E+04   -1.7364388E+00
   4.6809626E-04   6.8836118E+04   -1.7358644E+00
   4.7025797E-04   6.8287857E+04   -1.7352902E+00
   4.7242967E-04   6.7744141E+04   -1.7347162E+00
   4.7461140E-04   6.7204932E+04   -1.7341423E+00
   4.7680321E-04   6.6670191E+04   -1.7335686E+00
   4.7900514E-04   6.6139880E+04   -1.7329950E+00
   4.8121723E-04   6.5613960E+04   -1.7324217E+00
   4.8343954E-04   6.5092395E+04   -1.7318485E+00
   4.8567212E-04   6.4575145E+04   -1.7312755E+00
   4.8791500E-04   6.4062176E+04   -1.7307027E+00
   4.9016825E-04   6.3553448E+04   -1.7301301E+00
   4.9243189E-04   6.3048927E+04   -1.7295577E+00
   4.9470600E-04   6.2548576E+04   -1.7289855E+00
   4.9699060E-04   6.2052359E+04   -1.7284136E+00
   4.9928575E-04   6.1560241E+04   -1.7278418E+00
   5.0159151E-04   6.1072187E+04   -1.7272704E+00
   5.0390791E-04   6.0588162E+04   -1.7266991E+00
   5.0623501E-04   6.0108131E+04   -1.7261281E+00
   5.0857286E-04   5.9632059E+04   -1.7255573E+00
   5.1092150E-04   5.9159915E+04   -1.7249868E+00
   5.1328099E-04   5.8691662E+04   -1.7244166E+00
   5.1565137E-04   5.8227269E+04   -1.7238466E+00
   5.1803270E-04   5.7766702E+04   -1.7232769E+00
   5.2042503E-04   5.7309929E+04   -1.7227074E+00
   5.2282841E-04   5.6856916E+04   -1.7221383E+00
   5.2524289E-04   5.6407632E+04   -1.7215695E+00
   5.2766851E-04   5.5962045E+04   -1.7210009E+00
   5.3010534E-04   5.5520123E+04   -1.7204327E+00
   5.3255342E-04   5.5081835E+04   -1.7198647E+00
   5.3501281E-04   5.4647150E+04   -1.7192971E+00
   5.3748356E-04   5.4216037E+04   -1.7187298E+00
   5.3996571E-04   5.3788466E+04   -1.7181628E+00
   5.4245933E-04   5.3364406E+04   -1.7175961E+00
   5.4496446E-04   5.2943828E+04   -1.7170298E+00
   5.4748117E-04   5.2526701E+04   -1.7164638E+00
   5.5000949E-04   5.2112997E+04   -1.7158982E+00
   5.5254949E-04   5.1702686E+04   -1.7153329E+00
   5.5510123E-04   5.1295739E+04   -1.7147680E+00
   5.5766474E-04   5.0892127E+04   -1.7142035E+00
   5.6024010E-04   5.0491822E+04   -1.7136393E+00
   5.6282734E-04   5.0094796E+04   -1.7130755E+00
   5.6542654E-04   4.9701021E+04   -1.7125121E+00
   5.6803774E-04   4.9310469E+04   -1.7119490E+00
   5.7066099E-04   4.8923114E+04   -1.7113864E+00
   5.7329637E-04   4.8538926E+04   -1.7108242E+00
   5.7594391E-04   4.8157881E+04   -1.7102623E+00
   5.7860368E-04   4.7779950E+04   -1.7097009E+00
   5.8127573E-04   4.7405108E+04   -1.7091399E+00
   5.8396012E-04   4.7033329E+04   -1.7085793E+00
   5.8665691E-04   4.6664585E+04   -1.7080191E+00
   5.8936616E-04   4.6298852E+04   -1.7074594E+00
   5.9208791E-04   4.5936104E+04   -1.7069001E+00
   5.9482223E-04   4.5576315E+04   -1.7063413E+00
   5.9756919E-04   4.5219460E+04   -1.7057829E+00
   6.0032882E-04   4.4865515E+04   -1.7052249E+00
   6.0310120E-04   4.4514455E+04   -1.7046674E+00
   6.0588639E-04   4.4166255E+04   -1.7041104E+00
   6.0868443E-04   4.3820892E+04   -1.7035538E+00
   6.1149540E-04   4.3478340E+04   -1.7029977E+00
   6.1431935E-04   4.3138577E+04   -1.7024421E+00
   6.1715634E-04   4.2801578E+04   -1.7018870E+00
   6.2000644E-04   4.2467320E+04   -1.7013324E+00
   6.2286969E-04   4.2135781E+04   -1.7007783E+00
