#        a       HoverH0(a)       dlogHdloga_of_a(a)
   1.0000000E-04   1.1383605E+06   -1.8688039E+00
   1.0046181E-04   1.1286019E+06   -1.8683575E+00
   1.0092575E-04   1.1189293E+06   -1.8679102E+00
   1.0139184E-04   1.1093418E+06   -1.8674619E+00
   1.0186008E-04   1.0998388E+06   -1.8670126E+00
   1.0233048E-04   1.0904195E+06   -1.8665623E+00
   1.0280305E-04   1.0810831E+06   -1.8661111E+00
   1.0327781E-04   1.0718288E+06   -1.8656589E+00
   1.0375475E-04   1.0626560E+06   -1.8652057E+00
   1.0423390E-04   1.0535639E+06   -1.8647516E+00
   1.0471527E-04   1.0445518E+06   -1.8642965E+00
   1.0519885E-04   1.0356189E+06   -1.8638404E+00
   1.0568467E-04   1.0267646E+06   -1.8633834E+00
   1.0617274E-04   1.0179881E+06   -1.8629255E+00
   1.0666305E-04   1.0092888E+06   -1.8624666E+00
   1.0715563E-04   1.0006659E+06   -1.8620067E+00
   1.0765049E-04   9.9211884E+05   -1.8615459E+00
   1.0814763E-04   9.8364684E+05   -1.8610841E+00
   1.0864707E-04   9.7524927E+05   -1.8606214E+00
   1.0914881E-04   9.6692546E+05   -1.8601577E+00
   1.0965287E-04   9.5867474E+05   -1.8596931E+00
   1.1015926E-04   9.5049646E+05   -1.8592276E+00
   1.1066799E-04   9.4238997E+05   -1.8587611E+00
   1.1117906E-04   9.3435462E+05   -1.8582937E+00
   1.1169250E-04   9.2638979E+05   -1.8578254E+00
   1.1220831E-04   9.1849484E+05   -1.8573561E+00
   1.1272650E-04   9.1066914E+05   -1.8568859E+00
   1.1324708E-04   9.0291207E+05   -1.8564147E+00
   1.1377007E-04   8.9522303E+05   -1.8559427E+00
   1.1429547E-04   8.8760140E+05   -1.8554697E+00
   1.1482330E-04   8.8004657E+05   -1.8549958E+00
   1.1535356E-04   8.7255796E+05   -1.8545210E+00
   1.1588628E-04   8.6513496E+05   -1.8540452E+00
   1.1642145E-04   8.5777700E+05   -1.8535686E+00
   1.1695910E-04   8.5048348E+05   -1.8530910E+00
   1.1749923E-04   8.4325383E+05   -1.8526125E+00
   1.1804185E-04   8.3608749E+05   -1.8521332E+00
   1.1858698E-04   8.2898388E+05   -1.8516529E+00
   1.1913463E-04   8.2194244E+05   -1.8511717E+00
   1.1968481E-04   8.1496263E+05   -1.8506896E+00
   1.2023752E-04   8.0804388E+05   -1.8502066E+00
   1.2079279E-04   8.0118566E+05   -1.8497228E+00
   1.2135063E-04   7.9438741E+05   -1.8492380E+00
   1.2191104E-04   7.8764862E+05   -1.8487524E+00
   1.2247403E-04   7.8096873E+05   -1.8482658E+00
   1.2303963E-04   7.7434724E+05   -1.8477784E+00
   1.2360784E-04   7.6778361E+05   -1.8472901E+00
   1.2417868E-04   7.6127733E+05   -1.8468010E+00
   1.2475215E-04   7.5482789E+05   -1.8463109E+00
   1.2532826E-04   7.4843478E+05   -1.8458200E+00
   1.2590704E-04   7.4209749E+05   -1.8453282E+00
   1.2648850E-04   7.3581554E+05   -1.8448356E+00
   1.2707263E-04   7.2958842E+05   -1.8443421E+00
   1.2765947E-04   7.2341564E+05   -1.8438477E+00
   1.2824901E-04   7.1729673E+05   -1.8433525E+00
   1.2884128E-04   7.1123120E+05   -1.8428564E+00
   1.2943628E-04   7.0521857E+05   -1.8423595E+00
   1.3003403E-04   6.9925837E+05   -1.8418617E+00
   1.3063454E-04   6.9335014E+05   -1.8413631E+00
   1.3123783E-04   6.8749341E+05   -1.8408637E+00
   1.3184390E-04   6.8168772E+05   -1.8403634E+00
   1.3245277E-04   6.7593262E+05   -1.8398622E+00
   1.3306445E-04   6.7022765E+05   -1.8393603E+00
   1.3367895E-04   6.6457237E+05   -1.8388575E+00
   1.3429630E-04   6.5896634E+05   -1.8383539E+00
   1.3491649E-04   6.5340911E+05   -1.8378494E+00
   1.3553955E-04   6.4790026E+05   -1.8373442E+00
   1.3616548E-04   6.4243935E+05   -1.8368381E+00
   1.3679431E-04   6.3702596E+05   -1.8363313E+00
   1.3742604E-04   6.3165965E+05   -1.8358236E+00
   1.3806069E-04   6.2634002E+05   -1.8353151E+00
   1.3869827E-04   6.2106665E+05   -1.8348058E+00
   1.3933879E-04   6.1583911E+05   -1.8342957E+00
   1.3998227E-04   6.1065702E+05   -1.8337849E+00
   1.4062872E-04   6.0551996E+05   -1.8332732E+00
   1.4127816E-04   6.0042752E+05   -1.8327607E+00
   1.4193060E-04   5.9537933E+05   -1.8322475E+00
   1.4258605E-04   5.9037497E+05   -1.8317335E+00
   1.4324453E-04   5.8541406E+05   -1.8312187E+00
   1.4390605E-04   5.8049622E+05   -1.8307032E+00
   1.4457062E-04   5.7562106E+05   -1.8301868E+00
   1.4523826E-04   5.7078820E+05   -1.8296697E+00
   1.4590899E-04   5.6599727E+05   -1.8291519E+00
   1.4658281E-04   5.6124789E+05   -1.8286333E+00
   1.4725974E-04   5.5653970E+05   -1.8281139E+00
   1.4793981E-04   5.5187232E+05   -1.8275938E+00
   1.4862301E-04   5.4724539E+05   -1.8270730E+00
   1.4930936E-04   5.4265857E+05   -1.8265514E+00
   1.4999889E-04   5.3811148E+05   -1.8260291E+00
   1.5069160E-04   5.3360377E+05   -1.8255060E+00
   1.5138751E-04   5.2913511E+05   -1.8249822E+00
   1.5208663E-04   5.2470513E+05   -1.8244577E+00
   1.5278899E-04   5.2031350E+05   -1.8239325E+00
   1.5349458E-04   5.1595988E+05   -1.8234065E+00
   1.5420343E-04   5.1164393E+05   -1.8228799E+00
   1.5491556E-04   5.0736531E+05   -1.8223525E+00
   1.5563098E-04   5.0312369E+05   -1.8218244E+00
   1.5634970E-04   4.9891875E+05   -1.8212956E+00
   1.5707174E-04   4.9475016E+05   -1.8207662E+00
   1.5779711E-04   4.9061759E+05   -1.8202360E+00
   1.5852584E-04   4.8652074E+05   -1.8197052E+00
   1.5925792E-04   4.8245927E+05   -1.8191736E+00
   1.5999339E-04   4.7843288E+05   -1.8186414E+00
   1.6073226E-04   4.7444126E+05   -1.8181085E+00
   1.6147454E-04   4.7048410E+05   -1.8175750E+00
   1.6222024E-04   4.6656109E+05   -1.8170408E+00
   1.6296939E-04   4.6267193E+05   -1.8165059E+00
   1.6372200E-04   4.5881632E+05   -1.8159704E+00
   1.6447809E-04   4.5499396E+05   -1.8154342E+00
   1.6523767E-04   4.5120457E+05   -1.8148973E+00
   1.6600075E-04   4.4744784E+05   -1.8143599E+00
   1.6676736E-04   4.4372349E+05   -1.8138217E+00
   1.6753751E-04   4.4003123E+05   -1.8132830E+00
   1.6831122E-04   4.3637078E+05   -1.8127436E+00
   1.6908849E-04   4.3274185E+05   -1.8122036E+00
   1.6986936E-04   4.2914417E+05   -1.8116630E+00
   1.7065384E-04   4.2557746E+05   -1.8111218E+00
   1.7144193E-04   4.2204145E+05   -1.8105799E+00
   1.7223367E-04   4.1853586E+05   -1.8100375E+00
   1.7302906E-04   4.1506043E+05   -1.8094944E+00
   1.7382813E-04   4.1161489E+05   -1.8089508E+00
   1.7463089E-04   4.0819898E+05   -1.8084065E+00
   1.7543735E-04   4.0481243E+05   -1.8078617E+00
   1.7624754E-04   4.0145498E+05   -1.8073163E+00
   1.7706147E-04   3.9812638E+05   -1.8067703E+00
   1.7787916E-04   3.9482637E+05   -1.8062238E+00
   1.7870062E-04   3.9155471E+05   -1.8056766E+00
   1.7952588E-04   3.8831113E+05   -1.8051290E+00
   1.8035495E-04   3.8509539E+05   -1.8045807E+00
   1.8118785E-04   3.8190725E+05   -1.8040319E+00
   1.8202459E-04   3.7874646E+05   -1.8034826E+00
   1.8286520E-04   3.7561278E+05   -1.8029327E+00
   1.8370969E-04   3.7250598E+05   -1.8023823E+00
   1.8455808E-04   3.6942580E+05   -1.8018313E+00
   1.8541039E-04   3.6637203E+05   -1.8012799E+00
   1.8626663E-04   3.6334443E+05   -1.8007279E+00
   1.8712683E-04   3.6034276E+05   -1.8001753E+00
   1.8799100E-04   3.5736680E+05   -1.7996223E+00
   1.8885917E-04   3.5441632E+05   -1.7990688E+00
   1.8973134E-04   3.5149110E+05   -1.7985147E+00
   1.9060754E-04   3.4859091E+05   -1.7979602E+00
   1.9148778E-04   3.4571553E+05   -1.7974052E+00
   1.9237209E-04   3.4286475E+05   -1.7968497E+00
   1.9326049E-04   3.4003835E+05   -1.7962937E+00
   1.9415299E-04   3.3723611E+05   -1.7957372E+00
   1.9504960E-04   3.3445782E+05   -1.7951803E+00
   1.9595036E-04   3.3170327E+05   -1.7946229E+00
   1.9685528E-04   3.2897226E+05   -1.7940650E+00
   1.9776438E-04   3.2626456E+05   -1.7935067E+00
   1.9867768E-04   3.2357999E+05   -1.7929480E+00
   1.9959519E-04   3.2091833E+05   -1.7923888E+00
   2.0051694E-04   3.1827939E+05   -1.7918291E+00
   2.0144295E-04   3.1566296E+05   -1.7912691E+00
   2.0237324E-04   3.1306885E+05   -1.7907086E+00
   2.0330782E-04   3.1049686E+05   -1.7901477E+00
   2.0424671E-04   3.0794679E+05   -1.7895863E+00
   2.0518995E-04   3.0541846E+05   -1.7890246E+00
   2.0613754E-04   3.0291167E+05   -1.7884625E+00
   2.0708950E-04   3.0042623E+05   -1.7878999E+00
   2.0804586E-04   2.9796196E+05   -1.7873370E+00
   2.0900664E-04   2.9551867E+05   -1.7867736E+00
   2.0997185E-04   2.9309618E+05   -1.7862099E+00
   2.1094152E-04   2.9069430E+05   -1.7856458E+00
   2.1191567E-04   2.8831285E+05   -1.7850814E+00
   2.1289432E-04   2.8595166E+05   -1.7845166E+00
   2.1387749E-04   2.8361054E+05   -1.7839514E+00
   2.1486520E-04   2.8128932E+05   -1.7833859E+00
   2.1585747E-04   2.7898783E+05   -1.7828200E+00
   2.1685432E-04   2.7670589E+05   -1.7822537E+00
   2.1785578E-04   2.7444333E+05   -1.7816872E+00
   2.1886186E-04   2.7219998E+05   -1.7811203E+00
   2.1987259E-04   2.6997567E+05   -1.7805531E+00
   2.2088798E-04   2.6777024E+05   -1.7799855E+00
   2.2190807E-04   2.6558352E+05   -1.7794177E+00
   2.2293286E-04   2.6341535E+05   -1.7788495E+00
   2.2396239E-04   2.6126556E+05   -1.7782810E+00
   2.2499667E-04   2.5913400E+05   -1.7777123E+00
   2.2603573E-04   2.5702050E+05   -1.7771432E+00
   2.2707958E-04   2.5492491E+05   -1.7765739E+00
   2.2812826E-04   2.5284706E+05   -1.7760043E+00
   2.2918178E-04   2.5078681E+05   -1.7754344E+00
   2.3024017E-04   2.4874400E+05   -1.7748642E+00
   2.3130344E-04   2.4671848E+05   -1.7742938E+00
   2.3237162E-04   2.4471010E+05   -1.7737231E+00
   2.3344474E-04   2.4271870E+05   -1.7731522E+00
   2.3452281E-04   2.4074415E+05   -1.7725810E+00
   2.3560586E-04   2.3878628E+05   -1.7720096E+00
   2.3669392E-04   2.3684496E+05   -1.7714380E+00
   2.3778699E-04   2.3492005E+05   -1.7708661E+00
   2.3888512E-04   2.3301139E+05   -1.7702940E+00
   2.3998831E-04   2.3111885E+05   -1.7697217E+00
   2.4109661E-04   2.2924228E+05   -1.7691492E+00
   2.4221001E-04   2.2738155E+05   -1.7685765E+00
   2.4332857E-04   2.2553652E+05   -1.7680036E+00
   2.4445228E-04   2.2370705E+05   -1.7674305E+00
   2.4558119E-04   2.2189301E+05   -1.7668572E+00
   2.4671531E-04   2.2009426E+05   -1.7662838E+00
   2.4785467E-04   2.1831066E+05   -1.7657101E+00
   2.4899928E-04   2.1654209E+05   -1.7651363E+00
   2.5014919E-04   2.1478842E+05   -1.7645624E+00
   2.5130440E-04   2.1304952E+05   -1.7639883E+00
   2.5246495E-04   2.1132525E+05   -1.7634140E+00
   2.5363086E-04   2.0961549E+05   -1.7628396E+00
   2.5480216E-04   2.0792011E+05   -1.7622650E+00
   2.5597886E-04   2.0623900E+05   -1.7616904E+00
   2.5716100E-04   2.0457201E+05   -1.7611156E+00
   2.5834859E-04   2.0291904E+05   -1.7605407E+00
   2.5954168E-04   2.0127996E+05   -1.7599656E+00
   2.6074027E-04   1.9965464E+05   -1.7593905E+00
   2.6194439E-04   1.9804298E+05   -1.7588153E+00
   2.6315408E-04   1.9644484E+05   -1.7582399E+00
   2.6436935E-04   1.9486012E+05   -1.7576645E+00
   2.6559024E-04   1.9328870E+05   -1.7570890E+00
   2.6681676E-04   1.9173045E+05   -1.7565134E+00
   2.6804895E-04   1.9018528E+05   -1.7559378E+00
   2.6928683E-04   1.8865305E+05   -1.7553621E+00
   2.7053042E-04   1.8713367E+05   -1.7547863E+00
   2.7177976E-04   1.8562701E+05   -1.7542105E+00
   2.7303487E-04   1.8413298E+05   -1.7536347E+00
   2.7429577E-04   1.8265145E+05   -1.7530588E+00
   2.7556250E-04   1.8118233E+05   -1.7524828E+00
   2.7683507E-04   1.7972550E+05   -1.7519069E+00
   2.7811353E-04   1.7828085E+05   -1.7513309E+00
   2.7939788E-04   1.7684829E+05   -1.7507549E+00
   2.8068817E-04   1.7542770E+05   -1.7501789E+00
   2.8198442E-04   1.7401899E+05   -1.7496029E+00
   2.8328665E-04   1.7262205E+05   -1.7490269E+00
   2.8459490E-04   1.7123678E+05   -1.7484509E+00
   2.8590919E-04   1.6986307E+05   -1.7478749E+00
   2.8722955E-04   1.6850083E+05   -1.7472990E+00
   2.8855600E-04   1.6714996E+05   -1.7467230E+00
   2.8988859E-04   1.6581036E+05   -1.7461472E+00
   2.9122732E-04   1.6448193E+05   -1.7455713E+00
   2.9257224E-04   1.6316458E+05   -1.7449955E+00
   2.9392337E-04   1.6185820E+05   -1.7444197E+00
   2.9528074E-04   1.6056272E+05   -1.7438441E+00
   2.9664438E-04   1.5927802E+05   -1.7432684E+00
   2.9801431E-04   1.5800402E+05   -1.7426929E+00
   2.9939057E-04   1.5674063E+05   -1.7421174E+00
   3.0077319E-04   1.5548775E+05   -1.7415420E+00
   3.0216219E-04   1.5424530E+05   -1.7409667E+00
   3.0355761E-04   1.5301318E+05   -1.7403915E+00
   3.0495947E-04   1.5179130E+05   -1.7398164E+00
   3.0636780E-04   1.5057958E+05   -1.7392414E+00
   3.0778264E-04   1.4937793E+05   -1.7386665E+00
   3.0920401E-04   1.4818626E+05   -1.7380917E+00
   3.1063195E-04   1.4700449E+05   -1.7375171E+00
   3.1206648E-04   1.4583253E+05   -1.7369425E+00
   3.1350764E-04   1.4467029E+05   -1.7363682E+00
   3.1495545E-04   1.4351770E+05   -1.7357939E+00
   3.1640994E-04   1.4237466E+05   -1.7352198E+00
   3.1787116E-04   1.4124110E+05   -1.7346459E+00
   3.1933912E-04   1.4011694E+05   -1.7340722E+00
   3.2081386E-04   1.3900210E+05   -1.7334986E+00
   3.2229541E-04   1.3789648E+05   -1.7329251E+00
   3.2378381E-04   1.3680003E+05   -1.7323519E+00
   3.2527908E-04   1.3571265E+05   -1.7317788E+00
   3.2678125E-04   1.3463426E+05   -1.7312060E+00
   3.2829036E-04   1.3356480E+05   -1.7306333E+00
   3.2980644E-04   1.3250419E+05   -1.7300608E+00
   3.3132952E-04   1.3145234E+05   -1.7294886E+00
   3.3285963E-04   1.3040919E+05   -1.7289165E+00
   3.3439681E-04   1.2937465E+05   -1.7283447E+00
   3.3594109E-04   1.2834866E+05   -1.7277731E+00
   3.3749250E-04   1.2733115E+05   -1.7272018E+00
   3.3905108E-04   1.2632203E+05   -1.7266307E+00
   3.4061685E-04   1.2532124E+05   -1.7260598E+00
   3.4218986E-04   1.2432870E+05   -1.7254892E+00
   3.4377013E-04   1.2334435E+05   -1.7249188E+00
   3.4535769E-04   1.2236811E+05   -1.7243487E+00
   3.4695259E-04   1.2139992E+05   -1.7237789E+00
   3.4855485E-04   1.2043971E+05   -1.7232093E+00
   3.5016452E-04   1.1948740E+05   -1.7226400E+00
   3.5178161E-04   1.1854294E+05   -1.7220711E+00
   3.5340618E-04   1.1760625E+05   -1.7215024E+00
   3.5503824E-04   1.1667726E+05   -1.7209340E+00
   3.5667785E-04   1.1575592E+05   -1.7203659E+00
   3.5832502E-04   1.1484215E+05   -1.7197981E+00
   3.5997981E-04   1.1393590E+05   -1.7192306E+00
   3.6164223E-04   1.1303709E+05   -1.7186635E+00
   3.6331233E-04   1.1214567E+05   -1.7180966E+00
   3.6499015E-04   1.1126156E+05   -1.7175301E+00
   3.6667571E-04   1.1038471E+05   -1.7169640E+00
   3.6836906E-04   1.0951506E+05   -1.7163982E+00
   3.7007022E-04   1.0865255E+05   -1.7158327E+00
   3.7177925E-04   1.0779710E+05   -1.7152676E+00
   3.7349616E-04   1.0694867E+05   -1.7147029E+00
   3.7522101E-04   1.0610720E+05   -1.7141385E+00
   3.7695382E-04   1.0527262E+05   -1.7135745E+00
   3.7869463E-04   1.0444487E+05   -1.7130109E+00
   3.8044348E-04   1.0362390E+05   -1.7124476E+00
   3.8220041E-04   1.0280966E+05   -1.7118848E+00
   3.8396545E-04   1.0200207E+05   -1.7113223E+00
   3.8573864E-04   1.0120109E+05   -1.7107602E+00
   3.8752002E-04   1.0040666E+05   -1.7101986E+00
   3.8930963E-04   9.9618724E+04   -1.7096373E+00
   3.9110750E-04   9.8837226E+04   -1.7090765E+00
   3.9291368E-04   9.8062113E+04   -1.7085161E+00
   3.9472820E-04   9.7293329E+04   -1.7079561E+00
   3.9655109E-04   9.6530822E+04   -1.7073966E+00
   3.9838241E-04   9.5774537E+04   -1.7068375E+00
   4.0022218E-04   9.5024422E+04   -1.7062788E+00
   4.0207045E-04   9.4280425E+04   -1.7057206E+00
   4.0392725E-04   9.3542494E+04   -1.7051629E+00
   4.0579263E-04   9.2810576E+04   -1.7046056E+00
   4.0766662E-04   9.2084622E+04   -1.7040487E+00
   4.0954927E-04   9.1364581E+04   -1.7034924E+00
   4.1144061E-04   9.0650402E+04   -1.7029365E+00
   4.1334068E-04   8.9942035E+04   -1.7023811E+00
   4.1524953E-04   8.9239433E+04   -1.7018262E+00
   4.1716720E-04   8.8542545E+04   -1.7012717E+00
   4.1909372E-04   8.7851324E+04   -1.7007178E+00
   4.2102914E-04   8.7165721E+04   -1.7001644E+00
   4.2297350E-04   8.6485689E+04   -1.6996115E+00
   4.2492683E-04   8.5811181E+04   -1.6990590E+00
   4.2688919E-04   8.5142150E+04   -1.6985072E+00
   4.2886061E-04   8.4478550E+04   -1.6979558E+00
   4.3084113E-04   8.3820335E+04   -1.6974050E+00
   4.3283080E-04   8.3167459E+04   -1.6968546E+00
   4.3482966E-04   8.2519878E+04   -1.6963049E+00
   4.3683775E-04   8.1877547E+04   -1.6957556E+00
   4.3885511E-04   8.1240420E+04   -1.6952070E+00
   4.4088179E-04   8.0608456E+04   -1.6946588E+00
   4.4291783E-04   7.9981609E+04   -1.6941113E+00
   4.4496327E-04   7.9359837E+04   -1.6935643E+00
   4.4701816E-04   7.8743096E+04   -1.6930178E+00
   4.4908253E-04   7.8131346E+04   -1.6924720E+00
   4.5115644E-04   7.7524543E+04   -1.6919267E+00
   4.5323993E-04   7.6922645E+04   -1.6913820E+00
   4.5533304E-04   7.6325613E+04   -1.6908379E+00
   4.5743582E-04   7.5733404E+04   -1.6902943E+00
   4.5954830E-04   7.5145978E+04   -1.6897514E+00
   4.6167054E-04   7.4563295E+04   -1.6892091E+00
   4.6380259E-04   7.3985315E+04   -1.6886674E+00
   4.6594448E-04   7.3411998E+04   -1.6881263E+00
   4.6809626E-04   7.2843305E+04   -1.6875858E+00
   4.7025797E-04   7.2279198E+04   -1.6870459E+00
   4.7242967E-04   7.1719637E+04   -1.6865066E+00
   4.7461140E-04   7.1164585E+04   -1.6859680E+00
   4.7680321E-04   7.0614004E+04   -1.6854300E+00
   4.7900514E-04   7.0067856E+04   -1.6848927E+00
   4.8121723E-04   6.9526104E+04   -1.6843560E+00
   4.8343954E-04   6.8988711E+04   -1.6838199E+00
   4.8567212E-04   6.8455641E+04   -1.6832845E+00
   4.8791500E-04   6.7926858E+04   -1.6827498E+00
   4.9016825E-04   6.7402325E+04   -1.6822157E+00
   4.9243189E-04   6.6882007E+04   -1.6816823E+00
   4.9470600E-04   6.6365869E+04   -1.6811495E+00
   4.9699060E-04   6.5853875E+04   -1.6806175E+00
   4.9928575E-04   6.5345991E+04   -1.6800861E+00
   5.0159151E-04   6.4842183E+04   -1.6795554E+00
   5.0390791E-04   6.4342416E+04   -1.6790254E+00
   5.0623501E-04   6.3846657E+04   -1.6784960E+00
   5.0857286E-04   6.3354873E+04   -1.6779674E+00
   5.1092150E-04   6.2867029E+04   -1.6774395E+00
   5.1328099E-04   6.2383094E+04   -1.6769122E+00
   5.1565137E-04   6.1903034E+04   -1.6763857E+00
   5.1803270E-04   6.1426817E+04   -1.6758599E+00
   5.2042503E-04   6.0954411E+04   -1.6753348E+00
   5.2282841E-04   6.0485785E+04   -1.6748104E+00
   5.2524289E-04   6.0020906E+04   -1.6742868E+00
   5.2766851E-04   5.9559744E+04   -1.6737639E+00
   5.3010534E-04   5.9102267E+04   -1.6732417E+00
   5.3255342E-04   5.8648446E+04   -1.6727202E+00
   5.3501281E-04   5.8198248E+04   -1.6721995E+00
   5.3748356E-04   5.7751645E+04   -1.6716796E+00
   5.3996571E-04   5.7308607E+04   -1.6711604E+00
   5.4245933E-04   5.6869103E+04   -1.6706419E+00
   5.4496446E-04   5.6433104E+04   -1.6701242E+00
   5.4748117E-04   5.6000581E+04   -1.6696073E+00
   5.5000949E-04   5.5571506E+04   -1.6690911E+00
   5.5254949E-04   5.5145850E+04   -1.6685757E+00
   5.5510123E-04   5.4723583E+04   -1.6680610E+00
   5.5766474E-04   5.4304679E+04   -1.6675472E+00
   5.6024010E-04   5.3889109E+04   -1.6670341E+00
   5.6282734E-04   5.3476845E+04   -1.6665218E+00
   5.6542654E-04   5.3067860E+04   -1.6660103E+00
   5.6803774E-04   5.2662128E+04   -1.6654996E+00
   5.7066099E-04   5.2259620E+04   -1.6649896E+00
   5.7329637E-04   5.1860310E+04   -1.6644805E+00
   5.7594391E-04   5.1464172E+04   -1.6639722E+00
   5.7860368E-04   5.1071180E+04   -1.6634647E+00
   5.8127573E-04   5.0681307E+04   -1.6629579E+00
   5.8396012E-04   5.0294528E+04   -1.6624520E+00
   5.8665691E-04   4.9910816E+04   -1.6619469E+00
   5.8936616E-04   4.9530147E+04   -1.6614427E+00
   5.9208791E-04   4.9152496E+04   -1.6609392E+00
   5.9482223E-04   4.8777837E+04   -1.6604366E+00
   5.9756919E-04   4.8406146E+04   -1.6599348E+00
   6.0032882E-04   4.8037398E+04   -1.6594338E+00
   6.0310120E-04   4.7671569E+04   -1.6589337E+00
   6.0588639E-04   4.7308636E+04   -1.6584344E+00
   6.0868443E-04   4.6948573E+04   -1.6579359E+00
   6.1149540E-04   4.6591357E+04   -1.6574383E+00
   6.1431935E-04   4.6236965E+04   -1.6569415E+00
   6.1715634E-04   4.5885374E+04   -1.6564456E+00
   6.2000644E-04   4.5536561E+04   -1.6559505E+00
   6.2286969E-04   4.5190502E+04   -1.6554563E+00
