#        a       HoverH0(a)       dlogHdloga_of_a(a)
   1.0000000E-04   1.1330197E+06   -1.8595444E+00
   1.0046181E-04   1.1233549E+06   -1.8590786E+00
   1.0092575E-04   1.1137749E+06   -1.8586118E+00
   1.0139184E-04   1.1042790E+06   -1.8581441E+00
   1.0186008E-04   1.0948664E+06   -1.8576755E+00
   1.0233048E-04   1.0855364E+06   -1.8572059E+00
   1.0280305E-04   1.0762883E+06   -1.8567354E+00
   1.0327781E-04   1.0671212E+06   -1.8562640E+00
   1.0375475E-04   1.0580345E+06   -1.8557916E+00
   1.0423390E-04   1.0490275E+06   -1.8553183E+00
   1.0471527E-04   1.0400994E+06   -1.8548441E+00
   1.0519885E-04   1.0312496E+06   -1.8543690E+00
   1.0568467E-04   1.0224773E+06   -1.8538930E+00
   1.0617274E-04   1.0137818E+06   -1.8534161E+00
   1.0666305E-04   1.0051625E+06   -1.8529382E+00
   1.0715563E-04   9.9661872E+05   -1.8524594E+00
   1.0765049E-04   9.8814972E+05   -1.8519798E+00
   1.0814763E-04   9.7975484E+05   -1.8514992E+00
   1.0864707E-04   9.7143344E+05   -1.8510178E+00
   1.0914881E-04   9.6318485E+05   -1.8505354E+00
   1.0965287E-04   9.5500843E+05   -1.8500521E+00
   1.1015926E-04   9.4690353E+05   -1.8495680E+00
   1.1066799E-04   9.3886951E+05   -1.8490829E+00
   1.1117906E-04   9.3090573E+05   -1.8485970E+00
   1.1169250E-04   9.2301157E+05   -1.8481102E+00
   1.1220831E-04   9.1518641E+05   -1.8476225E+00
   1.1272650E-04   9.0742964E+05   -1.8471339E+00
   1.1324708E-04   8.9974063E+05   -1.8466445E+00
   1.1377007E-04   8.9211879E+05   -1.8461542E+00
   1.1429547E-04   8.8456352E+05   -1.8456630E+00
   1.1482330E-04   8.7707422E+05   -1.8451709E+00
   1.1535356E-04   8.6965030E+05   -1.8446780E+00
   1.1588628E-04   8.6229118E+05   -1.8441843E+00
   1.1642145E-04   8.5499628E+05   -1.8436896E+00
   1.1695910E-04   8.4776502E+05   -1.8431941E+00
   1.1749923E-04   8.4059685E+05   -1.8426978E+00
   1.1804185E-04   8.3349120E+05   -1.8422006E+00
   1.1858698E-04   8.2644750E+05   -1.8417025E+00
   1.1913463E-04   8.1946521E+05   -1.8412037E+00
   1.1968481E-04   8.1254378E+05   -1.8407039E+00
   1.2023752E-04   8.0568267E+05   -1.8402034E+00
   1.2079279E-04   7.9888134E+05   -1.8397020E+00
   1.2135063E-04   7.9213925E+05   -1.8391998E+00
   1.2191104E-04   7.8545589E+05   -1.8386967E+00
   1.2247403E-04   7.7883071E+05   -1.8381929E+00
   1.2303963E-04   7.7226322E+05   -1.8376882E+00
   1.2360784E-04   7.6575288E+05   -1.8371827E+00
   1.2417868E-04   7.5929920E+05   -1.8366764E+00
   1.2475215E-04   7.5290167E+05   -1.8361692E+00
   1.2532826E-04   7.4655979E+05   -1.8356613E+00
   1.2590704E-04   7.4027306E+05   -1.8351526E+00
   1.2648850E-04   7.3404099E+05   -1.8346430E+00
   1.2707263E-04   7.2786309E+05   -1.8341327E+00
   1.2765947E-04   7.2173889E+05   -1.8336216E+00
   1.2824901E-04   7.1566791E+05   -1.8331097E+00
   1.2884128E-04   7.0964967E+05   -1.8325970E+00
   1.2943628E-04   7.0368370E+05   -1.8320835E+00
   1.3003403E-04   6.9776954E+05   -1.8315692E+00
   1.3063454E-04   6.9190672E+05   -1.8310542E+00
   1.3123783E-04   6.8609480E+05   -1.8305384E+00
   1.3184390E-04   6.8033331E+05   -1.8300218E+00
   1.3245277E-04   6.7462181E+05   -1.8295045E+00
   1.3306445E-04   6.6895985E+05   -1.8289864E+00
   1.3367895E-04   6.6334700E+05   -1.8284676E+00
   1.3429630E-04   6.5778282E+05   -1.8279480E+00
   1.3491649E-04   6.5226687E+05   -1.8274277E+00
   1.3553955E-04   6.4679873E+05   -1.8269066E+00
   1.3616548E-04   6.4137797E+05   -1.8263847E+00
   1.3679431E-04   6.3600418E+05   -1.8258622E+00
   1.3742604E-04   6.3067692E+05   -1.8253389E+00
   1.3806069E-04   6.2539580E+05   -1.8248149E+00
   1.3869827E-04   6.2016040E+05   -1.8242901E+00
   1.3933879E-04   6.1497031E+05   -1.8237647E+00
   1.3998227E-04   6.0982514E+05   -1.8232385E+00
   1.4062872E-04   6.0472448E+05   -1.8227116E+00
   1.4127816E-04   5.9966794E+05   -1.8221840E+00
   1.4193060E-04   5.9465512E+05   -1.8216558E+00
   1.4258605E-04   5.8968565E+05   -1.8211268E+00
   1.4324453E-04   5.8475913E+05   -1.8205971E+00
   1.4390605E-04   5.7987519E+05   -1.8200667E+00
   1.4457062E-04   5.7503345E+05   -1.8195356E+00
   1.4523826E-04   5.7023353E+05   -1.8190039E+00
   1.4590899E-04   5.6547506E+05   -1.8184715E+00
   1.4658281E-04   5.6075767E+05   -1.8179384E+00
   1.4725974E-04   5.5608101E+05   -1.8174046E+00
   1.4793981E-04   5.5144470E+05   -1.8168702E+00
   1.4862301E-04   5.4684840E+05   -1.8163351E+00
   1.4930936E-04   5.4229175E+05   -1.8157994E+00
   1.4999889E-04   5.3777439E+05   -1.8152630E+00
   1.5069160E-04   5.3329598E+05   -1.8147260E+00
   1.5138751E-04   5.2885618E+05   -1.8141883E+00
   1.5208663E-04   5.2445463E+05   -1.8136500E+00
   1.5278899E-04   5.2009101E+05   -1.8131110E+00
   1.5349458E-04   5.1576499E+05   -1.8125715E+00
   1.5420343E-04   5.1147621E+05   -1.8120313E+00
   1.5491556E-04   5.0722436E+05   -1.8114905E+00
   1.5563098E-04   5.0300911E+05   -1.8109490E+00
   1.5634970E-04   4.9883014E+05   -1.8104070E+00
   1.5707174E-04   4.9468712E+05   -1.8098644E+00
   1.5779711E-04   4.9057974E+05   -1.8093211E+00
   1.5852584E-04   4.8650768E+05   -1.8087773E+00
   1.5925792E-04   4.8247063E+05   -1.8082329E+00
   1.5999339E-04   4.7846828E+05   -1.8076879E+00
   1.6073226E-04   4.7450032E+05   -1.8071423E+00
   1.6147454E-04   4.7056645E+05   -1.8065961E+00
   1.6222024E-04   4.6666638E+05   -1.8060494E+00
   1.6296939E-04   4.6279979E+05   -1.8055021E+00
   1.6372200E-04   4.5896640E+05   -1.8049542E+00
   1.6447809E-04   4.5516591E+05   -1.8044058E+00
   1.6523767E-04   4.5139803E+05   -1.8038569E+00
   1.6600075E-04   4.4766247E+05   -1.8033074E+00
   1.6676736E-04   4.4395896E+05   -1.8027573E+00
   1.6753751E-04   4.4028719E+05   -1.8022067E+00
   1.6831122E-04   4.3664691E+05   -1.8016556E+00
   1.6908849E-04   4.3303782E+05   -1.8011040E+00
   1.6986936E-04   4.2945965E+05   -1.8005518E+00
   1.7065384E-04   4.2591214E+05   -1.7999991E+00
   1.7144193E-04   4.2239500E+05   -1.7994460E+00
   1.7223367E-04   4.1890798E+05   -1.7988923E+00
   1.7302906E-04   4.1545080E+05   -1.7983381E+00
   1.7382813E-04   4.1202321E+05   -1.7977834E+00
   1.7463089E-04   4.0862494E+05   -1.7972282E+00
   1.7543735E-04   4.0525574E+05   -1.7966726E+00
   1.7624754E-04   4.0191535E+05   -1.7961165E+00
   1.7706147E-04   3.9860351E+05   -1.7955598E+00
   1.7787916E-04   3.9531997E+05   -1.7950028E+00
   1.7870062E-04   3.9206449E+05   -1.7944452E+00
   1.7952588E-04   3.8883682E+05   -1.7938872E+00
   1.8035495E-04   3.8563671E+05   -1.7933288E+00
   1.8118785E-04   3.8246393E+05   -1.7927699E+00
   1.8202459E-04   3.7931822E+05   -1.7922106E+00
   1.8286520E-04   3.7619936E+05   -1.7916508E+00
   1.8370969E-04   3.7310710E+05   -1.7910906E+00
   1.8455808E-04   3.7004122E+05   -1.7905300E+00
   1.8541039E-04   3.6700148E+05   -1.7899689E+00
   1.8626663E-04   3.6398765E+05   -1.7894075E+00
   1.8712683E-04   3.6099951E+05   -1.7888456E+00
   1.8799100E-04   3.5803682E+05   -1.7882834E+00
   1.8885917E-04   3.5509937E+05   -1.7877207E+00
   1.8973134E-04   3.5218693E+05   -1.7871576E+00
   1.9060754E-04   3.4929928E+05   -1.7865942E+00
   1.9148778E-04   3.4643621E+05   -1.7860304E+00
   1.9237209E-04   3.4359750E+05   -1.7854662E+00
   1.9326049E-04   3.4078294E+05   -1.7849016E+00
   1.9415299E-04   3.3799231E+05   -1.7843367E+00
   1.9504960E-04   3.3522540E+05   -1.7837714E+00
   1.9595036E-04   3.3248202E+05   -1.7832058E+00
   1.9685528E-04   3.2976194E+05   -1.7826398E+00
   1.9776438E-04   3.2706497E+05   -1.7820735E+00
   1.9867768E-04   3.2439091E+05   -1.7815068E+00
   1.9959519E-04   3.2173955E+05   -1.7809398E+00
   2.0051694E-04   3.1911069E+05   -1.7803725E+00
   2.0144295E-04   3.1650414E+05   -1.7798049E+00
   2.0237324E-04   3.1391970E+05   -1.7792369E+00
   2.0330782E-04   3.1135718E+05   -1.7786687E+00
   2.0424671E-04   3.0881639E+05   -1.7781001E+00
   2.0518995E-04   3.0629713E+05   -1.7775313E+00
   2.0613754E-04   3.0379922E+05   -1.7769621E+00
   2.0708950E-04   3.0132247E+05   -1.7763927E+00
   2.0804586E-04   2.9886670E+05   -1.7758230E+00
   2.0900664E-04   2.9643172E+05   -1.7752531E+00
   2.0997185E-04   2.9401735E+05   -1.7746828E+00
   2.1094152E-04   2.9162342E+05   -1.7741123E+00
   2.1191567E-04   2.8924973E+05   -1.7735416E+00
   2.1289432E-04   2.8689612E+05   -1.7729706E+00
   2.1387749E-04   2.8456241E+05   -1.7723994E+00
   2.1486520E-04   2.8224843E+05   -1.7718279E+00
   2.1585747E-04   2.7995400E+05   -1.7712562E+00
   2.1685432E-04   2.7767896E+05   -1.7706842E+00
   2.1785578E-04   2.7542312E+05   -1.7701121E+00
   2.1886186E-04   2.7318634E+05   -1.7695397E+00
   2.1987259E-04   2.7096843E+05   -1.7689672E+00
   2.2088798E-04   2.6876924E+05   -1.7683944E+00
   2.2190807E-04   2.6658861E+05   -1.7678215E+00
   2.2293286E-04   2.6442636E+05   -1.7672483E+00
   2.2396239E-04   2.6228234E+05   -1.7666750E+00
   2.2499667E-04   2.6015640E+05   -1.7661015E+00
   2.2603573E-04   2.5804837E+05   -1.7655278E+00
   2.2707958E-04   2.5595809E+05   -1.7649539E+00
   2.2812826E-04   2.5388542E+05   -1.7643799E+00
   2.2918178E-04   2.5183020E+05   -1.7638058E+00
   2.3024017E-04   2.4979228E+05   -1.7632315E+00
   2.3130344E-04   2.4777151E+05   -1.7626571E+00
   2.3237162E-04   2.4576773E+05   -1.7620825E+00
   2.3344474E-04   2.4378081E+05   -1.7615078E+00
   2.3452281E-04   2.4181058E+05   -1.7609330E+00
   2.3560586E-04   2.3985692E+05   -1.7603580E+00
   2.3669392E-04   2.3791967E+05   -1.7597830E+00
   2.3778699E-04   2.3599869E+05   -1.7592078E+00
   2.3888512E-04   2.3409385E+05   -1.7586325E+00
   2.3998831E-04   2.3220499E+05   -1.7580572E+00
   2.4109661E-04   2.3033199E+05   -1.7574818E+00
   2.4221001E-04   2.2847470E+05   -1.7569063E+00
   2.4332857E-04   2.2663298E+05   -1.7563307E+00
   2.4445228E-04   2.2480671E+05   -1.7557550E+00
   2.4558119E-04   2.2299575E+05   -1.7551793E+00
   2.4671531E-04   2.2119996E+05   -1.7546035E+00
   2.4785467E-04   2.1941921E+05   -1.7540277E+00
   2.4899928E-04   2.1765338E+05   -1.7534519E+00
   2.5014919E-04   2.1590233E+05   -1.7528760E+00
   2.5130440E-04   2.1416594E+05   -1.7523000E+00
   2.5246495E-04   2.1244408E+05   -1.7517241E+00
   2.5363086E-04   2.1073662E+05   -1.7511481E+00
   2.5480216E-04   2.0904344E+05   -1.7505721E+00
   2.5597886E-04   2.0736441E+05   -1.7499961E+00
   2.5716100E-04   2.0569941E+05   -1.7494201E+00
   2.5834859E-04   2.0404833E+05   -1.7488442E+00
   2.5954168E-04   2.0241103E+05   -1.7482682E+00
   2.6074027E-04   2.0078740E+05   -1.7476922E+00
   2.6194439E-04   1.9917733E+05   -1.7471163E+00
   2.6315408E-04   1.9758069E+05   -1.7465404E+00
   2.6436935E-04   1.9599737E+05   -1.7459645E+00
   2.6559024E-04   1.9442726E+05   -1.7453887E+00
   2.6681676E-04   1.9287023E+05   -1.7448129E+00
   2.6804895E-04   1.9132618E+05   -1.7442372E+00
   2.6928683E-04   1.8979500E+05   -1.7436615E+00
   2.7053042E-04   1.8827657E+05   -1.7430859E+00
   2.7177976E-04   1.8677078E+05   -1.7425104E+00
   2.7303487E-04   1.8527753E+05   -1.7419350E+00
   2.7429577E-04   1.8379670E+05   -1.7413596E+00
   2.7556250E-04   1.8232819E+05   -1.7407844E+00
   2.7683507E-04   1.8087189E+05   -1.7402092E+00
   2.7811353E-04   1.7942771E+05   -1.7396341E+00
   2.7939788E-04   1.7799552E+05   -1.7390592E+00
   2.8068817E-04   1.7657523E+05   -1.7384843E+00
   2.8198442E-04   1.7516674E+05   -1.7379096E+00
   2.8328665E-04   1.7376995E+05   -1.7373350E+00
   2.8459490E-04   1.7238475E+05   -1.7367606E+00
   2.8590919E-04   1.7101104E+05   -1.7361863E+00
   2.8722955E-04   1.6964873E+05   -1.7356121E+00
   2.8855600E-04   1.6829772E+05   -1.7350381E+00
   2.8988859E-04   1.6695791E+05   -1.7344642E+00
   2.9122732E-04   1.6562920E+05   -1.7338905E+00
   2.9257224E-04   1.6431150E+05   -1.7333170E+00
   2.9392337E-04   1.6300472E+05   -1.7327436E+00
   2.9528074E-04   1.6170875E+05   -1.7321705E+00
   2.9664438E-04   1.6042351E+05   -1.7315975E+00
   2.9801431E-04   1.5914891E+05   -1.7310247E+00
   2.9939057E-04   1.5788485E+05   -1.7304521E+00
   3.0077319E-04   1.5663124E+05   -1.7298797E+00
   3.0216219E-04   1.5538800E+05   -1.7293075E+00
   3.0355761E-04   1.5415503E+05   -1.7287356E+00
   3.0495947E-04   1.5293225E+05   -1.7281639E+00
   3.0636780E-04   1.5171957E+05   -1.7275924E+00
   3.0778264E-04   1.5051690E+05   -1.7270211E+00
   3.0920401E-04   1.4932415E+05   -1.7264501E+00
   3.1063195E-04   1.4814125E+05   -1.7258793E+00
   3.1206648E-04   1.4696810E+05   -1.7253088E+00
   3.1350764E-04   1.4580463E+05   -1.7247385E+00
   3.1495545E-04   1.4465074E+05   -1.7241685E+00
   3.1640994E-04   1.4350637E+05   -1.7235988E+00
   3.1787116E-04   1.4237142E+05   -1.7230293E+00
   3.1933912E-04   1.4124582E+05   -1.7224602E+00
   3.2081386E-04   1.4012949E+05   -1.7218913E+00
   3.2229541E-04   1.3902234E+05   -1.7213227E+00
   3.2378381E-04   1.3792431E+05   -1.7207544E+00
   3.2527908E-04   1.3683530E+05   -1.7201864E+00
   3.2678125E-04   1.3575525E+05   -1.7196187E+00
   3.2829036E-04   1.3468407E+05   -1.7190514E+00
   3.2980644E-04   1.3362169E+05   -1.7184844E+00
   3.3132952E-04   1.3256805E+05   -1.7179177E+00
   3.3285963E-04   1.3152305E+05   -1.7173513E+00
   3.3439681E-04   1.3048663E+05   -1.7167853E+00
   3.3594109E-04   1.2945871E+05   -1.7162196E+00
   3.3749250E-04   1.2843923E+05   -1.7156543E+00
   3.3905108E-04   1.2742811E+05   -1.7150893E+00
   3.4061685E-04   1.2642528E+05   -1.7145247E+00
   3.4218986E-04   1.2543066E+05   -1.7139604E+00
   3.4377013E-04   1.2444419E+05   -1.7133966E+00
   3.4535769E-04   1.2346581E+05   -1.7128331E+00
   3.4695259E-04   1.2249543E+05   -1.7122700E+00
   3.4855485E-04   1.2153299E+05   -1.7117073E+00
   3.5016452E-04   1.2057843E+05   -1.7111449E+00
   3.5178161E-04   1.1963168E+05   -1.7105830E+00
   3.5340618E-04   1.1869266E+05   -1.7100215E+00
   3.5503824E-04   1.1776132E+05   -1.7094604E+00
   3.5667785E-04   1.1683759E+05   -1.7088998E+00
   3.5832502E-04   1.1592141E+05   -1.7083395E+00
   3.5997981E-04   1.1501271E+05   -1.7077797E+00
   3.6164223E-04   1.1411142E+05   -1.7072203E+00
   3.6331233E-04   1.1321749E+05   -1.7066614E+00
   3.6499015E-04   1.1233085E+05   -1.7061029E+00
   3.6667571E-04   1.1145145E+05   -1.7055448E+00
   3.6836906E-04   1.1057921E+05   -1.7049872E+00
   3.7007022E-04   1.0971408E+05   -1.7044301E+00
   3.7177925E-04   1.0885599E+05   -1.7038734E+00
   3.7349616E-04   1.0800490E+05   -1.7033172E+00
   3.7522101E-04   1.0716073E+05   -1.7027615E+00
   3.7695382E-04   1.0632343E+05   -1.7022063E+00
   3.7869463E-04   1.0549295E+05   -1.7016515E+00
   3.8044348E-04   1.0466922E+05   -1.7010973E+00
   3.8220041E-04   1.0385218E+05   -1.7005435E+00
   3.8396545E-04   1.0304179E+05   -1.6999903E+00
   3.8573864E-04   1.0223798E+05   -1.6994376E+00
   3.8752002E-04   1.0144070E+05   -1.6988853E+00
   3.8930963E-04   1.0064990E+05   -1.6983336E+00
   3.9110750E-04   9.9865509E+04   -1.6977824E+00
   3.9291368E-04   9.9087485E+04   -1.6972318E+00
   3.9472820E-04   9.8315772E+04   -1.6966817E+00
   3.9655109E-04   9.7550317E+04   -1.6961321E+00
   3.9838241E-04   9.6791066E+04   -1.6955831E+00
   4.0022218E-04   9.6037967E+04   -1.6950346E+00
   4.0207045E-04   9.5290968E+04   -1.6944867E+00
   4.0392725E-04   9.4550019E+04   -1.6939393E+00
   4.0579263E-04   9.3815067E+04   -1.6933925E+00
   4.0766662E-04   9.3086063E+04   -1.6928463E+00
   4.0954927E-04   9.2362956E+04   -1.6923006E+00
   4.1144061E-04   9.1645696E+04   -1.6917555E+00
   4.1334068E-04   9.0934235E+04   -1.6912110E+00
   4.1524953E-04   9.0228522E+04   -1.6906671E+00
   4.1716720E-04   8.9528511E+04   -1.6901238E+00
   4.1909372E-04   8.8834153E+04   -1.6895811E+00
   4.2102914E-04   8.8145401E+04   -1.6890390E+00
   4.2297350E-04   8.7462207E+04   -1.6884975E+00
   4.2492683E-04   8.6784524E+04   -1.6879566E+00
   4.2688919E-04   8.6112307E+04   -1.6874163E+00
   4.2886061E-04   8.5445510E+04   -1.6868766E+00
   4.3084113E-04   8.4784086E+04   -1.6863376E+00
   4.3283080E-04   8.4127992E+04   -1.6857992E+00
   4.3482966E-04   8.3477181E+04   -1.6852615E+00
   4.3683775E-04   8.2831610E+04   -1.6847243E+00
   4.3885511E-04   8.2191235E+04   -1.6841879E+00
   4.4088179E-04   8.1556012E+04   -1.6836521E+00
   4.4291783E-04   8.0925898E+04   -1.6831169E+00
   4.4496327E-04   8.0300851E+04   -1.6825824E+00
   4.4701816E-04   7.9680827E+04   -1.6820485E+00
   4.4908253E-04   7.9065785E+04   -1.6815153E+00
   4.5115644E-04   7.8455682E+04   -1.6809828E+00
   4.5323993E-04   7.7850479E+04   -1.6804510E+00
   4.5533304E-04   7.7250133E+04   -1.6799198E+00
   4.5743582E-04   7.6654605E+04   -1.6793894E+00
   4.5954830E-04   7.6063853E+04   -1.6788596E+00
   4.6167054E-04   7.5477838E+04   -1.6783305E+00
   4.6380259E-04   7.4896520E+04   -1.6778021E+00
   4.6594448E-04   7.4319860E+04   -1.6772744E+00
   4.6809626E-04   7.3747820E+04   -1.6767475E+00
   4.7025797E-04   7.3180360E+04   -1.6762212E+00
   4.7242967E-04   7.2617442E+04   -1.6756956E+00
   4.7461140E-04   7.2059029E+04   -1.6751708E+00
   4.7680321E-04   7.1505082E+04   -1.6746467E+00
   4.7900514E-04   7.0955565E+04   -1.6741233E+00
   4.8121723E-04   7.0410441E+04   -1.6736006E+00
   4.8343954E-04   6.9869673E+04   -1.6730787E+00
   4.8567212E-04   6.9333225E+04   -1.6725575E+00
   4.8791500E-04   6.8801061E+04   -1.6720371E+00
   4.9016825E-04   6.8273145E+04   -1.6715174E+00
   4.9243189E-04   6.7749442E+04   -1.6709984E+00
   4.9470600E-04   6.7229916E+04   -1.6704803E+00
   4.9699060E-04   6.6714534E+04   -1.6699628E+00
   4.9928575E-04   6.6203260E+04   -1.6694461E+00
   5.0159151E-04   6.5696061E+04   -1.6689302E+00
   5.0390791E-04   6.5192902E+04   -1.6684151E+00
   5.0623501E-04   6.4693751E+04   -1.6679007E+00
   5.0857286E-04   6.4198573E+04   -1.6673872E+00
   5.1092150E-04   6.3707336E+04   -1.6668743E+00
   5.1328099E-04   6.3220007E+04   -1.6663623E+00
   5.1565137E-04   6.2736554E+04   -1.6658511E+00
   5.1803270E-04   6.2256945E+04   -1.6653406E+00
   5.2042503E-04   6.1781147E+04   -1.6648310E+00
   5.2282841E-04   6.1309129E+04   -1.6643221E+00
   5.2524289E-04   6.0840861E+04   -1.6638141E+00
   5.2766851E-04   6.0376310E+04   -1.6633069E+00
   5.3010534E-04   5.9915445E+04   -1.6628004E+00
   5.3255342E-04   5.9458238E+04   -1.6622948E+00
   5.3501281E-04   5.9004656E+04   -1.6617900E+00
   5.3748356E-04   5.8554671E+04   -1.6612860E+00
   5.3996571E-04   5.8108253E+04   -1.6607828E+00
   5.4245933E-04   5.7665371E+04   -1.6602805E+00
   5.4496446E-04   5.7225998E+04   -1.6597790E+00
   5.4748117E-04   5.6790103E+04   -1.6592783E+00
   5.5000949E-04   5.6357658E+04   -1.6587785E+00
   5.5254949E-04   5.5928635E+04   -1.6582795E+00
   5.5510123E-04   5.5503006E+04   -1.6577813E+00
   5.5766474E-04   5.5080742E+04   -1.6572840E+00
   5.6024010E-04   5.4661815E+04   -1.6567875E+00
   5.6282734E-04   5.4246199E+04   -1.6562919E+00
   5.6542654E-04   5.3833866E+04   -1.6557971E+00
   5.6803774E-04   5.3424788E+04   -1.6553032E+00
   5.7066099E-04   5.3018940E+04   -1.6548102E+00
   5.7329637E-04   5.2616294E+04   -1.6543180E+00
   5.7594391E-04   5.2216825E+04   -1.6538267E+00
   5.7860368E-04   5.1820505E+04   -1.6533362E+00
   5.8127573E-04   5.1427310E+04   -1.6528466E+00
   5.8396012E-04   5.1037213E+04   -1.6523579E+00
   5.8665691E-04   5.0650189E+04   -1.6518701E+00
   5.8936616E-04   5.0266212E+04   -1.6513832E+00
   5.9208791E-04   4.9885259E+04   -1.6508971E+00
   5.9482223E-04   4.9507303E+04   -1.6504119E+00
   5.9756919E-04   4.9132321E+04   -1.6499277E+00
   6.0032882E-04   4.8760287E+04   -1.6494443E+00
   6.0310120E-04   4.8391179E+04   -1.6489618E+00
   6.0588639E-04   4.8024971E+04   -1.6484801E+00
   6.0868443E-04   4.7661640E+04   -1.6479994E+00
   6.1149540E-04   4.7301162E+04   -1.6475196E+00
   6.1431935E-04   4.6943515E+04   -1.6470407E+00
   6.1715634E-04   4.6588674E+04   -1.6465627E+00
   6.2000644E-04   4.6236618E+04   -1.6460857E+00
   6.2286969E-04   4.5887322E+04   -1.6456095E+00
