#        a       HoverH0(a)       dlogHdloga_of_a(a)
   1.0000000E-04   1.0904086E+06   -1.8672714E+00
   1.0046181E-04   1.0810688E+06   -1.8668217E+00
   1.0092575E-04   1.0718111E+06   -1.8663710E+00
   1.0139184E-04   1.0626350E+06   -1.8659193E+00
   1.0186008E-04   1.0535396E+06   -1.8654667E+00
   1.0233048E-04   1.0445242E+06   -1.8650132E+00
   1.0280305E-04   1.0355881E+06   -1.8645586E+00
   1.0327781E-04   1.0267307E+06   -1.8641031E+00
   1.0375475E-04   1.0179511E+06   -1.8636467E+00
   1.0423390E-04   1.0092488E+06   -1.8631893E+00
   1.0471527E-04   1.0006229E+06   -1.8627309E+00
   1.0519885E-04   9.9207288E+05   -1.8622716E+00
   1.0568467E-04   9.8359798E+05   -1.8618113E+00
   1.0617274E-04   9.7519756E+05   -1.8613501E+00
   1.0666305E-04   9.6687093E+05   -1.8608879E+00
   1.0715563E-04   9.5861745E+05   -1.8604248E+00
   1.0765049E-04   9.5043645E+05   -1.8599608E+00
   1.0814763E-04   9.4232729E+05   -1.8594958E+00
   1.0864707E-04   9.3428932E+05   -1.8590298E+00
   1.0914881E-04   9.2632190E+05   -1.8585630E+00
   1.0965287E-04   9.1842440E+05   -1.8580951E+00
   1.1015926E-04   9.1059620E+05   -1.8576264E+00
   1.1066799E-04   9.0283667E+05   -1.8571567E+00
   1.1117906E-04   8.9514520E+05   -1.8566861E+00
   1.1169250E-04   8.8752119E+05   -1.8562146E+00
   1.1220831E-04   8.7996402E+05   -1.8557421E+00
   1.1272650E-04   8.7247310E+05   -1.8552688E+00
   1.1324708E-04   8.6504784E+05   -1.8547945E+00
   1.1377007E-04   8.5768766E+05   -1.8543193E+00
   1.1429547E-04   8.5039196E+05   -1.8538431E+00
   1.1482330E-04   8.4316016E+05   -1.8533661E+00
   1.1535356E-04   8.3599171E+05   -1.8528881E+00
   1.1588628E-04   8.2888603E+05   -1.8524093E+00
   1.1642145E-04   8.2184256E+05   -1.8519295E+00
   1.1695910E-04   8.1486075E+05   -1.8514489E+00
   1.1749923E-04   8.0794004E+05   -1.8509673E+00
   1.1804185E-04   8.0107988E+05   -1.8504848E+00
   1.1858698E-04   7.9427974E+05   -1.8500015E+00
   1.1913463E-04   7.8753909E+05   -1.8495173E+00
   1.1968481E-04   7.8085738E+05   -1.8490321E+00
   1.2023752E-04   7.7423409E+05   -1.8485461E+00
   1.2079279E-04   7.6766870E+05   -1.8480592E+00
   1.2135063E-04   7.6116070E+05   -1.8475714E+00
   1.2191104E-04   7.5470956E+05   -1.8470827E+00
   1.2247403E-04   7.4831479E+05   -1.8465932E+00
   1.2303963E-04   7.4197588E+05   -1.8461028E+00
   1.2360784E-04   7.3569233E+05   -1.8456115E+00
   1.2417868E-04   7.2946364E+05   -1.8451194E+00
   1.2475215E-04   7.2328933E+05   -1.8446264E+00
   1.2532826E-04   7.1716891E+05   -1.8441325E+00
   1.2590704E-04   7.1110190E+05   -1.8436378E+00
   1.2648850E-04   7.0508782E+05   -1.8431422E+00
   1.2707263E-04   6.9912620E+05   -1.8426457E+00
   1.2765947E-04   6.9321658E+05   -1.8421485E+00
   1.2824901E-04   6.8735849E+05   -1.8416503E+00
   1.2884128E-04   6.8155147E+05   -1.8411514E+00
   1.2943628E-04   6.7579506E+05   -1.8406515E+00
   1.3003403E-04   6.7008882E+05   -1.8401509E+00
   1.3063454E-04   6.6443229E+05   -1.8396494E+00
   1.3123783E-04   6.5882503E+05   -1.8391471E+00
   1.3184390E-04   6.5326661E+05   -1.8386440E+00
   1.3245277E-04   6.4775659E+05   -1.8381400E+00
   1.3306445E-04   6.4229453E+05   -1.8376352E+00
   1.3367895E-04   6.3688001E+05   -1.8371296E+00
   1.3429630E-04   6.3151261E+05   -1.8366232E+00
   1.3491649E-04   6.2619191E+05   -1.8361160E+00
   1.3553955E-04   6.2091748E+05   -1.8356080E+00
   1.3616548E-04   6.1568893E+05   -1.8350992E+00
   1.3679431E-04   6.1050584E+05   -1.8345896E+00
   1.3742604E-04   6.0536780E+05   -1.8340791E+00
   1.3806069E-04   6.0027442E+05   -1.8335679E+00
   1.3869827E-04   5.9522530E+05   -1.8330559E+00
   1.3933879E-04   5.9022003E+05   -1.8325432E+00
   1.3998227E-04   5.8525825E+05   -1.8320296E+00
   1.4062872E-04   5.8033954E+05   -1.8315152E+00
   1.4127816E-04   5.7546354E+05   -1.8310001E+00
   1.4193060E-04   5.7062987E+05   -1.8304843E+00
   1.4258605E-04   5.6583814E+05   -1.8299676E+00
   1.4324453E-04   5.6108798E+05   -1.8294502E+00
   1.4390605E-04   5.5637903E+05   -1.8289320E+00
   1.4457062E-04   5.5171092E+05   -1.8284131E+00
   1.4523826E-04   5.4708328E+05   -1.8278934E+00
   1.4590899E-04   5.4249576E+05   -1.8273730E+00
   1.4658281E-04   5.3794800E+05   -1.8268518E+00
   1.4725974E-04   5.3343964E+05   -1.8263299E+00
   1.4793981E-04   5.2897034E+05   -1.8258073E+00
   1.4862301E-04   5.2453975E+05   -1.8252839E+00
   1.4930936E-04   5.2014752E+05   -1.8247598E+00
   1.4999889E-04   5.1579332E+05   -1.8242350E+00
   1.5069160E-04   5.1147681E+05   -1.8237095E+00
   1.5138751E-04   5.0719764E+05   -1.8231832E+00
   1.5208663E-04   5.0295550E+05   -1.8226563E+00
   1.5278899E-04   4.9875005E+05   -1.8221286E+00
   1.5349458E-04   4.9458097E+05   -1.8216002E+00
   1.5420343E-04   4.9044794E+05   -1.8210712E+00
   1.5491556E-04   4.8635062E+05   -1.8205414E+00
   1.5563098E-04   4.8228872E+05   -1.8200109E+00
   1.5634970E-04   4.7826191E+05   -1.8194798E+00
   1.5707174E-04   4.7426988E+05   -1.8189480E+00
   1.5779711E-04   4.7031233E+05   -1.8184155E+00
   1.5852584E-04   4.6638894E+05   -1.8178823E+00
   1.5925792E-04   4.6249942E+05   -1.8173485E+00
   1.5999339E-04   4.5864347E+05   -1.8168140E+00
   1.6073226E-04   4.5482079E+05   -1.8162788E+00
   1.6147454E-04   4.5103107E+05   -1.8157430E+00
   1.6222024E-04   4.4727405E+05   -1.8152066E+00
   1.6296939E-04   4.4354941E+05   -1.8146695E+00
   1.6372200E-04   4.3985688E+05   -1.8141317E+00
   1.6447809E-04   4.3619617E+05   -1.8135933E+00
   1.6523767E-04   4.3256700E+05   -1.8130543E+00
   1.6600075E-04   4.2896910E+05   -1.8125147E+00
   1.6676736E-04   4.2540217E+05   -1.8119744E+00
   1.6753751E-04   4.2186596E+05   -1.8114335E+00
   1.6831122E-04   4.1836018E+05   -1.8108921E+00
   1.6908849E-04   4.1488458E+05   -1.8103499E+00
   1.6986936E-04   4.1143887E+05   -1.8098072E+00
   1.7065384E-04   4.0802281E+05   -1.8092639E+00
   1.7144193E-04   4.0463612E+05   -1.8087200E+00
   1.7223367E-04   4.0127855E+05   -1.8081756E+00
   1.7302906E-04   3.9794983E+05   -1.8076305E+00
   1.7382813E-04   3.9464972E+05   -1.8070848E+00
   1.7463089E-04   3.9137797E+05   -1.8065386E+00
   1.7543735E-04   3.8813431E+05   -1.8059918E+00
   1.7624754E-04   3.8491851E+05   -1.8054445E+00
   1.7706147E-04   3.8173031E+05   -1.8048965E+00
   1.7787916E-04   3.7856948E+05   -1.8043481E+00
   1.7870062E-04   3.7543577E+05   -1.8037990E+00
   1.7952588E-04   3.7232894E+05   -1.8032495E+00
   1.8035495E-04   3.6924875E+05   -1.8026994E+00
   1.8118785E-04   3.6619498E+05   -1.8021487E+00
   1.8202459E-04   3.6316738E+05   -1.8015975E+00
   1.8286520E-04   3.6016573E+05   -1.8010458E+00
   1.8370969E-04   3.5718980E+05   -1.8004936E+00
   1.8455808E-04   3.5423936E+05   -1.7999409E+00
   1.8541039E-04   3.5131419E+05   -1.7993876E+00
   1.8626663E-04   3.4841405E+05   -1.7988339E+00
   1.8712683E-04   3.4553875E+05   -1.7982797E+00
   1.8799100E-04   3.4268804E+05   -1.7977249E+00
   1.8885917E-04   3.3986172E+05   -1.7971697E+00
   1.8973134E-04   3.3705958E+05   -1.7966140E+00
   1.9060754E-04   3.3428139E+05   -1.7960578E+00
   1.9148778E-04   3.3152696E+05   -1.7955011E+00
   1.9237209E-04   3.2879606E+05   -1.7949440E+00
   1.9326049E-04   3.2608850E+05   -1.7943864E+00
   1.9415299E-04   3.2340406E+05   -1.7938284E+00
   1.9504960E-04   3.2074255E+05   -1.7932699E+00
   1.9595036E-04   3.1810376E+05   -1.7927109E+00
   1.9685528E-04   3.1548749E+05   -1.7921515E+00
   1.9776438E-04   3.1289355E+05   -1.7915917E+00
   1.9867768E-04   3.1032174E+05   -1.7910315E+00
   1.9959519E-04   3.0777186E+05   -1.7904708E+00
   2.0051694E-04   3.0524372E+05   -1.7899097E+00
   2.0144295E-04   3.0273713E+05   -1.7893482E+00
   2.0237324E-04   3.0025190E+05   -1.7887863E+00
   2.0330782E-04   2.9778784E+05   -1.7882240E+00
   2.0424671E-04   2.9534477E+05   -1.7876613E+00
   2.0518995E-04   2.9292250E+05   -1.7870982E+00
   2.0613754E-04   2.9052086E+05   -1.7865347E+00
   2.0708950E-04   2.8813965E+05   -1.7859708E+00
   2.0804586E-04   2.8577870E+05   -1.7854066E+00
   2.0900664E-04   2.8343784E+05   -1.7848420E+00
   2.0997185E-04   2.8111688E+05   -1.7842770E+00
   2.1094152E-04   2.7881565E+05   -1.7837117E+00
   2.1191567E-04   2.7653398E+05   -1.7831460E+00
   2.1289432E-04   2.7427170E+05   -1.7825799E+00
   2.1387749E-04   2.7202863E+05   -1.7820136E+00
   2.1486520E-04   2.6980462E+05   -1.7814469E+00
   2.1585747E-04   2.6759948E+05   -1.7808798E+00
   2.1685432E-04   2.6541306E+05   -1.7803125E+00
   2.1785578E-04   2.6324520E+05   -1.7797448E+00
   2.1886186E-04   2.6109572E+05   -1.7791768E+00
   2.1987259E-04   2.5896447E+05   -1.7786085E+00
   2.2088798E-04   2.5685130E+05   -1.7780400E+00
   2.2190807E-04   2.5475603E+05   -1.7774711E+00
   2.2293286E-04   2.5267852E+05   -1.7769019E+00
   2.2396239E-04   2.5061861E+05   -1.7763324E+00
   2.2499667E-04   2.4857614E+05   -1.7757627E+00
   2.2603573E-04   2.4655096E+05   -1.7751927E+00
   2.2707958E-04   2.4454293E+05   -1.7746224E+00
   2.2812826E-04   2.4255189E+05   -1.7740519E+00
   2.2918178E-04   2.4057769E+05   -1.7734811E+00
   2.3024017E-04   2.3862019E+05   -1.7729101E+00
   2.3130344E-04   2.3667924E+05   -1.7723388E+00
   2.3237162E-04   2.3475470E+05   -1.7717673E+00
   2.3344474E-04   2.3284641E+05   -1.7711956E+00
   2.3452281E-04   2.3095425E+05   -1.7706236E+00
   2.3560586E-04   2.2907807E+05   -1.7700515E+00
   2.3669392E-04   2.2721773E+05   -1.7694791E+00
   2.3778699E-04   2.2537309E+05   -1.7689065E+00
   2.3888512E-04   2.2354402E+05   -1.7683337E+00
   2.3998831E-04   2.2173037E+05   -1.7677607E+00
   2.4109661E-04   2.1993202E+05   -1.7671875E+00
   2.4221001E-04   2.1814884E+05   -1.7666142E+00
   2.4332857E-04   2.1638068E+05   -1.7660406E+00
   2.4445228E-04   2.1462742E+05   -1.7654669E+00
   2.4558119E-04   2.1288893E+05   -1.7648931E+00
   2.4671531E-04   2.1116508E+05   -1.7643190E+00
   2.4785467E-04   2.0945574E+05   -1.7637449E+00
   2.4899928E-04   2.0776079E+05   -1.7631705E+00
   2.5014919E-04   2.0608010E+05   -1.7625961E+00
   2.5130440E-04   2.0441355E+05   -1.7620215E+00
   2.5246495E-04   2.0276101E+05   -1.7614467E+00
   2.5363086E-04   2.0112237E+05   -1.7608719E+00
   2.5480216E-04   1.9949749E+05   -1.7602969E+00
   2.5597886E-04   1.9788627E+05   -1.7597219E+00
   2.5716100E-04   1.9628858E+05   -1.7591467E+00
   2.5834859E-04   1.9470431E+05   -1.7585714E+00
   2.5954168E-04   1.9313333E+05   -1.7579961E+00
   2.6074027E-04   1.9157554E+05   -1.7574206E+00
   2.6194439E-04   1.9003081E+05   -1.7568451E+00
   2.6315408E-04   1.8849905E+05   -1.7562695E+00
   2.6436935E-04   1.8698012E+05   -1.7556938E+00
   2.6559024E-04   1.8547393E+05   -1.7551181E+00
   2.6681676E-04   1.8398036E+05   -1.7545423E+00
   2.6804895E-04   1.8249929E+05   -1.7539665E+00
   2.6928683E-04   1.8103064E+05   -1.7533906E+00
   2.7053042E-04   1.7957427E+05   -1.7528147E+00
   2.7177976E-04   1.7813010E+05   -1.7522387E+00
   2.7303487E-04   1.7669801E+05   -1.7516628E+00
   2.7429577E-04   1.7527790E+05   -1.7510868E+00
   2.7556250E-04   1.7386966E+05   -1.7505108E+00
   2.7683507E-04   1.7247320E+05   -1.7499348E+00
   2.7811353E-04   1.7108840E+05   -1.7493588E+00
   2.7939788E-04   1.6971517E+05   -1.7487828E+00
   2.8068817E-04   1.6835342E+05   -1.7482068E+00
   2.8198442E-04   1.6700303E+05   -1.7476308E+00
   2.8328665E-04   1.6566391E+05   -1.7470549E+00
   2.8459490E-04   1.6433597E+05   -1.7464790E+00
   2.8590919E-04   1.6301911E+05   -1.7459031E+00
   2.8722955E-04   1.6171322E+05   -1.7453273E+00
   2.8855600E-04   1.6041822E+05   -1.7447515E+00
   2.8988859E-04   1.5913402E+05   -1.7441758E+00
   2.9122732E-04   1.5786051E+05   -1.7436001E+00
   2.9257224E-04   1.5659761E+05   -1.7430245E+00
   2.9392337E-04   1.5534523E+05   -1.7424490E+00
   2.9528074E-04   1.5410327E+05   -1.7418736E+00
   2.9664438E-04   1.5287165E+05   -1.7412982E+00
   2.9801431E-04   1.5165027E+05   -1.7407229E+00
   2.9939057E-04   1.5043905E+05   -1.7401478E+00
   3.0077319E-04   1.4923789E+05   -1.7395727E+00
   3.0216219E-04   1.4804672E+05   -1.7389978E+00
   3.0355761E-04   1.4686545E+05   -1.7384229E+00
   3.0495947E-04   1.4569399E+05   -1.7378482E+00
   3.0636780E-04   1.4453225E+05   -1.7372736E+00
   3.0778264E-04   1.4338016E+05   -1.7366992E+00
   3.0920401E-04   1.4223763E+05   -1.7361248E+00
   3.1063195E-04   1.4110457E+05   -1.7355507E+00
   3.1206648E-04   1.3998091E+05   -1.7349767E+00
   3.1350764E-04   1.3886657E+05   -1.7344028E+00
   3.1495545E-04   1.3776146E+05   -1.7338291E+00
   3.1640994E-04   1.3666551E+05   -1.7332556E+00
   3.1787116E-04   1.3557863E+05   -1.7326822E+00
   3.1933912E-04   1.3450076E+05   -1.7321091E+00
   3.2081386E-04   1.3343180E+05   -1.7315361E+00
   3.2229541E-04   1.3237169E+05   -1.7309633E+00
   3.2378381E-04   1.3132035E+05   -1.7303907E+00
   3.2527908E-04   1.3027770E+05   -1.7298184E+00
   3.2678125E-04   1.2924367E+05   -1.7292462E+00
   3.2829036E-04   1.2821819E+05   -1.7286743E+00
   3.2980644E-04   1.2720118E+05   -1.7281026E+00
   3.3132952E-04   1.2619257E+05   -1.7275311E+00
   3.3285963E-04   1.2519228E+05   -1.7269598E+00
   3.3439681E-04   1.2420025E+05   -1.7263888E+00
   3.3594109E-04   1.2321641E+05   -1.7258180E+00
   3.3749250E-04   1.2224068E+05   -1.7252475E+00
   3.3905108E-04   1.2127300E+05   -1.7246773E+00
   3.4061685E-04   1.2031329E+05   -1.7241073E+00
   3.4218986E-04   1.1936149E+05   -1.7235376E+00
   3.4377013E-04   1.1841753E+05   -1.7229681E+00
   3.4535769E-04   1.1748134E+05   -1.7223990E+00
   3.4695259E-04   1.1655286E+05   -1.7218301E+00
   3.4855485E-04   1.1563203E+05   -1.7212616E+00
   3.5016452E-04   1.1471876E+05   -1.7206933E+00
   3.5178161E-04   1.1381301E+05   -1.7201253E+00
   3.5340618E-04   1.1291471E+05   -1.7195577E+00
   3.5503824E-04   1.1202379E+05   -1.7189903E+00
   3.5667785E-04   1.1114019E+05   -1.7184233E+00
   3.5832502E-04   1.1026384E+05   -1.7178567E+00
   3.5997981E-04   1.0939469E+05   -1.7172903E+00
   3.6164223E-04   1.0853268E+05   -1.7167243E+00
   3.6331233E-04   1.0767774E+05   -1.7161586E+00
   3.6499015E-04   1.0682981E+05   -1.7155933E+00
   3.6667571E-04   1.0598883E+05   -1.7150284E+00
   3.6836906E-04   1.0515475E+05   -1.7144638E+00
   3.7007022E-04   1.0432751E+05   -1.7138996E+00
   3.7177925E-04   1.0350704E+05   -1.7133358E+00
   3.7349616E-04   1.0269329E+05   -1.7127723E+00
   3.7522101E-04   1.0188620E+05   -1.7122092E+00
   3.7695382E-04   1.0108572E+05   -1.7116465E+00
   3.7869463E-04   1.0029178E+05   -1.7110842E+00
   3.8044348E-04   9.9504342E+04   -1.7105224E+00
   3.8220041E-04   9.8723340E+04   -1.7099609E+00
   3.8396545E-04   9.7948721E+04   -1.7093998E+00
   3.8573864E-04   9.7180431E+04   -1.7088392E+00
   3.8752002E-04   9.6418416E+04   -1.7082790E+00
   3.8930963E-04   9.5662623E+04   -1.7077192E+00
   3.9110750E-04   9.4912999E+04   -1.7071598E+00
   3.9291368E-04   9.4169492E+04   -1.7066009E+00
   3.9472820E-04   9.3432050E+04   -1.7060424E+00
   3.9655109E-04   9.2700621E+04   -1.7054844E+00
   3.9838241E-04   9.1975155E+04   -1.7049268E+00
   4.0022218E-04   9.1255600E+04   -1.7043698E+00
   4.0207045E-04   9.0541907E+04   -1.7038131E+00
   4.0392725E-04   8.9834026E+04   -1.7032570E+00
   4.0579263E-04   8.9131908E+04   -1.7027013E+00
   4.0766662E-04   8.8435503E+04   -1.7021461E+00
   4.0954927E-04   8.7744764E+04   -1.7015914E+00
   4.1144061E-04   8.7059643E+04   -1.7010372E+00
   4.1334068E-04   8.6380091E+04   -1.7004835E+00
   4.1524953E-04   8.5706063E+04   -1.6999302E+00
   4.1716720E-04   8.5037510E+04   -1.6993775E+00
   4.1909372E-04   8.4374388E+04   -1.6988254E+00
   4.2102914E-04   8.3716649E+04   -1.6982737E+00
   4.2297350E-04   8.3064248E+04   -1.6977226E+00
   4.2492683E-04   8.2417141E+04   -1.6971719E+00
   4.2688919E-04   8.1775283E+04   -1.6966219E+00
   4.2886061E-04   8.1138629E+04   -1.6960723E+00
   4.3084113E-04   8.0507135E+04   -1.6955233E+00
   4.3283080E-04   7.9880758E+04   -1.6949749E+00
   4.3482966E-04   7.9259455E+04   -1.6944270E+00
   4.3683775E-04   7.8643183E+04   -1.6938797E+00
   4.3885511E-04   7.8031899E+04   -1.6933329E+00
   4.4088179E-04   7.7425561E+04   -1.6927867E+00
   4.4291783E-04   7.6824128E+04   -1.6922411E+00
   4.4496327E-04   7.6227558E+04   -1.6916961E+00
   4.4701816E-04   7.5635811E+04   -1.6911516E+00
   4.4908253E-04   7.5048846E+04   -1.6906078E+00
   4.5115644E-04   7.4466622E+04   -1.6900645E+00
   4.5323993E-04   7.3889100E+04   -1.6895218E+00
   4.5533304E-04   7.3316240E+04   -1.6889798E+00
   4.5743582E-04   7.2748003E+04   -1.6884383E+00
   4.5954830E-04   7.2184351E+04   -1.6878975E+00
   4.6167054E-04   7.1625244E+04   -1.6873572E+00
   4.6380259E-04   7.1070644E+04   -1.6868176E+00
   4.6594448E-04   7.0520513E+04   -1.6862787E+00
   4.6809626E-04   6.9974815E+04   -1.6857403E+00
   4.7025797E-04   6.9433512E+04   -1.6852026E+00
   4.7242967E-04   6.8896566E+04   -1.6846655E+00
   4.7461140E-04   6.8363942E+04   -1.6841291E+00
   4.7680321E-04   6.7835603E+04   -1.6835933E+00
   4.7900514E-04   6.7311513E+04   -1.6830582E+00
   4.8121723E-04   6.6791637E+04   -1.6825238E+00
   4.8343954E-04   6.6275939E+04   -1.6819900E+00
   4.8567212E-04   6.5764385E+04   -1.6814568E+00
   4.8791500E-04   6.5256939E+04   -1.6809244E+00
   4.9016825E-04   6.4753568E+04   -1.6803926E+00
   4.9243189E-04   6.4254236E+04   -1.6798615E+00
   4.9470600E-04   6.3758912E+04   -1.6793311E+00
   4.9699060E-04   6.3267560E+04   -1.6788014E+00
   4.9928575E-04   6.2780147E+04   -1.6782723E+00
   5.0159151E-04   6.2296642E+04   -1.6777440E+00
   5.0390791E-04   6.1817010E+04   -1.6772164E+00
   5.0623501E-04   6.1341220E+04   -1.6766894E+00
   5.0857286E-04   6.0869240E+04   -1.6761632E+00
   5.1092150E-04   6.0401038E+04   -1.6756377E+00
   5.1328099E-04   5.9936583E+04   -1.6751129E+00
   5.1565137E-04   5.9475842E+04   -1.6745889E+00
   5.1803270E-04   5.9018786E+04   -1.6740655E+00
   5.2042503E-04   5.8565383E+04   -1.6735429E+00
   5.2282841E-04   5.8115603E+04   -1.6730211E+00
   5.2524289E-04   5.7669416E+04   -1.6725000E+00
   5.2766851E-04   5.7226792E+04   -1.6719796E+00
   5.3010534E-04   5.6787702E+04   -1.6714599E+00
   5.3255342E-04   5.6352115E+04   -1.6709410E+00
   5.3501281E-04   5.5920003E+04   -1.6704229E+00
   5.3748356E-04   5.5491336E+04   -1.6699055E+00
   5.3996571E-04   5.5066087E+04   -1.6693889E+00
   5.4245933E-04   5.4644227E+04   -1.6688731E+00
   5.4496446E-04   5.4225727E+04   -1.6683580E+00
   5.4748117E-04   5.3810561E+04   -1.6678437E+00
   5.5000949E-04   5.3398699E+04   -1.6673302E+00
   5.5254949E-04   5.2990115E+04   -1.6668174E+00
   5.5510123E-04   5.2584781E+04   -1.6663055E+00
   5.5766474E-04   5.2182671E+04   -1.6657943E+00
   5.6024010E-04   5.1783757E+04   -1.6652839E+00
   5.6282734E-04   5.1388014E+04   -1.6647743E+00
   5.6542654E-04   5.0995415E+04   -1.6642655E+00
   5.6803774E-04   5.0605934E+04   -1.6637575E+00
   5.7066099E-04   5.0219545E+04   -1.6632504E+00
   5.7329637E-04   4.9836222E+04   -1.6627440E+00
   5.7594391E-04   4.9455940E+04   -1.6622384E+00
   5.7860368E-04   4.9078675E+04   -1.6617337E+00
   5.8127573E-04   4.8704401E+04   -1.6612298E+00
   5.8396012E-04   4.8333093E+04   -1.6607267E+00
   5.8665691E-04   4.7964727E+04   -1.6602244E+00
   5.8936616E-04   4.7599278E+04   -1.6597229E+00
   5.9208791E-04   4.7236723E+04   -1.6592223E+00
   5.9482223E-04   4.6877038E+04   -1.6587226E+00
   5.9756919E-04   4.6520198E+04   -1.6582236E+00
   6.0032882E-04   4.6166181E+04   -1.6577255E+00
   6.0310120E-04   4.5814962E+04   -1.6572283E+00
   6.0588639E-04   4.5466520E+04   -1.6567319E+00
   6.0868443E-04   4.5120831E+04   -1.6562363E+00
   6.1149540E-04   4.4777872E+04   -1.6557416E+00
   6.1431935E-04   4.4437622E+04   -1.6552478E+00
   6.1715634E-04   4.4100057E+04   -1.6547548E+00
   6.2000644E-04   4.3765156E+04   -1.6542627E+00
   6.2286969E-04   4.3432896E+04   -1.6537714E+00
