#        a       HoverH0(a)       dlogHdloga_of_a(a)
   1.0000000E-04   1.1268652E+06   -1.8763618E+00
   1.0046181E-04   1.1171662E+06   -1.8759325E+00
   1.0092575E-04   1.1075529E+06   -1.8755022E+00
   1.0139184E-04   1.0980245E+06   -1.8750709E+00
   1.0186008E-04   1.0885803E+06   -1.8746386E+00
   1.0233048E-04   1.0792194E+06   -1.8742053E+00
   1.0280305E-04   1.0699411E+06   -1.8737710E+00
   1.0327781E-04   1.0607448E+06   -1.8733357E+00
   1.0375475E-04   1.0516296E+06   -1.8728994E+00
   1.0423390E-04   1.0425948E+06   -1.8724622E+00
   1.0471527E-04   1.0336397E+06   -1.8720239E+00
   1.0519885E-04   1.0247637E+06   -1.8715847E+00
   1.0568467E-04   1.0159659E+06   -1.8711445E+00
   1.0617274E-04   1.0072456E+06   -1.8707033E+00
   1.0666305E-04   9.9860229E+05   -1.8702611E+00
   1.0715563E-04   9.9003514E+05   -1.8698179E+00
   1.0765049E-04   9.8154349E+05   -1.8693738E+00
   1.0814763E-04   9.7312667E+05   -1.8689287E+00
   1.0864707E-04   9.6478400E+05   -1.8684826E+00
   1.0914881E-04   9.5651483E+05   -1.8680355E+00
   1.0965287E-04   9.4831848E+05   -1.8675874E+00
   1.1015926E-04   9.4019432E+05   -1.8671384E+00
   1.1066799E-04   9.3214168E+05   -1.8666884E+00
   1.1117906E-04   9.2415993E+05   -1.8662375E+00
   1.1169250E-04   9.1624843E+05   -1.8657855E+00
   1.1220831E-04   9.0840655E+05   -1.8653326E+00
   1.1272650E-04   9.0063367E+05   -1.8648788E+00
   1.1324708E-04   8.9292917E+05   -1.8644240E+00
   1.1377007E-04   8.8529244E+05   -1.8639682E+00
   1.1429547E-04   8.7772286E+05   -1.8635114E+00
   1.1482330E-04   8.7021984E+05   -1.8630537E+00
   1.1535356E-04   8.6278278E+05   -1.8625951E+00
   1.1588628E-04   8.5541109E+05   -1.8621355E+00
   1.1642145E-04   8.4810418E+05   -1.8616749E+00
   1.1695910E-04   8.4086147E+05   -1.8612134E+00
   1.1749923E-04   8.3368238E+05   -1.8607510E+00
   1.1804185E-04   8.2656635E+05   -1.8602876E+00
   1.1858698E-04   8.1951282E+05   -1.8598232E+00
   1.1913463E-04   8.1252121E+05   -1.8593580E+00
   1.1968481E-04   8.0559099E+05   -1.8588917E+00
   1.2023752E-04   7.9872159E+05   -1.8584246E+00
   1.2079279E-04   7.9191247E+05   -1.8579565E+00
   1.2135063E-04   7.8516310E+05   -1.8574875E+00
   1.2191104E-04   7.7847293E+05   -1.8570175E+00
   1.2247403E-04   7.7184145E+05   -1.8565466E+00
   1.2303963E-04   7.6526811E+05   -1.8560748E+00
   1.2360784E-04   7.5875241E+05   -1.8556021E+00
   1.2417868E-04   7.5229382E+05   -1.8551285E+00
   1.2475215E-04   7.4589184E+05   -1.8546539E+00
   1.2532826E-04   7.3954596E+05   -1.8541784E+00
   1.2590704E-04   7.3325568E+05   -1.8537020E+00
   1.2648850E-04   7.2702049E+05   -1.8532247E+00
   1.2707263E-04   7.2083992E+05   -1.8527465E+00
   1.2765947E-04   7.1471346E+05   -1.8522673E+00
   1.2824901E-04   7.0864064E+05   -1.8517873E+00
   1.2884128E-04   7.0262097E+05   -1.8513064E+00
   1.2943628E-04   6.9665398E+05   -1.8508245E+00
   1.3003403E-04   6.9073921E+05   -1.8503418E+00
   1.3063454E-04   6.8487617E+05   -1.8498582E+00
   1.3123783E-04   6.7906442E+05   -1.8493737E+00
   1.3184390E-04   6.7330348E+05   -1.8488883E+00
   1.3245277E-04   6.6759292E+05   -1.8484020E+00
   1.3306445E-04   6.6193227E+05   -1.8479148E+00
   1.3367895E-04   6.5632110E+05   -1.8474268E+00
   1.3429630E-04   6.5075895E+05   -1.8469378E+00
   1.3491649E-04   6.4524540E+05   -1.8464480E+00
   1.3553955E-04   6.3978001E+05   -1.8459574E+00
   1.3616548E-04   6.3436234E+05   -1.8454658E+00
   1.3679431E-04   6.2899198E+05   -1.8449734E+00
   1.3742604E-04   6.2366850E+05   -1.8444802E+00
   1.3806069E-04   6.1839148E+05   -1.8439860E+00
   1.3869827E-04   6.1316051E+05   -1.8434910E+00
   1.3933879E-04   6.0797518E+05   -1.8429952E+00
   1.3998227E-04   6.0283507E+05   -1.8424985E+00
   1.4062872E-04   5.9773979E+05   -1.8420010E+00
   1.4127816E-04   5.9268894E+05   -1.8415026E+00
   1.4193060E-04   5.8768211E+05   -1.8410034E+00
   1.4258605E-04   5.8271893E+05   -1.8405033E+00
   1.4324453E-04   5.7779899E+05   -1.8400024E+00
   1.4390605E-04   5.7292191E+05   -1.8395007E+00
   1.4457062E-04   5.6808732E+05   -1.8389981E+00
   1.4523826E-04   5.6329482E+05   -1.8384947E+00
   1.4590899E-04   5.5854406E+05   -1.8379905E+00
   1.4658281E-04   5.5383465E+05   -1.8374855E+00
   1.4725974E-04   5.4916623E+05   -1.8369797E+00
   1.4793981E-04   5.4453842E+05   -1.8364730E+00
   1.4862301E-04   5.3995088E+05   -1.8359656E+00
   1.4930936E-04   5.3540324E+05   -1.8354573E+00
   1.4999889E-04   5.3089514E+05   -1.8349482E+00
   1.5069160E-04   5.2642624E+05   -1.8344384E+00
   1.5138751E-04   5.2199618E+05   -1.8339277E+00
   1.5208663E-04   5.1760462E+05   -1.8334163E+00
   1.5278899E-04   5.1325122E+05   -1.8329040E+00
   1.5349458E-04   5.0893564E+05   -1.8323910E+00
   1.5420343E-04   5.0465754E+05   -1.8318772E+00
   1.5491556E-04   5.0041658E+05   -1.8313626E+00
   1.5563098E-04   4.9621244E+05   -1.8308473E+00
   1.5634970E-04   4.9204479E+05   -1.8303312E+00
   1.5707174E-04   4.8791331E+05   -1.8298143E+00
   1.5779711E-04   4.8381767E+05   -1.8292966E+00
   1.5852584E-04   4.7975755E+05   -1.8287782E+00
   1.5925792E-04   4.7573264E+05   -1.8282591E+00
   1.5999339E-04   4.7174263E+05   -1.8277392E+00
   1.6073226E-04   4.6778720E+05   -1.8272185E+00
   1.6147454E-04   4.6386605E+05   -1.8266972E+00
   1.6222024E-04   4.5997888E+05   -1.8261750E+00
   1.6296939E-04   4.5612538E+05   -1.8256522E+00
   1.6372200E-04   4.5230525E+05   -1.8251286E+00
   1.6447809E-04   4.4851820E+05   -1.8246043E+00
   1.6523767E-04   4.4476394E+05   -1.8240792E+00
   1.6600075E-04   4.4104216E+05   -1.8235535E+00
   1.6676736E-04   4.3735259E+05   -1.8230270E+00
   1.6753751E-04   4.3369494E+05   -1.8224998E+00
   1.6831122E-04   4.3006892E+05   -1.8219719E+00
   1.6908849E-04   4.2647426E+05   -1.8214434E+00
   1.6986936E-04   4.2291067E+05   -1.8209141E+00
   1.7065384E-04   4.1937788E+05   -1.8203841E+00
   1.7144193E-04   4.1587562E+05   -1.8198534E+00
   1.7223367E-04   4.1240362E+05   -1.8193221E+00
   1.7302906E-04   4.0896160E+05   -1.8187901E+00
   1.7382813E-04   4.0554931E+05   -1.8182574E+00
   1.7463089E-04   4.0216648E+05   -1.8177240E+00
   1.7543735E-04   3.9881284E+05   -1.8171900E+00
   1.7624754E-04   3.9548815E+05   -1.8166553E+00
   1.7706147E-04   3.9219213E+05   -1.8161199E+00
   1.7787916E-04   3.8892455E+05   -1.8155839E+00
   1.7870062E-04   3.8568514E+05   -1.8150472E+00
   1.7952588E-04   3.8247367E+05   -1.8145099E+00
   1.8035495E-04   3.7928987E+05   -1.8139720E+00
   1.8118785E-04   3.7613350E+05   -1.8134334E+00
   1.8202459E-04   3.7300433E+05   -1.8128942E+00
   1.8286520E-04   3.6990211E+05   -1.8123544E+00
   1.8370969E-04   3.6682661E+05   -1.8118139E+00
   1.8455808E-04   3.6377758E+05   -1.8112729E+00
   1.8541039E-04   3.6075480E+05   -1.8107312E+00
   1.8626663E-04   3.5775803E+05   -1.8101889E+00
   1.8712683E-04   3.5478704E+05   -1.8096460E+00
   1.8799100E-04   3.5184160E+05   -1.8091025E+00
   1.8885917E-04   3.4892149E+05   -1.8085584E+00
   1.8973134E-04   3.4602648E+05   -1.8080138E+00
   1.9060754E-04   3.4315635E+05   -1.8074685E+00
   1.9148778E-04   3.4031089E+05   -1.8069227E+00
   1.9237209E-04   3.3748986E+05   -1.8063763E+00
   1.9326049E-04   3.3469307E+05   -1.8058293E+00
   1.9415299E-04   3.3192029E+05   -1.8052818E+00
   1.9504960E-04   3.2917131E+05   -1.8047337E+00
   1.9595036E-04   3.2644593E+05   -1.8041850E+00
   1.9685528E-04   3.2374393E+05   -1.8036359E+00
   1.9776438E-04   3.2106511E+05   -1.8030861E+00
   1.9867768E-04   3.1840925E+05   -1.8025358E+00
   1.9959519E-04   3.1577617E+05   -1.8019850E+00
   2.0051694E-04   3.1316566E+05   -1.8014337E+00
   2.0144295E-04   3.1057752E+05   -1.8008818E+00
   2.0237324E-04   3.0801155E+05   -1.8003294E+00
   2.0330782E-04   3.0546756E+05   -1.7997766E+00
   2.0424671E-04   3.0294535E+05   -1.7992232E+00
   2.0518995E-04   3.0044474E+05   -1.7986693E+00
   2.0613754E-04   2.9796553E+05   -1.7981149E+00
   2.0708950E-04   2.9550753E+05   -1.7975600E+00
   2.0804586E-04   2.9307055E+05   -1.7970046E+00
   2.0900664E-04   2.9065442E+05   -1.7964487E+00
   2.0997185E-04   2.8825895E+05   -1.7958924E+00
   2.1094152E-04   2.8588395E+05   -1.7953356E+00
   2.1191567E-04   2.8352925E+05   -1.7947783E+00
   2.1289432E-04   2.8119466E+05   -1.7942206E+00
   2.1387749E-04   2.7888001E+05   -1.7936624E+00
   2.1486520E-04   2.7658513E+05   -1.7931037E+00
   2.1585747E-04   2.7430984E+05   -1.7925447E+00
   2.1685432E-04   2.7205397E+05   -1.7919851E+00
   2.1785578E-04   2.6981734E+05   -1.7914252E+00
   2.1886186E-04   2.6759980E+05   -1.7908648E+00
   2.1987259E-04   2.6540116E+05   -1.7903040E+00
   2.2088798E-04   2.6322127E+05   -1.7897428E+00
   2.2190807E-04   2.6105996E+05   -1.7891811E+00
   2.2293286E-04   2.5891707E+05   -1.7886191E+00
   2.2396239E-04   2.5679243E+05   -1.7880566E+00
   2.2499667E-04   2.5468588E+05   -1.7874938E+00
   2.2603573E-04   2.5259728E+05   -1.7869306E+00
   2.2707958E-04   2.5052645E+05   -1.7863670E+00
   2.2812826E-04   2.4847324E+05   -1.7858030E+00
   2.2918178E-04   2.4643750E+05   -1.7852386E+00
   2.3024017E-04   2.4441907E+05   -1.7846739E+00
   2.3130344E-04   2.4241781E+05   -1.7841088E+00
   2.3237162E-04   2.4043356E+05   -1.7835434E+00
   2.3344474E-04   2.3846617E+05   -1.7829776E+00
   2.3452281E-04   2.3651550E+05   -1.7824114E+00
   2.3560586E-04   2.3458140E+05   -1.7818450E+00
   2.3669392E-04   2.3266372E+05   -1.7812781E+00
   2.3778699E-04   2.3076232E+05   -1.7807110E+00
   2.3888512E-04   2.2887706E+05   -1.7801435E+00
   2.3998831E-04   2.2700779E+05   -1.7795758E+00
   2.4109661E-04   2.2515438E+05   -1.7790077E+00
   2.4221001E-04   2.2331668E+05   -1.7784393E+00
   2.4332857E-04   2.2149457E+05   -1.7778706E+00
   2.4445228E-04   2.1968790E+05   -1.7773016E+00
   2.4558119E-04   2.1789653E+05   -1.7767324E+00
   2.4671531E-04   2.1612034E+05   -1.7761628E+00
   2.4785467E-04   2.1435919E+05   -1.7755930E+00
   2.4899928E-04   2.1261295E+05   -1.7750229E+00
   2.5014919E-04   2.1088149E+05   -1.7744525E+00
   2.5130440E-04   2.0916468E+05   -1.7738819E+00
   2.5246495E-04   2.0746240E+05   -1.7733111E+00
   2.5363086E-04   2.0577451E+05   -1.7727399E+00
   2.5480216E-04   2.0410088E+05   -1.7721686E+00
   2.5597886E-04   2.0244141E+05   -1.7715970E+00
   2.5716100E-04   2.0079595E+05   -1.7710252E+00
   2.5834859E-04   1.9916440E+05   -1.7704532E+00
   2.5954168E-04   1.9754662E+05   -1.7698809E+00
   2.6074027E-04   1.9594250E+05   -1.7693084E+00
   2.6194439E-04   1.9435191E+05   -1.7687358E+00
   2.6315408E-04   1.9277475E+05   -1.7681629E+00
   2.6436935E-04   1.9121089E+05   -1.7675899E+00
   2.6559024E-04   1.8966022E+05   -1.7670166E+00
   2.6681676E-04   1.8812263E+05   -1.7664432E+00
   2.6804895E-04   1.8659799E+05   -1.7658696E+00
   2.6928683E-04   1.8508619E+05   -1.7652958E+00
   2.7053042E-04   1.8358713E+05   -1.7647219E+00
   2.7177976E-04   1.8210069E+05   -1.7641478E+00
   2.7303487E-04   1.8062677E+05   -1.7635736E+00
   2.7429577E-04   1.7916525E+05   -1.7629992E+00
   2.7556250E-04   1.7771603E+05   -1.7624247E+00
   2.7683507E-04   1.7627899E+05   -1.7618500E+00
   2.7811353E-04   1.7485404E+05   -1.7612753E+00
   2.7939788E-04   1.7344106E+05   -1.7607004E+00
   2.8068817E-04   1.7203996E+05   -1.7601254E+00
   2.8198442E-04   1.7065063E+05   -1.7595503E+00
   2.8328665E-04   1.6927297E+05   -1.7589750E+00
   2.8459490E-04   1.6790688E+05   -1.7583997E+00
   2.8590919E-04   1.6655225E+05   -1.7578243E+00
   2.8722955E-04   1.6520899E+05   -1.7572488E+00
   2.8855600E-04   1.6387699E+05   -1.7566733E+00
   2.8988859E-04   1.6255617E+05   -1.7560976E+00
   2.9122732E-04   1.6124642E+05   -1.7555219E+00
   2.9257224E-04   1.5994765E+05   -1.7549462E+00
   2.9392337E-04   1.5865976E+05   -1.7543704E+00
   2.9528074E-04   1.5738266E+05   -1.7537945E+00
   2.9664438E-04   1.5611625E+05   -1.7532186E+00
   2.9801431E-04   1.5486044E+05   -1.7526427E+00
   2.9939057E-04   1.5361514E+05   -1.7520667E+00
   3.0077319E-04   1.5238026E+05   -1.7514907E+00
   3.0216219E-04   1.5115571E+05   -1.7509147E+00
   3.0355761E-04   1.4994140E+05   -1.7503387E+00
   3.0495947E-04   1.4873723E+05   -1.7497627E+00
   3.0636780E-04   1.4754313E+05   -1.7491867E+00
   3.0778264E-04   1.4635901E+05   -1.7486107E+00
   3.0920401E-04   1.4518477E+05   -1.7480347E+00
   3.1063195E-04   1.4402034E+05   -1.7474587E+00
   3.1206648E-04   1.4286562E+05   -1.7468827E+00
   3.1350764E-04   1.4172054E+05   -1.7463068E+00
   3.1495545E-04   1.4058501E+05   -1.7457310E+00
   3.1640994E-04   1.3945894E+05   -1.7451551E+00
   3.1787116E-04   1.3834227E+05   -1.7445794E+00
   3.1933912E-04   1.3723490E+05   -1.7440036E+00
   3.2081386E-04   1.3613675E+05   -1.7434280E+00
   3.2229541E-04   1.3504775E+05   -1.7428524E+00
   3.2378381E-04   1.3396782E+05   -1.7422769E+00
   3.2527908E-04   1.3289688E+05   -1.7417014E+00
   3.2678125E-04   1.3183484E+05   -1.7411261E+00
   3.2829036E-04   1.3078164E+05   -1.7405508E+00
   3.2980644E-04   1.2973720E+05   -1.7399757E+00
   3.3132952E-04   1.2870144E+05   -1.7394006E+00
   3.3285963E-04   1.2767428E+05   -1.7388257E+00
   3.3439681E-04   1.2665566E+05   -1.7382509E+00
   3.3594109E-04   1.2564550E+05   -1.7376762E+00
   3.3749250E-04   1.2464373E+05   -1.7371016E+00
   3.3905108E-04   1.2365027E+05   -1.7365272E+00
   3.4061685E-04   1.2266505E+05   -1.7359529E+00
   3.4218986E-04   1.2168801E+05   -1.7353788E+00
   3.4377013E-04   1.2071907E+05   -1.7348048E+00
   3.4535769E-04   1.1975815E+05   -1.7342309E+00
   3.4695259E-04   1.1880521E+05   -1.7336573E+00
   3.4855485E-04   1.1786015E+05   -1.7330838E+00
   3.5016452E-04   1.1692292E+05   -1.7325105E+00
   3.5178161E-04   1.1599346E+05   -1.7319374E+00
   3.5340618E-04   1.1507168E+05   -1.7313644E+00
   3.5503824E-04   1.1415753E+05   -1.7307917E+00
   3.5667785E-04   1.1325094E+05   -1.7302192E+00
   3.5832502E-04   1.1235185E+05   -1.7296468E+00
   3.5997981E-04   1.1146019E+05   -1.7290747E+00
   3.6164223E-04   1.1057590E+05   -1.7285028E+00
   3.6331233E-04   1.0969891E+05   -1.7279312E+00
   3.6499015E-04   1.0882916E+05   -1.7273597E+00
   3.6667571E-04   1.0796660E+05   -1.7267885E+00
   3.6836906E-04   1.0711115E+05   -1.7262176E+00
   3.7007022E-04   1.0626276E+05   -1.7256469E+00
   3.7177925E-04   1.0542136E+05   -1.7250764E+00
   3.7349616E-04   1.0458691E+05   -1.7245062E+00
   3.7522101E-04   1.0375933E+05   -1.7239363E+00
   3.7695382E-04   1.0293857E+05   -1.7233666E+00
   3.7869463E-04   1.0212457E+05   -1.7227973E+00
   3.8044348E-04   1.0131727E+05   -1.7222282E+00
   3.8220041E-04   1.0051662E+05   -1.7216594E+00
   3.8396545E-04   9.9722559E+04   -1.7210909E+00
   3.8573864E-04   9.8935027E+04   -1.7205227E+00
   3.8752002E-04   9.8153972E+04   -1.7199548E+00
   3.8930963E-04   9.7379338E+04   -1.7193872E+00
   3.9110750E-04   9.6611070E+04   -1.7188200E+00
   3.9291368E-04   9.5849113E+04   -1.7182530E+00
   3.9472820E-04   9.5093414E+04   -1.7176864E+00
   3.9655109E-04   9.4343919E+04   -1.7171202E+00
   3.9838241E-04   9.3600576E+04   -1.7165542E+00
   4.0022218E-04   9.2863332E+04   -1.7159887E+00
   4.0207045E-04   9.2132135E+04   -1.7154235E+00
   4.0392725E-04   9.1406933E+04   -1.7148586E+00
   4.0579263E-04   9.0687675E+04   -1.7142941E+00
   4.0766662E-04   8.9974311E+04   -1.7137300E+00
   4.0954927E-04   8.9266790E+04   -1.7131662E+00
   4.1144061E-04   8.8565063E+04   -1.7126029E+00
   4.1334068E-04   8.7869080E+04   -1.7120399E+00
   4.1524953E-04   8.7178793E+04   -1.7114773E+00
   4.1716720E-04   8.6494152E+04   -1.7109151E+00
   4.1909372E-04   8.5815111E+04   -1.7103533E+00
   4.2102914E-04   8.5141620E+04   -1.7097919E+00
   4.2297350E-04   8.4473634E+04   -1.7092310E+00
   4.2492683E-04   8.3811105E+04   -1.7086704E+00
   4.2688919E-04   8.3153987E+04   -1.7081103E+00
   4.2886061E-04   8.2502234E+04   -1.7075506E+00
   4.3084113E-04   8.1855800E+04   -1.7069914E+00
   4.3283080E-04   8.1214640E+04   -1.7064326E+00
   4.3482966E-04   8.0578710E+04   -1.7058742E+00
   4.3683775E-04   7.9947965E+04   -1.7053163E+00
   4.3885511E-04   7.9322361E+04   -1.7047589E+00
   4.4088179E-04   7.8701855E+04   -1.7042019E+00
   4.4291783E-04   7.8086403E+04   -1.7036454E+00
   4.4496327E-04   7.7475962E+04   -1.7030893E+00
   4.4701816E-04   7.6870490E+04   -1.7025338E+00
   4.4908253E-04   7.6269945E+04   -1.7019787E+00
   4.5115644E-04   7.5674285E+04   -1.7014241E+00
   4.5323993E-04   7.5083470E+04   -1.7008700E+00
   4.5533304E-04   7.4497457E+04   -1.7003164E+00
   4.5743582E-04   7.3916206E+04   -1.6997634E+00
   4.5954830E-04   7.3339677E+04   -1.6992108E+00
   4.6167054E-04   7.2767830E+04   -1.6986587E+00
   4.6380259E-04   7.2200625E+04   -1.6981072E+00
   4.6594448E-04   7.1638024E+04   -1.6975562E+00
   4.6809626E-04   7.1079986E+04   -1.6970057E+00
   4.7025797E-04   7.0526475E+04   -1.6964558E+00
   4.7242967E-04   6.9977451E+04   -1.6959064E+00
   4.7461140E-04   6.9432876E+04   -1.6953575E+00
   4.7680321E-04   6.8892714E+04   -1.6948092E+00
   4.7900514E-04   6.8356926E+04   -1.6942615E+00
   4.8121723E-04   6.7825477E+04   -1.6937143E+00
   4.8343954E-04   6.7298329E+04   -1.6931677E+00
   4.8567212E-04   6.6775446E+04   -1.6926216E+00
   4.8791500E-04   6.6256793E+04   -1.6920762E+00
   4.9016825E-04   6.5742333E+04   -1.6915313E+00
   4.9243189E-04   6.5232031E+04   -1.6909870E+00
   4.9470600E-04   6.4725852E+04   -1.6904433E+00
   4.9699060E-04   6.4223762E+04   -1.6899002E+00
   4.9928575E-04   6.3725726E+04   -1.6893576E+00
   5.0159151E-04   6.3231711E+04   -1.6888157E+00
   5.0390791E-04   6.2741681E+04   -1.6882744E+00
   5.0623501E-04   6.2255604E+04   -1.6877337E+00
   5.0857286E-04   6.1773447E+04   -1.6871937E+00
   5.1092150E-04   6.1295177E+04   -1.6866542E+00
   5.1328099E-04   6.0820761E+04   -1.6861154E+00
   5.1565137E-04   6.0350166E+04   -1.6855772E+00
   5.1803270E-04   5.9883361E+04   -1.6850397E+00
   5.2042503E-04   5.9420313E+04   -1.6845028E+00
   5.2282841E-04   5.8960992E+04   -1.6839665E+00
   5.2524289E-04   5.8505366E+04   -1.6834309E+00
   5.2766851E-04   5.8053404E+04   -1.6828960E+00
   5.3010534E-04   5.7605075E+04   -1.6823617E+00
   5.3255342E-04   5.7160350E+04   -1.6818280E+00
   5.3501281E-04   5.6719197E+04   -1.6812951E+00
   5.3748356E-04   5.6281587E+04   -1.6807628E+00
   5.3996571E-04   5.5847490E+04   -1.6802312E+00
   5.4245933E-04   5.5416876E+04   -1.6797003E+00
   5.4496446E-04   5.4989718E+04   -1.6791700E+00
   5.4748117E-04   5.4565986E+04   -1.6786405E+00
   5.5000949E-04   5.4145650E+04   -1.6781116E+00
   5.5254949E-04   5.3728684E+04   -1.6775835E+00
   5.5510123E-04   5.3315058E+04   -1.6770560E+00
   5.5766474E-04   5.2904744E+04   -1.6765293E+00
   5.6024010E-04   5.2497716E+04   -1.6760033E+00
   5.6282734E-04   5.2093946E+04   -1.6754779E+00
   5.6542654E-04   5.1693406E+04   -1.6749533E+00
   5.6803774E-04   5.1296069E+04   -1.6744295E+00
   5.7066099E-04   5.0901910E+04   -1.6739063E+00
   5.7329637E-04   5.0510900E+04   -1.6733839E+00
   5.7594391E-04   5.0123015E+04   -1.6728622E+00
   5.7860368E-04   4.9738229E+04   -1.6723413E+00
   5.8127573E-04   4.9356514E+04   -1.6718211E+00
   5.8396012E-04   4.8977846E+04   -1.6713017E+00
   5.8665691E-04   4.8602200E+04   -1.6707830E+00
   5.8936616E-04   4.8229550E+04   -1.6702650E+00
   5.9208791E-04   4.7859871E+04   -1.6697479E+00
   5.9482223E-04   4.7493139E+04   -1.6692314E+00
   5.9756919E-04   4.7129329E+04   -1.6687158E+00
   6.0032882E-04   4.6768417E+04   -1.6682009E+00
   6.0310120E-04   4.6410379E+04   -1.6676868E+00
   6.0588639E-04   4.6055191E+04   -1.6671735E+00
   6.0868443E-04   4.5702829E+04   -1.6666609E+00
   6.1149540E-04   4.5353270E+04   -1.6661492E+00
   6.1431935E-04   4.5006491E+04   -1.6656382E+00
   6.1715634E-04   4.4662469E+04   -1.6651280E+00
   6.2000644E-04   4.4321180E+04   -1.6646186E+00
   6.2286969E-04   4.3982602E+04   -1.6641101E+00
