#        a       HoverH0(a)       dlogHdloga_of_a(a)
   1.0000000E-04   1.1982505E+06   -1.8708224E+00
   1.0046181E-04   1.1879675E+06   -1.8703805E+00
   1.0092575E-04   1.1777751E+06   -1.8699376E+00
   1.0139184E-04   1.1676725E+06   -1.8694937E+00
   1.0186008E-04   1.1576590E+06   -1.8690489E+00
   1.0233048E-04   1.1477337E+06   -1.8686030E+00
   1.0280305E-04   1.1378958E+06   -1.8681562E+00
   1.0327781E-04   1.1281446E+06   -1.8677084E+00
   1.0375475E-04   1.1184793E+06   -1.8672597E+00
   1.0423390E-04   1.1088990E+06   -1.8668100E+00
   1.0471527E-04   1.0994031E+06   -1.8663593E+00
   1.0519885E-04   1.0899908E+06   -1.8659076E+00
   1.0568467E-04   1.0806613E+06   -1.8654550E+00
   1.0617274E-04   1.0714139E+06   -1.8650014E+00
   1.0666305E-04   1.0622479E+06   -1.8645468E+00
   1.0715563E-04   1.0531624E+06   -1.8640913E+00
   1.0765049E-04   1.0441569E+06   -1.8636348E+00
   1.0814763E-04   1.0352306E+06   -1.8631774E+00
   1.0864707E-04   1.0263827E+06   -1.8627190E+00
   1.0914881E-04   1.0176126E+06   -1.8622596E+00
   1.0965287E-04   1.0089196E+06   -1.8617993E+00
   1.1015926E-04   1.0003030E+06   -1.8613381E+00
   1.1066799E-04   9.9176206E+05   -1.8608759E+00
   1.1117906E-04   9.8329616E+05   -1.8604128E+00
   1.1169250E-04   9.7490460E+05   -1.8599487E+00
   1.1220831E-04   9.6658672E+05   -1.8594836E+00
   1.1272650E-04   9.5834187E+05   -1.8590177E+00
   1.1324708E-04   9.5016939E+05   -1.8585508E+00
   1.1377007E-04   9.4206863E+05   -1.8580829E+00
   1.1429547E-04   9.3403895E+05   -1.8576142E+00
   1.1482330E-04   9.2607971E+05   -1.8571445E+00
   1.1535356E-04   9.1819029E+05   -1.8566738E+00
   1.1588628E-04   9.1037005E+05   -1.8562023E+00
   1.1642145E-04   9.0261838E+05   -1.8557298E+00
   1.1695910E-04   8.9493466E+05   -1.8552564E+00
   1.1749923E-04   8.8731829E+05   -1.8547821E+00
   1.1804185E-04   8.7976866E+05   -1.8543069E+00
   1.1858698E-04   8.7228518E+05   -1.8538307E+00
   1.1913463E-04   8.6486726E+05   -1.8533536E+00
   1.1968481E-04   8.5751430E+05   -1.8528757E+00
   1.2023752E-04   8.5022573E+05   -1.8523968E+00
   1.2079279E-04   8.4300098E+05   -1.8519170E+00
   1.2135063E-04   8.3583947E+05   -1.8514363E+00
   1.2191104E-04   8.2874063E+05   -1.8509547E+00
   1.2247403E-04   8.2170391E+05   -1.8504722E+00
   1.2303963E-04   8.1472875E+05   -1.8499889E+00
   1.2360784E-04   8.0781460E+05   -1.8495046E+00
   1.2417868E-04   8.0096091E+05   -1.8490194E+00
   1.2475215E-04   7.9416715E+05   -1.8485334E+00
   1.2532826E-04   7.8743278E+05   -1.8480465E+00
   1.2590704E-04   7.8075727E+05   -1.8475587E+00
   1.2648850E-04   7.7414009E+05   -1.8470700E+00
   1.2707263E-04   7.6758072E+05   -1.8465804E+00
   1.2765947E-04   7.6107865E+05   -1.8460900E+00
   1.2824901E-04   7.5463337E+05   -1.8455987E+00
   1.2884128E-04   7.4824437E+05   -1.8451065E+00
   1.2943628E-04   7.4191114E+05   -1.8446135E+00
   1.3003403E-04   7.3563319E+05   -1.8441196E+00
   1.3063454E-04   7.2941002E+05   -1.8436248E+00
   1.3123783E-04   7.2324115E+05   -1.8431292E+00
   1.3184390E-04   7.1712608E+05   -1.8426327E+00
   1.3245277E-04   7.1106435E+05   -1.8421354E+00
   1.3306445E-04   7.0505548E+05   -1.8416373E+00
   1.3367895E-04   6.9909899E+05   -1.8411383E+00
   1.3429630E-04   6.9319441E+05   -1.8406385E+00
   1.3491649E-04   6.8734129E+05   -1.8401378E+00
   1.3553955E-04   6.8153917E+05   -1.8396363E+00
   1.3616548E-04   6.7578759E+05   -1.8391340E+00
   1.3679431E-04   6.7008610E+05   -1.8386308E+00
   1.3742604E-04   6.6443425E+05   -1.8381268E+00
   1.3806069E-04   6.5883160E+05   -1.8376220E+00
   1.3869827E-04   6.5327772E+05   -1.8371164E+00
   1.3933879E-04   6.4777217E+05   -1.8366100E+00
   1.3998227E-04   6.4231451E+05   -1.8361027E+00
   1.4062872E-04   6.3690433E+05   -1.8355947E+00
   1.4127816E-04   6.3154119E+05   -1.8350858E+00
   1.4193060E-04   6.2622468E+05   -1.8345762E+00
   1.4258605E-04   6.2095439E+05   -1.8340658E+00
   1.4324453E-04   6.1572991E+05   -1.8335545E+00
   1.4390605E-04   6.1055082E+05   -1.8330425E+00
   1.4457062E-04   6.0541672E+05   -1.8325297E+00
   1.4523826E-04   6.0032722E+05   -1.8320161E+00
   1.4590899E-04   5.9528191E+05   -1.8315018E+00
   1.4658281E-04   5.9028040E+05   -1.8309866E+00
   1.4725974E-04   5.8532231E+05   -1.8304707E+00
   1.4793981E-04   5.8040724E+05   -1.8299540E+00
   1.4862301E-04   5.7553481E+05   -1.8294366E+00
   1.4930936E-04   5.7070465E+05   -1.8289184E+00
   1.4999889E-04   5.6591638E+05   -1.8283995E+00
   1.5069160E-04   5.6116962E+05   -1.8278798E+00
   1.5138751E-04   5.5646402E+05   -1.8273593E+00
   1.5208663E-04   5.5179919E+05   -1.8268382E+00
   1.5278899E-04   5.4717479E+05   -1.8263162E+00
   1.5349458E-04   5.4259045E+05   -1.8257936E+00
   1.5420343E-04   5.3804581E+05   -1.8252702E+00
   1.5491556E-04   5.3354052E+05   -1.8247461E+00
   1.5563098E-04   5.2907424E+05   -1.8242212E+00
   1.5634970E-04   5.2464662E+05   -1.8236957E+00
   1.5707174E-04   5.2025731E+05   -1.8231694E+00
   1.5779711E-04   5.1590597E+05   -1.8226424E+00
   1.5852584E-04   5.1159227E+05   -1.8221147E+00
   1.5925792E-04   5.0731587E+05   -1.8215863E+00
   1.5999339E-04   5.0307644E+05   -1.8210572E+00
   1.6073226E-04   4.9887366E+05   -1.8205275E+00
   1.6147454E-04   4.9470720E+05   -1.8199970E+00
   1.6222024E-04   4.9057673E+05   -1.8194658E+00
   1.6296939E-04   4.8648194E+05   -1.8189340E+00
   1.6372200E-04   4.8242252E+05   -1.8184015E+00
   1.6447809E-04   4.7839814E+05   -1.8178683E+00
   1.6523767E-04   4.7440850E+05   -1.8173344E+00
   1.6600075E-04   4.7045329E+05   -1.8167999E+00
   1.6676736E-04   4.6653220E+05   -1.8162647E+00
   1.6753751E-04   4.6264494E+05   -1.8157289E+00
   1.6831122E-04   4.5879120E+05   -1.8151924E+00
   1.6908849E-04   4.5497068E+05   -1.8146553E+00
   1.6986936E-04   4.5118310E+05   -1.8141176E+00
   1.7065384E-04   4.4742816E+05   -1.8135792E+00
   1.7144193E-04   4.4370557E+05   -1.8130401E+00
   1.7223367E-04   4.4001504E+05   -1.8125005E+00
   1.7302906E-04   4.3635630E+05   -1.8119602E+00
   1.7382813E-04   4.3272906E+05   -1.8114193E+00
   1.7463089E-04   4.2913304E+05   -1.8108778E+00
   1.7543735E-04   4.2556796E+05   -1.8103356E+00
   1.7624754E-04   4.2203356E+05   -1.8097929E+00
   1.7706147E-04   4.1852956E+05   -1.8092496E+00
   1.7787916E-04   4.1505569E+05   -1.8087057E+00
   1.7870062E-04   4.1161168E+05   -1.8081612E+00
   1.7952588E-04   4.0819728E+05   -1.8076161E+00
   1.8035495E-04   4.0481222E+05   -1.8070704E+00
   1.8118785E-04   4.0145624E+05   -1.8065242E+00
   1.8202459E-04   3.9812908E+05   -1.8059774E+00
   1.8286520E-04   3.9483049E+05   -1.8054300E+00
   1.8370969E-04   3.9156022E+05   -1.8048820E+00
   1.8455808E-04   3.8831802E+05   -1.8043336E+00
   1.8541039E-04   3.8510364E+05   -1.8037845E+00
   1.8626663E-04   3.8191683E+05   -1.8032349E+00
   1.8712683E-04   3.7875736E+05   -1.8026848E+00
   1.8799100E-04   3.7562497E+05   -1.8021341E+00
   1.8885917E-04   3.7251943E+05   -1.8015830E+00
   1.8973134E-04   3.6944051E+05   -1.8010312E+00
   1.9060754E-04   3.6638797E+05   -1.8004790E+00
   1.9148778E-04   3.6336158E+05   -1.7999263E+00
   1.9237209E-04   3.6036110E+05   -1.7993730E+00
   1.9326049E-04   3.5738631E+05   -1.7988192E+00
   1.9415299E-04   3.5443698E+05   -1.7982650E+00
   1.9504960E-04   3.5151288E+05   -1.7977102E+00
   1.9595036E-04   3.4861381E+05   -1.7971550E+00
   1.9685528E-04   3.4573953E+05   -1.7965992E+00
   1.9776438E-04   3.4288982E+05   -1.7960430E+00
   1.9867768E-04   3.4006448E+05   -1.7954864E+00
   1.9959519E-04   3.3726328E+05   -1.7949292E+00
   2.0051694E-04   3.3448601E+05   -1.7943716E+00
   2.0144295E-04   3.3173247E+05   -1.7938136E+00
   2.0237324E-04   3.2900244E+05   -1.7932550E+00
   2.0330782E-04   3.2629572E+05   -1.7926961E+00
   2.0424671E-04   3.2361210E+05   -1.7921367E+00
   2.0518995E-04   3.2095137E+05   -1.7915769E+00
   2.0613754E-04   3.1831335E+05   -1.7910166E+00
   2.0708950E-04   3.1569782E+05   -1.7904559E+00
   2.0804586E-04   3.1310460E+05   -1.7898948E+00
   2.0900664E-04   3.1053348E+05   -1.7893333E+00
   2.0997185E-04   3.0798427E+05   -1.7887714E+00
   2.1094152E-04   3.0545678E+05   -1.7882090E+00
   2.1191567E-04   3.0295081E+05   -1.7876463E+00
   2.1289432E-04   3.0046619E+05   -1.7870832E+00
   2.1387749E-04   2.9800271E+05   -1.7865197E+00
   2.1486520E-04   2.9556020E+05   -1.7859558E+00
   2.1585747E-04   2.9313847E+05   -1.7853916E+00
   2.1685432E-04   2.9073734E+05   -1.7848269E+00
   2.1785578E-04   2.8835663E+05   -1.7842619E+00
   2.1886186E-04   2.8599615E+05   -1.7836966E+00
   2.1987259E-04   2.8365574E+05   -1.7831309E+00
   2.2088798E-04   2.8133522E+05   -1.7825649E+00
   2.2190807E-04   2.7903441E+05   -1.7819985E+00
   2.2293286E-04   2.7675313E+05   -1.7814318E+00
   2.2396239E-04   2.7449123E+05   -1.7808647E+00
   2.2499667E-04   2.7224852E+05   -1.7802974E+00
   2.2603573E-04   2.7002484E+05   -1.7797297E+00
   2.2707958E-04   2.6782002E+05   -1.7791617E+00
   2.2812826E-04   2.6563391E+05   -1.7785934E+00
   2.2918178E-04   2.6346632E+05   -1.7780248E+00
   2.3024017E-04   2.6131711E+05   -1.7774559E+00
   2.3130344E-04   2.5918611E+05   -1.7768867E+00
   2.3237162E-04   2.5707317E+05   -1.7763172E+00
   2.3344474E-04   2.5497811E+05   -1.7757475E+00
   2.3452281E-04   2.5290080E+05   -1.7751775E+00
   2.3560586E-04   2.5084107E+05   -1.7746072E+00
   2.3669392E-04   2.4879877E+05   -1.7740367E+00
   2.3778699E-04   2.4677374E+05   -1.7734659E+00
   2.3888512E-04   2.4476584E+05   -1.7728948E+00
   2.3998831E-04   2.4277492E+05   -1.7723235E+00
   2.4109661E-04   2.4080083E+05   -1.7717520E+00
   2.4221001E-04   2.3884341E+05   -1.7711803E+00
   2.4332857E-04   2.3690254E+05   -1.7706083E+00
   2.4445228E-04   2.3497805E+05   -1.7700361E+00
   2.4558119E-04   2.3306981E+05   -1.7694637E+00
   2.4671531E-04   2.3117768E+05   -1.7688911E+00
   2.4785467E-04   2.2930151E+05   -1.7683183E+00
   2.4899928E-04   2.2744117E+05   -1.7677453E+00
   2.5014919E-04   2.2559652E+05   -1.7671721E+00
   2.5130440E-04   2.2376742E+05   -1.7665988E+00
   2.5246495E-04   2.2195374E+05   -1.7660252E+00
   2.5363086E-04   2.2015534E+05   -1.7654515E+00
   2.5480216E-04   2.1837209E+05   -1.7648776E+00
   2.5597886E-04   2.1660386E+05   -1.7643036E+00
   2.5716100E-04   2.1485051E+05   -1.7637294E+00
   2.5834859E-04   2.1311192E+05   -1.7631551E+00
   2.5954168E-04   2.1138796E+05   -1.7625806E+00
   2.6074027E-04   2.0967849E+05   -1.7620060E+00
   2.6194439E-04   2.0798341E+05   -1.7614313E+00
   2.6315408E-04   2.0630257E+05   -1.7608564E+00
   2.6436935E-04   2.0463586E+05   -1.7602815E+00
   2.6559024E-04   2.0298315E+05   -1.7597064E+00
   2.6681676E-04   2.0134433E+05   -1.7591312E+00
   2.6804895E-04   1.9971926E+05   -1.7585559E+00
   2.6928683E-04   1.9810784E+05   -1.7579806E+00
   2.7053042E-04   1.9650993E+05   -1.7574051E+00
   2.7177976E-04   1.9492544E+05   -1.7568296E+00
   2.7303487E-04   1.9335423E+05   -1.7562540E+00
   2.7429577E-04   1.9179619E+05   -1.7556783E+00
   2.7556250E-04   1.9025122E+05   -1.7551025E+00
   2.7683507E-04   1.8871919E+05   -1.7545268E+00
   2.7811353E-04   1.8719999E+05   -1.7539509E+00
   2.7939788E-04   1.8569352E+05   -1.7533750E+00
   2.8068817E-04   1.8419966E+05   -1.7527991E+00
   2.8198442E-04   1.8271830E+05   -1.7522232E+00
   2.8328665E-04   1.8124934E+05   -1.7516472E+00
   2.8459490E-04   1.7979266E+05   -1.7510712E+00
   2.8590919E-04   1.7834816E+05   -1.7504952E+00
   2.8722955E-04   1.7691574E+05   -1.7499192E+00
   2.8855600E-04   1.7549529E+05   -1.7493432E+00
   2.8988859E-04   1.7408670E+05   -1.7487672E+00
   2.9122732E-04   1.7268988E+05   -1.7481912E+00
   2.9257224E-04   1.7130472E+05   -1.7476152E+00
   2.9392337E-04   1.6993112E+05   -1.7470393E+00
   2.9528074E-04   1.6856899E+05   -1.7464634E+00
   2.9664438E-04   1.6721821E+05   -1.7458875E+00
   2.9801431E-04   1.6587870E+05   -1.7453117E+00
   2.9939057E-04   1.6455036E+05   -1.7447359E+00
   3.0077319E-04   1.6323309E+05   -1.7441602E+00
   3.0216219E-04   1.6192679E+05   -1.7435845E+00
   3.0355761E-04   1.6063137E+05   -1.7430089E+00
   3.0495947E-04   1.5934674E+05   -1.7424334E+00
   3.0636780E-04   1.5807280E+05   -1.7418579E+00
   3.0778264E-04   1.5680947E+05   -1.7412826E+00
   3.0920401E-04   1.5555664E+05   -1.7407073E+00
   3.1063195E-04   1.5431422E+05   -1.7401321E+00
   3.1206648E-04   1.5308214E+05   -1.7395570E+00
   3.1350764E-04   1.5186030E+05   -1.7389821E+00
   3.1495545E-04   1.5064861E+05   -1.7384072E+00
   3.1640994E-04   1.4944698E+05   -1.7378325E+00
   3.1787116E-04   1.4825533E+05   -1.7372579E+00
   3.1933912E-04   1.4707357E+05   -1.7366835E+00
   3.2081386E-04   1.4590162E+05   -1.7361092E+00
   3.2229541E-04   1.4473939E+05   -1.7355350E+00
   3.2378381E-04   1.4358679E+05   -1.7349610E+00
   3.2527908E-04   1.4244375E+05   -1.7343871E+00
   3.2678125E-04   1.4131019E+05   -1.7338134E+00
   3.2829036E-04   1.4018601E+05   -1.7332399E+00
   3.2980644E-04   1.3907115E+05   -1.7326666E+00
   3.3132952E-04   1.3796552E+05   -1.7320934E+00
   3.3285963E-04   1.3686904E+05   -1.7315204E+00
   3.3439681E-04   1.3578163E+05   -1.7309476E+00
   3.3594109E-04   1.3470321E+05   -1.7303751E+00
   3.3749250E-04   1.3363372E+05   -1.7298027E+00
   3.3905108E-04   1.3257306E+05   -1.7292305E+00
   3.4061685E-04   1.3152117E+05   -1.7286586E+00
   3.4218986E-04   1.3047797E+05   -1.7280869E+00
   3.4377013E-04   1.2944338E+05   -1.7275154E+00
   3.4535769E-04   1.2841734E+05   -1.7269441E+00
   3.4695259E-04   1.2739976E+05   -1.7263731E+00
   3.4855485E-04   1.2639058E+05   -1.7258023E+00
   3.5016452E-04   1.2538973E+05   -1.7252318E+00
   3.5178161E-04   1.2439712E+05   -1.7246616E+00
   3.5340618E-04   1.2341270E+05   -1.7240916E+00
   3.5503824E-04   1.2243639E+05   -1.7235219E+00
   3.5667785E-04   1.2146812E+05   -1.7229525E+00
   3.5832502E-04   1.2050783E+05   -1.7223833E+00
   3.5997981E-04   1.1955544E+05   -1.7218144E+00
   3.6164223E-04   1.1861089E+05   -1.7212459E+00
   3.6331233E-04   1.1767411E+05   -1.7206776E+00
   3.6499015E-04   1.1674503E+05   -1.7201096E+00
   3.6667571E-04   1.1582359E+05   -1.7195420E+00
   3.6836906E-04   1.1490973E+05   -1.7189747E+00
   3.7007022E-04   1.1400337E+05   -1.7184077E+00
   3.7177925E-04   1.1310446E+05   -1.7178410E+00
   3.7349616E-04   1.1221293E+05   -1.7172746E+00
   3.7522101E-04   1.1132872E+05   -1.7167086E+00
   3.7695382E-04   1.1045176E+05   -1.7161430E+00
   3.7869463E-04   1.0958199E+05   -1.7155777E+00
   3.8044348E-04   1.0871936E+05   -1.7150127E+00
   3.8220041E-04   1.0786380E+05   -1.7144481E+00
   3.8396545E-04   1.0701525E+05   -1.7138839E+00
   3.8573864E-04   1.0617365E+05   -1.7133201E+00
   3.8752002E-04   1.0533894E+05   -1.7127566E+00
   3.8930963E-04   1.0451107E+05   -1.7121936E+00
   3.9110750E-04   1.0368997E+05   -1.7116309E+00
   3.9291368E-04   1.0287559E+05   -1.7110686E+00
   3.9472820E-04   1.0206787E+05   -1.7105067E+00
   3.9655109E-04   1.0126675E+05   -1.7099452E+00
   3.9838241E-04   1.0047219E+05   -1.7093842E+00
   4.0022218E-04   9.9684110E+04   -1.7088235E+00
   4.0207045E-04   9.8902470E+04   -1.7082633E+00
   4.0392725E-04   9.8127213E+04   -1.7077035E+00
   4.0579263E-04   9.7358283E+04   -1.7071442E+00
   4.0766662E-04   9.6595628E+04   -1.7065853E+00
   4.0954927E-04   9.5839194E+04   -1.7060268E+00
   4.1144061E-04   9.5088928E+04   -1.7054688E+00
   4.1334068E-04   9.4344778E+04   -1.7049112E+00
   4.1524953E-04   9.3606691E+04   -1.7043541E+00
   4.1716720E-04   9.2874617E+04   -1.7037975E+00
   4.1909372E-04   9.2148505E+04   -1.7032414E+00
   4.2102914E-04   9.1428304E+04   -1.7026857E+00
   4.2297350E-04   9.0713963E+04   -1.7021305E+00
   4.2492683E-04   9.0005435E+04   -1.7015758E+00
   4.2688919E-04   8.9302668E+04   -1.7010216E+00
   4.2886061E-04   8.8605615E+04   -1.7004679E+00
   4.3084113E-04   8.7914227E+04   -1.6999147E+00
   4.3283080E-04   8.7228456E+04   -1.6993620E+00
   4.3482966E-04   8.6548254E+04   -1.6988098E+00
   4.3683775E-04   8.5873576E+04   -1.6982581E+00
   4.3885511E-04   8.5204372E+04   -1.6977070E+00
   4.4088179E-04   8.4540599E+04   -1.6971564E+00
   4.4291783E-04   8.3882209E+04   -1.6966063E+00
   4.4496327E-04   8.3229158E+04   -1.6960568E+00
   4.4701816E-04   8.2581399E+04   -1.6955078E+00
   4.4908253E-04   8.1938890E+04   -1.6949594E+00
   4.5115644E-04   8.1301584E+04   -1.6944115E+00
   4.5323993E-04   8.0669439E+04   -1.6938642E+00
   4.5533304E-04   8.0042411E+04   -1.6933174E+00
   4.5743582E-04   7.9420457E+04   -1.6927712E+00
   4.5954830E-04   7.8803533E+04   -1.6922256E+00
   4.6167054E-04   7.8191599E+04   -1.6916806E+00
   4.6380259E-04   7.7584610E+04   -1.6911361E+00
   4.6594448E-04   7.6982527E+04   -1.6905923E+00
   4.6809626E-04   7.6385307E+04   -1.6900490E+00
   4.7025797E-04   7.5792911E+04   -1.6895064E+00
   4.7242967E-04   7.5205296E+04   -1.6889643E+00
   4.7461140E-04   7.4622423E+04   -1.6884229E+00
   4.7680321E-04   7.4044252E+04   -1.6878820E+00
   4.7900514E-04   7.3470744E+04   -1.6873418E+00
   4.8121723E-04   7.2901860E+04   -1.6868022E+00
   4.8343954E-04   7.2337560E+04   -1.6862632E+00
   4.8567212E-04   7.1777806E+04   -1.6857249E+00
   4.8791500E-04   7.1222561E+04   -1.6851872E+00
   4.9016825E-04   7.0671785E+04   -1.6846501E+00
   4.9243189E-04   7.0125442E+04   -1.6841137E+00
   4.9470600E-04   6.9583495E+04   -1.6835779E+00
   4.9699060E-04   6.9045906E+04   -1.6830428E+00
   4.9928575E-04   6.8512639E+04   -1.6825084E+00
   5.0159151E-04   6.7983658E+04   -1.6819746E+00
   5.0390791E-04   6.7458927E+04   -1.6814415E+00
   5.0623501E-04   6.6938411E+04   -1.6809090E+00
   5.0857286E-04   6.6422074E+04   -1.6803773E+00
   5.1092150E-04   6.5909881E+04   -1.6798462E+00
   5.1328099E-04   6.5401798E+04   -1.6793158E+00
   5.1565137E-04   6.4897789E+04   -1.6787860E+00
   5.1803270E-04   6.4397822E+04   -1.6782570E+00
   5.2042503E-04   6.3901863E+04   -1.6777287E+00
   5.2282841E-04   6.3409877E+04   -1.6772011E+00
   5.2524289E-04   6.2921832E+04   -1.6766741E+00
   5.2766851E-04   6.2437695E+04   -1.6761479E+00
   5.3010534E-04   6.1957432E+04   -1.6756225E+00
   5.3255342E-04   6.1481013E+04   -1.6750977E+00
   5.3501281E-04   6.1008405E+04   -1.6745736E+00
   5.3748356E-04   6.0539575E+04   -1.6740503E+00
   5.3996571E-04   6.0074493E+04   -1.6735277E+00
   5.4245933E-04   5.9613128E+04   -1.6730059E+00
   5.4496446E-04   5.9155448E+04   -1.6724847E+00
   5.4748117E-04   5.8701422E+04   -1.6719644E+00
   5.5000949E-04   5.8251021E+04   -1.6714447E+00
   5.5254949E-04   5.7804214E+04   -1.6709259E+00
   5.5510123E-04   5.7360971E+04   -1.6704077E+00
   5.5766474E-04   5.6921263E+04   -1.6698904E+00
   5.6024010E-04   5.6485060E+04   -1.6693738E+00
   5.6282734E-04   5.6052333E+04   -1.6688579E+00
   5.6542654E-04   5.5623053E+04   -1.6683429E+00
   5.6803774E-04   5.5197191E+04   -1.6678286E+00
   5.7066099E-04   5.4774720E+04   -1.6673150E+00
   5.7329637E-04   5.4355611E+04   -1.6668023E+00
   5.7594391E-04   5.3939836E+04   -1.6662904E+00
   5.7860368E-04   5.3527368E+04   -1.6657792E+00
   5.8127573E-04   5.3118178E+04   -1.6652688E+00
   5.8396012E-04   5.2712241E+04   -1.6647592E+00
   5.8665691E-04   5.2309528E+04   -1.6642505E+00
   5.8936616E-04   5.1910014E+04   -1.6637425E+00
   5.9208791E-04   5.1513672E+04   -1.6632353E+00
   5.9482223E-04   5.1120475E+04   -1.6627290E+00
   5.9756919E-04   5.0730397E+04   -1.6622234E+00
   6.0032882E-04   5.0343413E+04   -1.6617187E+00
   6.0310120E-04   4.9959497E+04   -1.6612148E+00
   6.0588639E-04   4.9578624E+04   -1.6607117E+00
   6.0868443E-04   4.9200769E+04   -1.6602094E+00
   6.1149540E-04   4.8825906E+04   -1.6597080E+00
   6.1431935E-04   4.8454011E+04   -1.6592074E+00
   6.1715634E-04   4.8085060E+04   -1.6587076E+00
   6.2000644E-04   4.7719028E+04   -1.6582087E+00
   6.2286969E-04   4.7355891E+04   -1.6577106E+00
