#        a       HoverH0(a)       dlogHdloga_of_a(a)
   1.0000000E-04   1.0943707E+06   -1.8757657E+00
   1.0046181E-04   1.0849544E+06   -1.8753350E+00
   1.0092575E-04   1.0756212E+06   -1.8749033E+00
   1.0139184E-04   1.0663705E+06   -1.8744706E+00
   1.0186008E-04   1.0572014E+06   -1.8740369E+00
   1.0233048E-04   1.0481133E+06   -1.8736023E+00
   1.0280305E-04   1.0391054E+06   -1.8731666E+00
   1.0327781E-04   1.0301769E+06   -1.8727299E+00
   1.0375475E-04   1.0213272E+06   -1.8722923E+00
   1.0423390E-04   1.0125556E+06   -1.8718537E+00
   1.0471527E-04   1.0038614E+06   -1.8714141E+00
   1.0519885E-04   9.9524384E+05   -1.8709735E+00
   1.0568467E-04   9.8670225E+05   -1.8705319E+00
   1.0617274E-04   9.7823597E+05   -1.8700893E+00
   1.0666305E-04   9.6984431E+05   -1.8696458E+00
   1.0715563E-04   9.6152660E+05   -1.8692012E+00
   1.0765049E-04   9.5328219E+05   -1.8687557E+00
   1.0814763E-04   9.4511040E+05   -1.8683093E+00
   1.0864707E-04   9.3701060E+05   -1.8678618E+00
   1.0914881E-04   9.2898213E+05   -1.8674134E+00
   1.0965287E-04   9.2102436E+05   -1.8669640E+00
   1.1015926E-04   9.1313664E+05   -1.8665136E+00
   1.1066799E-04   9.0531836E+05   -1.8660623E+00
   1.1117906E-04   8.9756888E+05   -1.8656100E+00
   1.1169250E-04   8.8988760E+05   -1.8651567E+00
   1.1220831E-04   8.8227389E+05   -1.8647025E+00
   1.1272650E-04   8.7472716E+05   -1.8642473E+00
   1.1324708E-04   8.6724680E+05   -1.8637911E+00
   1.1377007E-04   8.5983223E+05   -1.8633340E+00
   1.1429547E-04   8.5248284E+05   -1.8628759E+00
   1.1482330E-04   8.4519806E+05   -1.8624169E+00
   1.1535356E-04   8.3797730E+05   -1.8619569E+00
   1.1588628E-04   8.3081999E+05   -1.8614960E+00
   1.1642145E-04   8.2372556E+05   -1.8610342E+00
   1.1695910E-04   8.1669346E+05   -1.8605713E+00
   1.1749923E-04   8.0972311E+05   -1.8601076E+00
   1.1804185E-04   8.0281398E+05   -1.8596429E+00
   1.1858698E-04   7.9596550E+05   -1.8591772E+00
   1.1913463E-04   7.8917714E+05   -1.8587106E+00
   1.1968481E-04   7.8244836E+05   -1.8582431E+00
   1.2023752E-04   7.7577862E+05   -1.8577747E+00
   1.2079279E-04   7.6916740E+05   -1.8573053E+00
   1.2135063E-04   7.6261417E+05   -1.8568350E+00
   1.2191104E-04   7.5611841E+05   -1.8563637E+00
   1.2247403E-04   7.4967961E+05   -1.8558916E+00
   1.2303963E-04   7.4329727E+05   -1.8554185E+00
   1.2360784E-04   7.3697086E+05   -1.8549445E+00
   1.2417868E-04   7.3069990E+05   -1.8544696E+00
   1.2475215E-04   7.2448388E+05   -1.8539937E+00
   1.2532826E-04   7.1832232E+05   -1.8535170E+00
   1.2590704E-04   7.1221473E+05   -1.8530393E+00
   1.2648850E-04   7.0616062E+05   -1.8525607E+00
   1.2707263E-04   7.0015952E+05   -1.8520812E+00
   1.2765947E-04   6.9421096E+05   -1.8516009E+00
   1.2824901E-04   6.8831446E+05   -1.8511196E+00
   1.2884128E-04   6.8246956E+05   -1.8506374E+00
   1.2943628E-04   6.7667580E+05   -1.8501543E+00
   1.3003403E-04   6.7093271E+05   -1.8496704E+00
   1.3063454E-04   6.6523986E+05   -1.8491855E+00
   1.3123783E-04   6.5959678E+05   -1.8486998E+00
   1.3184390E-04   6.5400303E+05   -1.8482131E+00
   1.3245277E-04   6.4845818E+05   -1.8477256E+00
   1.3306445E-04   6.4296179E+05   -1.8472372E+00
   1.3367895E-04   6.3751342E+05   -1.8467480E+00
   1.3429630E-04   6.3211264E+05   -1.8462578E+00
   1.3491649E-04   6.2675904E+05   -1.8457668E+00
   1.3553955E-04   6.2145218E+05   -1.8452749E+00
   1.3616548E-04   6.1619166E+05   -1.8447822E+00
   1.3679431E-04   6.1097705E+05   -1.8442886E+00
   1.3742604E-04   6.0580795E+05   -1.8437941E+00
   1.3806069E-04   6.0068396E+05   -1.8432988E+00
   1.3869827E-04   5.9560466E+05   -1.8428026E+00
   1.3933879E-04   5.9056967E+05   -1.8423056E+00
   1.3998227E-04   5.8557858E+05   -1.8418078E+00
   1.4062872E-04   5.8063100E+05   -1.8413090E+00
   1.4127816E-04   5.7572655E+05   -1.8408095E+00
   1.4193060E-04   5.7086484E+05   -1.8403091E+00
   1.4258605E-04   5.6604550E+05   -1.8398079E+00
   1.4324453E-04   5.6126813E+05   -1.8393058E+00
   1.4390605E-04   5.5653238E+05   -1.8388030E+00
   1.4457062E-04   5.5183786E+05   -1.8382993E+00
   1.4523826E-04   5.4718422E+05   -1.8377947E+00
   1.4590899E-04   5.4257108E+05   -1.8372894E+00
   1.4658281E-04   5.3799808E+05   -1.8367832E+00
   1.4725974E-04   5.3346488E+05   -1.8362763E+00
   1.4793981E-04   5.2897111E+05   -1.8357685E+00
   1.4862301E-04   5.2451642E+05   -1.8352599E+00
   1.4930936E-04   5.2010046E+05   -1.8347506E+00
   1.4999889E-04   5.1572290E+05   -1.8342404E+00
   1.5069160E-04   5.1138338E+05   -1.8337294E+00
   1.5138751E-04   5.0708157E+05   -1.8332177E+00
   1.5208663E-04   5.0281713E+05   -1.8327051E+00
   1.5278899E-04   4.9858974E+05   -1.8321918E+00
   1.5349458E-04   4.9439906E+05   -1.8316777E+00
   1.5420343E-04   4.9024476E+05   -1.8311628E+00
   1.5491556E-04   4.8612653E+05   -1.8306472E+00
   1.5563098E-04   4.8204403E+05   -1.8301308E+00
   1.5634970E-04   4.7799696E+05   -1.8296136E+00
   1.5707174E-04   4.7398500E+05   -1.8290957E+00
   1.5779711E-04   4.7000783E+05   -1.8285770E+00
   1.5852584E-04   4.6606515E+05   -1.8280575E+00
   1.5925792E-04   4.6215665E+05   -1.8275373E+00
   1.5999339E-04   4.5828203E+05   -1.8270164E+00
   1.6073226E-04   4.5444098E+05   -1.8264947E+00
   1.6147454E-04   4.5063321E+05   -1.8259723E+00
   1.6222024E-04   4.4685842E+05   -1.8254492E+00
   1.6296939E-04   4.4311632E+05   -1.8249253E+00
   1.6372200E-04   4.3940662E+05   -1.8244007E+00
   1.6447809E-04   4.3572903E+05   -1.8238754E+00
   1.6523767E-04   4.3208326E+05   -1.8233494E+00
   1.6600075E-04   4.2846904E+05   -1.8228226E+00
   1.6676736E-04   4.2488608E+05   -1.8222952E+00
   1.6753751E-04   4.2133411E+05   -1.8217670E+00
   1.6831122E-04   4.1781285E+05   -1.8212382E+00
   1.6908849E-04   4.1432203E+05   -1.8207086E+00
   1.6986936E-04   4.1086137E+05   -1.8201784E+00
   1.7065384E-04   4.0743062E+05   -1.8196474E+00
   1.7144193E-04   4.0402951E+05   -1.8191158E+00
   1.7223367E-04   4.0065776E+05   -1.8185836E+00
   1.7302906E-04   3.9731514E+05   -1.8180506E+00
   1.7382813E-04   3.9400136E+05   -1.8175170E+00
   1.7463089E-04   3.9071619E+05   -1.8169827E+00
   1.7543735E-04   3.8745936E+05   -1.8164477E+00
   1.7624754E-04   3.8423063E+05   -1.8159121E+00
   1.7706147E-04   3.8102974E+05   -1.8153758E+00
   1.7787916E-04   3.7785646E+05   -1.8148389E+00
   1.7870062E-04   3.7471052E+05   -1.8143014E+00
   1.7952588E-04   3.7159171E+05   -1.8137632E+00
   1.8035495E-04   3.6849976E+05   -1.8132244E+00
   1.8118785E-04   3.6543445E+05   -1.8126849E+00
   1.8202459E-04   3.6239554E+05   -1.8121449E+00
   1.8286520E-04   3.5938279E+05   -1.8116042E+00
   1.8370969E-04   3.5639598E+05   -1.8110629E+00
   1.8455808E-04   3.5343488E+05   -1.8105209E+00
   1.8541039E-04   3.5049925E+05   -1.8099784E+00
   1.8626663E-04   3.4758888E+05   -1.8094353E+00
   1.8712683E-04   3.4470353E+05   -1.8088916E+00
   1.8799100E-04   3.4184300E+05   -1.8083473E+00
   1.8885917E-04   3.3900705E+05   -1.8078024E+00
   1.8973134E-04   3.3619547E+05   -1.8072569E+00
   1.9060754E-04   3.3340805E+05   -1.8067108E+00
   1.9148778E-04   3.3064458E+05   -1.8061642E+00
   1.9237209E-04   3.2790483E+05   -1.8056170E+00
   1.9326049E-04   3.2518861E+05   -1.8050693E+00
   1.9415299E-04   3.2249570E+05   -1.8045210E+00
   1.9504960E-04   3.1982590E+05   -1.8039721E+00
   1.9595036E-04   3.1717900E+05   -1.8034227E+00
   1.9685528E-04   3.1455481E+05   -1.8028728E+00
   1.9776438E-04   3.1195312E+05   -1.8023223E+00
   1.9867768E-04   3.0937373E+05   -1.8017713E+00
   1.9959519E-04   3.0681645E+05   -1.8012197E+00
   2.0051694E-04   3.0428108E+05   -1.8006677E+00
   2.0144295E-04   3.0176743E+05   -1.8001151E+00
   2.0237324E-04   2.9927531E+05   -1.7995620E+00
   2.0330782E-04   2.9680452E+05   -1.7990084E+00
   2.0424671E-04   2.9435489E+05   -1.7984543E+00
   2.0518995E-04   2.9192622E+05   -1.7978997E+00
   2.0613754E-04   2.8951832E+05   -1.7973446E+00
   2.0708950E-04   2.8713103E+05   -1.7967891E+00
   2.0804586E-04   2.8476415E+05   -1.7962330E+00
   2.0900664E-04   2.8241750E+05   -1.7956765E+00
   2.0997185E-04   2.8009091E+05   -1.7951195E+00
   2.1094152E-04   2.7778420E+05   -1.7945621E+00
   2.1191567E-04   2.7549719E+05   -1.7940042E+00
   2.1289432E-04   2.7322971E+05   -1.7934458E+00
   2.1387749E-04   2.7098160E+05   -1.7928870E+00
   2.1486520E-04   2.6875267E+05   -1.7923277E+00
   2.1585747E-04   2.6654277E+05   -1.7917680E+00
   2.1685432E-04   2.6435172E+05   -1.7912079E+00
   2.1785578E-04   2.6217935E+05   -1.7906474E+00
   2.1886186E-04   2.6002551E+05   -1.7900864E+00
   2.1987259E-04   2.5789003E+05   -1.7895250E+00
   2.2088798E-04   2.5577275E+05   -1.7889632E+00
   2.2190807E-04   2.5367352E+05   -1.7884010E+00
   2.2293286E-04   2.5159216E+05   -1.7878384E+00
   2.2396239E-04   2.4952852E+05   -1.7872754E+00
   2.2499667E-04   2.4748246E+05   -1.7867121E+00
   2.2603573E-04   2.4545381E+05   -1.7861483E+00
   2.2707958E-04   2.4344242E+05   -1.7855842E+00
   2.2812826E-04   2.4144814E+05   -1.7850197E+00
   2.2918178E-04   2.3947082E+05   -1.7844548E+00
   2.3024017E-04   2.3751031E+05   -1.7838896E+00
   2.3130344E-04   2.3556647E+05   -1.7833240E+00
   2.3237162E-04   2.3363915E+05   -1.7827581E+00
   2.3344474E-04   2.3172819E+05   -1.7821918E+00
   2.3452281E-04   2.2983347E+05   -1.7816252E+00
   2.3560586E-04   2.2795484E+05   -1.7810583E+00
   2.3669392E-04   2.2609215E+05   -1.7804910E+00
   2.3778699E-04   2.2424527E+05   -1.7799234E+00
   2.3888512E-04   2.2241405E+05   -1.7793555E+00
   2.3998831E-04   2.2059837E+05   -1.7787873E+00
   2.4109661E-04   2.1879809E+05   -1.7782188E+00
   2.4221001E-04   2.1701306E+05   -1.7776500E+00
   2.4332857E-04   2.1524316E+05   -1.7770809E+00
   2.4445228E-04   2.1348826E+05   -1.7765115E+00
   2.4558119E-04   2.1174822E+05   -1.7759419E+00
   2.4671531E-04   2.1002291E+05   -1.7753720E+00
   2.4785467E-04   2.0831221E+05   -1.7748018E+00
   2.4899928E-04   2.0661598E+05   -1.7742313E+00
   2.5014919E-04   2.0493411E+05   -1.7736606E+00
   2.5130440E-04   2.0326646E+05   -1.7730896E+00
   2.5246495E-04   2.0161291E+05   -1.7725184E+00
   2.5363086E-04   1.9997334E+05   -1.7719470E+00
   2.5480216E-04   1.9834763E+05   -1.7713753E+00
   2.5597886E-04   1.9673565E+05   -1.7708034E+00
   2.5716100E-04   1.9513728E+05   -1.7702313E+00
   2.5834859E-04   1.9355241E+05   -1.7696590E+00
   2.5954168E-04   1.9198092E+05   -1.7690864E+00
   2.6074027E-04   1.9042269E+05   -1.7685137E+00
   2.6194439E-04   1.8887761E+05   -1.7679407E+00
   2.6315408E-04   1.8734556E+05   -1.7673676E+00
   2.6436935E-04   1.8582642E+05   -1.7667943E+00
   2.6559024E-04   1.8432010E+05   -1.7662208E+00
   2.6681676E-04   1.8282646E+05   -1.7656471E+00
   2.6804895E-04   1.8134541E+05   -1.7650733E+00
   2.6928683E-04   1.7987683E+05   -1.7644993E+00
   2.7053042E-04   1.7842062E+05   -1.7639252E+00
   2.7177976E-04   1.7697666E+05   -1.7633509E+00
   2.7303487E-04   1.7554486E+05   -1.7627765E+00
   2.7429577E-04   1.7412510E+05   -1.7622019E+00
   2.7556250E-04   1.7271727E+05   -1.7616272E+00
   2.7683507E-04   1.7132129E+05   -1.7610524E+00
   2.7811353E-04   1.6993704E+05   -1.7604774E+00
   2.7939788E-04   1.6856442E+05   -1.7599024E+00
   2.8068817E-04   1.6720333E+05   -1.7593272E+00
   2.8198442E-04   1.6585366E+05   -1.7587520E+00
   2.8328665E-04   1.6451533E+05   -1.7581766E+00
   2.8459490E-04   1.6318824E+05   -1.7576012E+00
   2.8590919E-04   1.6187227E+05   -1.7570257E+00
   2.8722955E-04   1.6056735E+05   -1.7564501E+00
   2.8855600E-04   1.5927336E+05   -1.7558744E+00
   2.8988859E-04   1.5799023E+05   -1.7552987E+00
   2.9122732E-04   1.5671784E+05   -1.7547229E+00
   2.9257224E-04   1.5545612E+05   -1.7541471E+00
   2.9392337E-04   1.5420496E+05   -1.7535712E+00
   2.9528074E-04   1.5296428E+05   -1.7529953E+00
   2.9664438E-04   1.5173398E+05   -1.7524194E+00
   2.9801431E-04   1.5051398E+05   -1.7518434E+00
   2.9939057E-04   1.4930418E+05   -1.7512674E+00
   3.0077319E-04   1.4810450E+05   -1.7506914E+00
   3.0216219E-04   1.4691485E+05   -1.7501154E+00
   3.0355761E-04   1.4573515E+05   -1.7495394E+00
   3.0495947E-04   1.4456530E+05   -1.7489634E+00
   3.0636780E-04   1.4340522E+05   -1.7483874E+00
   3.0778264E-04   1.4225482E+05   -1.7478114E+00
   3.0920401E-04   1.4111403E+05   -1.7472354E+00
   3.1063195E-04   1.3998276E+05   -1.7466595E+00
   3.1206648E-04   1.3886093E+05   -1.7460836E+00
   3.1350764E-04   1.3774845E+05   -1.7455077E+00
   3.1495545E-04   1.3664525E+05   -1.7449319E+00
   3.1640994E-04   1.3555125E+05   -1.7443562E+00
   3.1787116E-04   1.3446636E+05   -1.7437805E+00
   3.1933912E-04   1.3339050E+05   -1.7432048E+00
   3.2081386E-04   1.3232361E+05   -1.7426293E+00
   3.2229541E-04   1.3126559E+05   -1.7420538E+00
   3.2378381E-04   1.3021638E+05   -1.7414784E+00
   3.2527908E-04   1.2917590E+05   -1.7409031E+00
   3.2678125E-04   1.2814407E+05   -1.7403279E+00
   3.2829036E-04   1.2712083E+05   -1.7397527E+00
   3.2980644E-04   1.2610608E+05   -1.7391777E+00
   3.3132952E-04   1.2509977E+05   -1.7386028E+00
   3.3285963E-04   1.2410182E+05   -1.7380281E+00
   3.3439681E-04   1.2311215E+05   -1.7374534E+00
   3.3594109E-04   1.2213070E+05   -1.7368789E+00
   3.3749250E-04   1.2115740E+05   -1.7363045E+00
   3.3905108E-04   1.2019217E+05   -1.7357303E+00
   3.4061685E-04   1.1923494E+05   -1.7351562E+00
   3.4218986E-04   1.1828565E+05   -1.7345823E+00
   3.4377013E-04   1.1734423E+05   -1.7340086E+00
   3.4535769E-04   1.1641061E+05   -1.7334350E+00
   3.4695259E-04   1.1548472E+05   -1.7328615E+00
   3.4855485E-04   1.1456650E+05   -1.7322883E+00
   3.5016452E-04   1.1365588E+05   -1.7317153E+00
   3.5178161E-04   1.1275280E+05   -1.7311424E+00
   3.5340618E-04   1.1185718E+05   -1.7305697E+00
   3.5503824E-04   1.1096898E+05   -1.7299973E+00
   3.5667785E-04   1.1008811E+05   -1.7294250E+00
   3.5832502E-04   1.0921453E+05   -1.7288530E+00
   3.5997981E-04   1.0834816E+05   -1.7282812E+00
   3.6164223E-04   1.0748895E+05   -1.7277096E+00
   3.6331233E-04   1.0663684E+05   -1.7271383E+00
   3.6499015E-04   1.0579176E+05   -1.7265672E+00
   3.6667571E-04   1.0495365E+05   -1.7259963E+00
   3.6836906E-04   1.0412245E+05   -1.7254257E+00
   3.7007022E-04   1.0329811E+05   -1.7248554E+00
   3.7177925E-04   1.0248057E+05   -1.7242853E+00
   3.7349616E-04   1.0166976E+05   -1.7237155E+00
   3.7522101E-04   1.0086563E+05   -1.7231459E+00
   3.7695382E-04   1.0006812E+05   -1.7225767E+00
   3.7869463E-04   9.9277184E+04   -1.7220077E+00
   3.8044348E-04   9.8492754E+04   -1.7214390E+00
   3.8220041E-04   9.7714778E+04   -1.7208706E+00
   3.8396545E-04   9.6943201E+04   -1.7203026E+00
   3.8573864E-04   9.6177968E+04   -1.7197348E+00
   3.8752002E-04   9.5419025E+04   -1.7191673E+00
   3.8930963E-04   9.4666319E+04   -1.7186002E+00
   3.9110750E-04   9.3919795E+04   -1.7180334E+00
   3.9291368E-04   9.3179402E+04   -1.7174669E+00
   3.9472820E-04   9.2445086E+04   -1.7169008E+00
   3.9655109E-04   9.1716797E+04   -1.7163350E+00
   3.9838241E-04   9.0994482E+04   -1.7157696E+00
   4.0022218E-04   9.0278091E+04   -1.7152045E+00
   4.0207045E-04   8.9567573E+04   -1.7146398E+00
   4.0392725E-04   8.8862878E+04   -1.7140754E+00
   4.0579263E-04   8.8163957E+04   -1.7135114E+00
   4.0766662E-04   8.7470760E+04   -1.7129478E+00
   4.0954927E-04   8.6783239E+04   -1.7123846E+00
   4.1144061E-04   8.6101345E+04   -1.7118218E+00
   4.1334068E-04   8.5425031E+04   -1.7112594E+00
   4.1524953E-04   8.4754248E+04   -1.7106973E+00
   4.1716720E-04   8.4088950E+04   -1.7101357E+00
   4.1909372E-04   8.3429091E+04   -1.7095745E+00
   4.2102914E-04   8.2774623E+04   -1.7090137E+00
   4.2297350E-04   8.2125501E+04   -1.7084533E+00
   4.2492683E-04   8.1481681E+04   -1.7078934E+00
   4.2688919E-04   8.0843116E+04   -1.7073339E+00
   4.2886061E-04   8.0209762E+04   -1.7067748E+00
   4.3084113E-04   7.9581575E+04   -1.7062162E+00
   4.3283080E-04   7.8958511E+04   -1.7056580E+00
   4.3482966E-04   7.8340526E+04   -1.7051003E+00
   4.3683775E-04   7.7727578E+04   -1.7045430E+00
   4.3885511E-04   7.7119624E+04   -1.7039862E+00
   4.4088179E-04   7.6516621E+04   -1.7034299E+00
   4.4291783E-04   7.5918527E+04   -1.7028740E+00
   4.4496327E-04   7.5325301E+04   -1.7023186E+00
   4.4701816E-04   7.4736902E+04   -1.7017638E+00
   4.4908253E-04   7.4153289E+04   -1.7012094E+00
   4.5115644E-04   7.3574420E+04   -1.7006555E+00
   4.5323993E-04   7.3000257E+04   -1.7001021E+00
   4.5533304E-04   7.2430760E+04   -1.6995492E+00
   4.5743582E-04   7.1865888E+04   -1.6989968E+00
   4.5954830E-04   7.1305602E+04   -1.6984450E+00
   4.6167054E-04   7.0749865E+04   -1.6978937E+00
   4.6380259E-04   7.0198637E+04   -1.6973428E+00
   4.6594448E-04   6.9651881E+04   -1.6967926E+00
   4.6809626E-04   6.9109558E+04   -1.6962429E+00
   4.7025797E-04   6.8571631E+04   -1.6956937E+00
   4.7242967E-04   6.8038064E+04   -1.6951450E+00
   4.7461140E-04   6.7508819E+04   -1.6945969E+00
   4.7680321E-04   6.6983859E+04   -1.6940494E+00
   4.7900514E-04   6.6463150E+04   -1.6935025E+00
   4.8121723E-04   6.5946654E+04   -1.6929561E+00
   4.8343954E-04   6.5434337E+04   -1.6924102E+00
   4.8567212E-04   6.4926163E+04   -1.6918650E+00
   4.8791500E-04   6.4422098E+04   -1.6913203E+00
   4.9016825E-04   6.3922106E+04   -1.6907763E+00
   4.9243189E-04   6.3426154E+04   -1.6902328E+00
   4.9470600E-04   6.2934207E+04   -1.6896899E+00
   4.9699060E-04   6.2446231E+04   -1.6891476E+00
   4.9928575E-04   6.1962195E+04   -1.6886060E+00
   5.0159151E-04   6.1482063E+04   -1.6880649E+00
   5.0390791E-04   6.1005804E+04   -1.6875244E+00
   5.0623501E-04   6.0533384E+04   -1.6869846E+00
   5.0857286E-04   6.0064773E+04   -1.6864454E+00
   5.1092150E-04   5.9599937E+04   -1.6859069E+00
   5.1328099E-04   5.9138845E+04   -1.6853689E+00
   5.1565137E-04   5.8681465E+04   -1.6848316E+00
   5.1803270E-04   5.8227768E+04   -1.6842950E+00
   5.2042503E-04   5.7777720E+04   -1.6837590E+00
   5.2282841E-04   5.7331293E+04   -1.6832236E+00
   5.2524289E-04   5.6888455E+04   -1.6826889E+00
   5.2766851E-04   5.6449177E+04   -1.6821549E+00
   5.3010534E-04   5.6013428E+04   -1.6816215E+00
   5.3255342E-04   5.5581180E+04   -1.6810888E+00
   5.3501281E-04   5.5152402E+04   -1.6805568E+00
   5.3748356E-04   5.4727066E+04   -1.6800255E+00
   5.3996571E-04   5.4305144E+04   -1.6794948E+00
   5.4245933E-04   5.3886606E+04   -1.6789648E+00
   5.4496446E-04   5.3471424E+04   -1.6784356E+00
   5.4748117E-04   5.3059570E+04   -1.6779070E+00
   5.5000949E-04   5.2651017E+04   -1.6773791E+00
   5.5254949E-04   5.2245736E+04   -1.6768519E+00
   5.5510123E-04   5.1843701E+04   -1.6763255E+00
   5.5766474E-04   5.1444885E+04   -1.6757997E+00
   5.6024010E-04   5.1049260E+04   -1.6752747E+00
   5.6282734E-04   5.0656799E+04   -1.6747504E+00
   5.6542654E-04   5.0267478E+04   -1.6742268E+00
   5.6803774E-04   4.9881268E+04   -1.6737039E+00
   5.7066099E-04   4.9498146E+04   -1.6731818E+00
   5.7329637E-04   4.9118083E+04   -1.6726604E+00
   5.7594391E-04   4.8741056E+04   -1.6721398E+00
   5.7860368E-04   4.8367040E+04   -1.6716199E+00
   5.8127573E-04   4.7996008E+04   -1.6711007E+00
   5.8396012E-04   4.7627936E+04   -1.6705823E+00
   5.8665691E-04   4.7262800E+04   -1.6700647E+00
   5.8936616E-04   4.6900574E+04   -1.6695478E+00
   5.9208791E-04   4.6541236E+04   -1.6690317E+00
   5.9482223E-04   4.6184760E+04   -1.6685163E+00
   5.9756919E-04   4.5831124E+04   -1.6680017E+00
   6.0032882E-04   4.5480303E+04   -1.6674879E+00
   6.0310120E-04   4.5132274E+04   -1.6669749E+00
   6.0588639E-04   4.4787014E+04   -1.6664627E+00
   6.0868443E-04   4.4444501E+04   -1.6659512E+00
   6.1149540E-04   4.4104710E+04   -1.6654406E+00
   6.1431935E-04   4.3767620E+04   -1.6649307E+00
   6.1715634E-04   4.3433209E+04   -1.6644216E+00
   6.2000644E-04   4.3101454E+04   -1.6639134E+00
   6.2286969E-04   4.2772333E+04   -1.6634059E+00
