#        a       HoverH0(a)       dlogHdloga_of_a(a)
   1.0000000E-04   1.1167348E+06   -1.8586646E+00
   1.0046181E-04   1.1072134E+06   -1.8581970E+00
   1.0092575E-04   1.0977755E+06   -1.8577285E+00
   1.0139184E-04   1.0884205E+06   -1.8572590E+00
   1.0186008E-04   1.0791475E+06   -1.8567886E+00
   1.0233048E-04   1.0699558E+06   -1.8563173E+00
   1.0280305E-04   1.0608447E+06   -1.8558451E+00
   1.0327781E-04   1.0518135E+06   -1.8553719E+00
   1.0375475E-04   1.0428615E+06   -1.8548978E+00
   1.0423390E-04   1.0339879E+06   -1.8544228E+00
   1.0471527E-04   1.0251920E+06   -1.8539469E+00
   1.0519885E-04   1.0164732E+06   -1.8534700E+00
   1.0568467E-04   1.0078308E+06   -1.8529923E+00
   1.0617274E-04   9.9926405E+05   -1.8525136E+00
   1.0666305E-04   9.9077232E+05   -1.8520341E+00
   1.0715563E-04   9.8235492E+05   -1.8515536E+00
   1.0765049E-04   9.7401119E+05   -1.8510722E+00
   1.0814763E-04   9.6574047E+05   -1.8505900E+00
   1.0864707E-04   9.5754212E+05   -1.8501068E+00
   1.0914881E-04   9.4941547E+05   -1.8496228E+00
   1.0965287E-04   9.4135990E+05   -1.8491378E+00
   1.1015926E-04   9.3337476E+05   -1.8486520E+00
   1.1066799E-04   9.2545943E+05   -1.8481653E+00
   1.1117906E-04   9.1761329E+05   -1.8476777E+00
   1.1169250E-04   9.0983571E+05   -1.8471892E+00
   1.1220831E-04   9.0212609E+05   -1.8466999E+00
   1.1272650E-04   8.9448381E+05   -1.8462097E+00
   1.1324708E-04   8.8690828E+05   -1.8457186E+00
   1.1377007E-04   8.7939890E+05   -1.8452266E+00
   1.1429547E-04   8.7195508E+05   -1.8447338E+00
   1.1482330E-04   8.6457623E+05   -1.8442401E+00
   1.1535356E-04   8.5726178E+05   -1.8437456E+00
   1.1588628E-04   8.5001115E+05   -1.8432502E+00
   1.1642145E-04   8.4282377E+05   -1.8427539E+00
   1.1695910E-04   8.3569907E+05   -1.8422568E+00
   1.1749923E-04   8.2863650E+05   -1.8417589E+00
   1.1804185E-04   8.2163551E+05   -1.8412601E+00
   1.1858698E-04   8.1469553E+05   -1.8407605E+00
   1.1913463E-04   8.0781604E+05   -1.8402600E+00
   1.1968481E-04   8.0099649E+05   -1.8397587E+00
   1.2023752E-04   7.9423634E+05   -1.8392566E+00
   1.2079279E-04   7.8753508E+05   -1.8387537E+00
   1.2135063E-04   7.8089216E+05   -1.8382499E+00
   1.2191104E-04   7.7430708E+05   -1.8377453E+00
   1.2247403E-04   7.6777932E+05   -1.8372399E+00
   1.2303963E-04   7.6130836E+05   -1.8367336E+00
   1.2360784E-04   7.5489370E+05   -1.8362266E+00
   1.2417868E-04   7.4853484E+05   -1.8357188E+00
   1.2475215E-04   7.4223128E+05   -1.8352101E+00
   1.2532826E-04   7.3598253E+05   -1.8347007E+00
   1.2590704E-04   7.2978810E+05   -1.8341904E+00
   1.2648850E-04   7.2364751E+05   -1.8336794E+00
   1.2707263E-04   7.1756028E+05   -1.8331676E+00
   1.2765947E-04   7.1152593E+05   -1.8326550E+00
   1.2824901E-04   7.0554400E+05   -1.8321416E+00
   1.2884128E-04   6.9961402E+05   -1.8316274E+00
   1.2943628E-04   6.9373552E+05   -1.8311125E+00
   1.3003403E-04   6.8790805E+05   -1.8305968E+00
   1.3063454E-04   6.8213115E+05   -1.8300803E+00
   1.3123783E-04   6.7640437E+05   -1.8295631E+00
   1.3184390E-04   6.7072728E+05   -1.8290451E+00
   1.3245277E-04   6.6509942E+05   -1.8285263E+00
   1.3306445E-04   6.5952036E+05   -1.8280068E+00
   1.3367895E-04   6.5398966E+05   -1.8274865E+00
   1.3429630E-04   6.4850690E+05   -1.8269655E+00
   1.3491649E-04   6.4307165E+05   -1.8264438E+00
   1.3553955E-04   6.3768349E+05   -1.8259213E+00
   1.3616548E-04   6.3234200E+05   -1.8253981E+00
   1.3679431E-04   6.2704676E+05   -1.8248742E+00
   1.3742604E-04   6.2179737E+05   -1.8243495E+00
   1.3806069E-04   6.1659341E+05   -1.8238241E+00
   1.3869827E-04   6.1143449E+05   -1.8232981E+00
   1.3933879E-04   6.0632021E+05   -1.8227713E+00
   1.3998227E-04   6.0125016E+05   -1.8222437E+00
   1.4062872E-04   5.9622395E+05   -1.8217155E+00
   1.4127816E-04   5.9124121E+05   -1.8211866E+00
   1.4193060E-04   5.8630153E+05   -1.8206570E+00
   1.4258605E-04   5.8140455E+05   -1.8201267E+00
   1.4324453E-04   5.7654987E+05   -1.8195957E+00
   1.4390605E-04   5.7173713E+05   -1.8190641E+00
   1.4457062E-04   5.6696596E+05   -1.8185317E+00
   1.4523826E-04   5.6223598E+05   -1.8179987E+00
   1.4590899E-04   5.5754683E+05   -1.8174650E+00
   1.4658281E-04   5.5289815E+05   -1.8169307E+00
   1.4725974E-04   5.4828959E+05   -1.8163957E+00
   1.4793981E-04   5.4372077E+05   -1.8158600E+00
   1.4862301E-04   5.3919136E+05   -1.8153237E+00
   1.4930936E-04   5.3470100E+05   -1.8147867E+00
   1.4999889E-04   5.3024935E+05   -1.8142491E+00
   1.5069160E-04   5.2583607E+05   -1.8137109E+00
   1.5138751E-04   5.2146081E+05   -1.8131720E+00
   1.5208663E-04   5.1712324E+05   -1.8126325E+00
   1.5278899E-04   5.1282302E+05   -1.8120924E+00
   1.5349458E-04   5.0855984E+05   -1.8115517E+00
   1.5420343E-04   5.0433335E+05   -1.8110103E+00
   1.5491556E-04   5.0014323E+05   -1.8104683E+00
   1.5563098E-04   4.9598917E+05   -1.8099258E+00
   1.5634970E-04   4.9187083E+05   -1.8093826E+00
   1.5707174E-04   4.8778792E+05   -1.8088388E+00
   1.5779711E-04   4.8374011E+05   -1.8082945E+00
   1.5852584E-04   4.7972709E+05   -1.8077495E+00
   1.5925792E-04   4.7574856E+05   -1.8072040E+00
   1.5999339E-04   4.7180421E+05   -1.8066579E+00
   1.6073226E-04   4.6789374E+05   -1.8061113E+00
   1.6147454E-04   4.6401685E+05   -1.8055640E+00
   1.6222024E-04   4.6017325E+05   -1.8050162E+00
   1.6296939E-04   4.5636263E+05   -1.8044679E+00
   1.6372200E-04   4.5258472E+05   -1.8039190E+00
   1.6447809E-04   4.4883921E+05   -1.8033695E+00
   1.6523767E-04   4.4512583E+05   -1.8028196E+00
   1.6600075E-04   4.4144429E+05   -1.8022690E+00
   1.6676736E-04   4.3779431E+05   -1.8017180E+00
   1.6753751E-04   4.3417562E+05   -1.8011664E+00
   1.6831122E-04   4.3058793E+05   -1.8006143E+00
   1.6908849E-04   4.2703097E+05   -1.8000617E+00
   1.6986936E-04   4.2350447E+05   -1.7995086E+00
   1.7065384E-04   4.2000817E+05   -1.7989549E+00
   1.7144193E-04   4.1654179E+05   -1.7984008E+00
   1.7223367E-04   4.1310508E+05   -1.7978462E+00
   1.7302906E-04   4.0969777E+05   -1.7972911E+00
   1.7382813E-04   4.0631960E+05   -1.7967355E+00
   1.7463089E-04   4.0297032E+05   -1.7961794E+00
   1.7543735E-04   3.9964967E+05   -1.7956228E+00
   1.7624754E-04   3.9635741E+05   -1.7950658E+00
   1.7706147E-04   3.9309327E+05   -1.7945083E+00
   1.7787916E-04   3.8985702E+05   -1.7939504E+00
   1.7870062E-04   3.8664840E+05   -1.7933920E+00
   1.7952588E-04   3.8346718E+05   -1.7928332E+00
   1.8035495E-04   3.8031311E+05   -1.7922739E+00
   1.8118785E-04   3.7718596E+05   -1.7917142E+00
   1.8202459E-04   3.7408548E+05   -1.7911540E+00
   1.8286520E-04   3.7101145E+05   -1.7905934E+00
   1.8370969E-04   3.6796363E+05   -1.7900324E+00
   1.8455808E-04   3.6494180E+05   -1.7894710E+00
   1.8541039E-04   3.6194571E+05   -1.7889092E+00
   1.8626663E-04   3.5897515E+05   -1.7883470E+00
   1.8712683E-04   3.5602990E+05   -1.7877844E+00
   1.8799100E-04   3.5310972E+05   -1.7872214E+00
   1.8885917E-04   3.5021441E+05   -1.7866580E+00
   1.8973134E-04   3.4734373E+05   -1.7860942E+00
   1.9060754E-04   3.4449749E+05   -1.7855300E+00
   1.9148778E-04   3.4167545E+05   -1.7849655E+00
   1.9237209E-04   3.3887741E+05   -1.7844006E+00
   1.9326049E-04   3.3610317E+05   -1.7838354E+00
   1.9415299E-04   3.3335250E+05   -1.7832698E+00
   1.9504960E-04   3.3062520E+05   -1.7827038E+00
   1.9595036E-04   3.2792108E+05   -1.7821376E+00
   1.9685528E-04   3.2523992E+05   -1.7815709E+00
   1.9776438E-04   3.2258152E+05   -1.7810040E+00
   1.9867768E-04   3.1994569E+05   -1.7804367E+00
   1.9959519E-04   3.1733222E+05   -1.7798691E+00
   2.0051694E-04   3.1474093E+05   -1.7793012E+00
   2.0144295E-04   3.1217161E+05   -1.7787330E+00
   2.0237324E-04   3.0962408E+05   -1.7781645E+00
   2.0330782E-04   3.0709815E+05   -1.7775957E+00
   2.0424671E-04   3.0459361E+05   -1.7770266E+00
   2.0518995E-04   3.0211030E+05   -1.7764572E+00
   2.0613754E-04   2.9964802E+05   -1.7758875E+00
   2.0708950E-04   2.9720658E+05   -1.7753176E+00
   2.0804586E-04   2.9478582E+05   -1.7747474E+00
   2.0900664E-04   2.9238554E+05   -1.7741769E+00
   2.0997185E-04   2.9000556E+05   -1.7736062E+00
   2.1094152E-04   2.8764572E+05   -1.7730352E+00
   2.1191567E-04   2.8530583E+05   -1.7724640E+00
   2.1289432E-04   2.8298571E+05   -1.7718926E+00
   2.1387749E-04   2.8068521E+05   -1.7713209E+00
   2.1486520E-04   2.7840414E+05   -1.7707490E+00
   2.1585747E-04   2.7614233E+05   -1.7701769E+00
   2.1685432E-04   2.7389962E+05   -1.7696045E+00
   2.1785578E-04   2.7167585E+05   -1.7690320E+00
   2.1886186E-04   2.6947083E+05   -1.7684593E+00
   2.1987259E-04   2.6728442E+05   -1.7678863E+00
   2.2088798E-04   2.6511645E+05   -1.7673132E+00
   2.2190807E-04   2.6296676E+05   -1.7667399E+00
   2.2293286E-04   2.6083519E+05   -1.7661664E+00
   2.2396239E-04   2.5872159E+05   -1.7655927E+00
   2.2499667E-04   2.5662578E+05   -1.7650189E+00
   2.2603573E-04   2.5454763E+05   -1.7644449E+00
   2.2707958E-04   2.5248697E+05   -1.7638708E+00
   2.2812826E-04   2.5044366E+05   -1.7632965E+00
   2.2918178E-04   2.4841754E+05   -1.7627221E+00
   2.3024017E-04   2.4640847E+05   -1.7621475E+00
   2.3130344E-04   2.4441629E+05   -1.7615728E+00
   2.3237162E-04   2.4244086E+05   -1.7609980E+00
   2.3344474E-04   2.4048203E+05   -1.7604231E+00
   2.3452281E-04   2.3853966E+05   -1.7598481E+00
   2.3560586E-04   2.3661361E+05   -1.7592729E+00
   2.3669392E-04   2.3470373E+05   -1.7586977E+00
   2.3778699E-04   2.3280988E+05   -1.7581223E+00
   2.3888512E-04   2.3093193E+05   -1.7575469E+00
   2.3998831E-04   2.2906973E+05   -1.7569714E+00
   2.4109661E-04   2.2722315E+05   -1.7563958E+00
   2.4221001E-04   2.2539206E+05   -1.7558202E+00
   2.4332857E-04   2.2357631E+05   -1.7552445E+00
   2.4445228E-04   2.2177578E+05   -1.7546687E+00
   2.4558119E-04   2.1999033E+05   -1.7540929E+00
   2.4671531E-04   2.1821984E+05   -1.7535171E+00
   2.4785467E-04   2.1646417E+05   -1.7529412E+00
   2.4899928E-04   2.1472319E+05   -1.7523652E+00
   2.5014919E-04   2.1299679E+05   -1.7517893E+00
   2.5130440E-04   2.1128482E+05   -1.7512133E+00
   2.5246495E-04   2.0958717E+05   -1.7506373E+00
   2.5363086E-04   2.0790371E+05   -1.7500614E+00
   2.5480216E-04   2.0623433E+05   -1.7494854E+00
   2.5597886E-04   2.0457888E+05   -1.7489094E+00
   2.5716100E-04   2.0293727E+05   -1.7483334E+00
   2.5834859E-04   2.0130936E+05   -1.7477574E+00
   2.5954168E-04   1.9969504E+05   -1.7471815E+00
   2.6074027E-04   1.9809420E+05   -1.7466056E+00
   2.6194439E-04   1.9650670E+05   -1.7460297E+00
   2.6315408E-04   1.9493245E+05   -1.7454539E+00
   2.6436935E-04   1.9337132E+05   -1.7448781E+00
   2.6559024E-04   1.9182320E+05   -1.7443024E+00
   2.6681676E-04   1.9028798E+05   -1.7437267E+00
   2.6804895E-04   1.8876555E+05   -1.7431511E+00
   2.6928683E-04   1.8725580E+05   -1.7425756E+00
   2.7053042E-04   1.8575861E+05   -1.7420002E+00
   2.7177976E-04   1.8427388E+05   -1.7414248E+00
   2.7303487E-04   1.8280150E+05   -1.7408495E+00
   2.7429577E-04   1.8134137E+05   -1.7402743E+00
   2.7556250E-04   1.7989338E+05   -1.7396993E+00
   2.7683507E-04   1.7845742E+05   -1.7391243E+00
   2.7811353E-04   1.7703340E+05   -1.7385494E+00
   2.7939788E-04   1.7562120E+05   -1.7379747E+00
   2.8068817E-04   1.7422073E+05   -1.7374001E+00
   2.8198442E-04   1.7283189E+05   -1.7368256E+00
   2.8328665E-04   1.7145457E+05   -1.7362513E+00
   2.8459490E-04   1.7008867E+05   -1.7356771E+00
   2.8590919E-04   1.6873411E+05   -1.7351031E+00
   2.8722955E-04   1.6739077E+05   -1.7345292E+00
   2.8855600E-04   1.6605857E+05   -1.7339555E+00
   2.8988859E-04   1.6473740E+05   -1.7333819E+00
   2.9122732E-04   1.6342718E+05   -1.7328086E+00
   2.9257224E-04   1.6212781E+05   -1.7322354E+00
   2.9392337E-04   1.6083919E+05   -1.7316624E+00
   2.9528074E-04   1.5956124E+05   -1.7310896E+00
   2.9664438E-04   1.5829386E+05   -1.7305170E+00
   2.9801431E-04   1.5703695E+05   -1.7299446E+00
   2.9939057E-04   1.5579045E+05   -1.7293724E+00
   3.0077319E-04   1.5455424E+05   -1.7288004E+00
   3.0216219E-04   1.5332824E+05   -1.7282286E+00
   3.0355761E-04   1.5211237E+05   -1.7276571E+00
   3.0495947E-04   1.5090654E+05   -1.7270858E+00
   3.0636780E-04   1.4971067E+05   -1.7265148E+00
   3.0778264E-04   1.4852466E+05   -1.7259440E+00
   3.0920401E-04   1.4734843E+05   -1.7253734E+00
   3.1063195E-04   1.4618190E+05   -1.7248031E+00
   3.1206648E-04   1.4502499E+05   -1.7242331E+00
   3.1350764E-04   1.4387761E+05   -1.7236633E+00
   3.1495545E-04   1.4273969E+05   -1.7230938E+00
   3.1640994E-04   1.4161114E+05   -1.7225246E+00
   3.1787116E-04   1.4049187E+05   -1.7219557E+00
   3.1933912E-04   1.3938182E+05   -1.7213871E+00
   3.2081386E-04   1.3828090E+05   -1.7208188E+00
   3.2229541E-04   1.3718904E+05   -1.7202508E+00
   3.2378381E-04   1.3610615E+05   -1.7196831E+00
   3.2527908E-04   1.3503217E+05   -1.7191157E+00
   3.2678125E-04   1.3396701E+05   -1.7185486E+00
   3.2829036E-04   1.3291060E+05   -1.7179819E+00
   3.2980644E-04   1.3186286E+05   -1.7174155E+00
   3.3132952E-04   1.3082373E+05   -1.7168494E+00
   3.3285963E-04   1.2979312E+05   -1.7162837E+00
   3.3439681E-04   1.2877096E+05   -1.7157183E+00
   3.3594109E-04   1.2775719E+05   -1.7151533E+00
   3.3749250E-04   1.2675173E+05   -1.7145887E+00
   3.3905108E-04   1.2575451E+05   -1.7140244E+00
   3.4061685E-04   1.2476546E+05   -1.7134605E+00
   3.4218986E-04   1.2378451E+05   -1.7128969E+00
   3.4377013E-04   1.2281159E+05   -1.7123338E+00
   3.4535769E-04   1.2184663E+05   -1.7117710E+00
   3.4695259E-04   1.2088957E+05   -1.7112087E+00
   3.4855485E-04   1.1994034E+05   -1.7106467E+00
   3.5016452E-04   1.1899887E+05   -1.7100852E+00
   3.5178161E-04   1.1806509E+05   -1.7095240E+00
   3.5340618E-04   1.1713895E+05   -1.7089633E+00
   3.5503824E-04   1.1622037E+05   -1.7084030E+00
   3.5667785E-04   1.1530929E+05   -1.7078432E+00
   3.5832502E-04   1.1440564E+05   -1.7072837E+00
   3.5997981E-04   1.1350938E+05   -1.7067247E+00
   3.6164223E-04   1.1262042E+05   -1.7061662E+00
   3.6331233E-04   1.1173871E+05   -1.7056081E+00
   3.6499015E-04   1.1086419E+05   -1.7050504E+00
   3.6667571E-04   1.0999680E+05   -1.7044933E+00
   3.6836906E-04   1.0913647E+05   -1.7039365E+00
   3.7007022E-04   1.0828315E+05   -1.7033803E+00
   3.7177925E-04   1.0743678E+05   -1.7028245E+00
   3.7349616E-04   1.0659729E+05   -1.7022692E+00
   3.7522101E-04   1.0576464E+05   -1.7017144E+00
   3.7695382E-04   1.0493876E+05   -1.7011601E+00
   3.7869463E-04   1.0411959E+05   -1.7006063E+00
   3.8044348E-04   1.0330708E+05   -1.7000530E+00
   3.8220041E-04   1.0250117E+05   -1.6995002E+00
   3.8396545E-04   1.0170181E+05   -1.6989480E+00
   3.8573864E-04   1.0090894E+05   -1.6983962E+00
   3.8752002E-04   1.0012250E+05   -1.6978450E+00
   3.8930963E-04   9.9342451E+04   -1.6972942E+00
   3.9110750E-04   9.8568724E+04   -1.6967441E+00
   3.9291368E-04   9.7801271E+04   -1.6961944E+00
   3.9472820E-04   9.7040039E+04   -1.6956453E+00
   3.9655109E-04   9.6284975E+04   -1.6950968E+00
   3.9838241E-04   9.5536028E+04   -1.6945488E+00
   4.0022218E-04   9.4793145E+04   -1.6940014E+00
   4.0207045E-04   9.4056277E+04   -1.6934545E+00
   4.0392725E-04   9.3325372E+04   -1.6929082E+00
   4.0579263E-04   9.2600379E+04   -1.6923625E+00
   4.0766662E-04   9.1881249E+04   -1.6918174E+00
   4.0954927E-04   9.1167933E+04   -1.6912728E+00
   4.1144061E-04   9.0460382E+04   -1.6907288E+00
   4.1334068E-04   8.9758547E+04   -1.6901854E+00
   4.1524953E-04   8.9062379E+04   -1.6896427E+00
   4.1716720E-04   8.8371832E+04   -1.6891005E+00
   4.1909372E-04   8.7686858E+04   -1.6885589E+00
   4.2102914E-04   8.7007411E+04   -1.6880179E+00
   4.2297350E-04   8.6333443E+04   -1.6874776E+00
   4.2492683E-04   8.5664909E+04   -1.6869379E+00
   4.2688919E-04   8.5001763E+04   -1.6863988E+00
   4.2886061E-04   8.4343960E+04   -1.6858603E+00
   4.3084113E-04   8.3691455E+04   -1.6853225E+00
   4.3283080E-04   8.3044204E+04   -1.6847853E+00
   4.3482966E-04   8.2402162E+04   -1.6842488E+00
   4.3683775E-04   8.1765286E+04   -1.6837129E+00
   4.3885511E-04   8.1133532E+04   -1.6831776E+00
   4.4088179E-04   8.0506859E+04   -1.6826430E+00
   4.4291783E-04   7.9885222E+04   -1.6821091E+00
   4.4496327E-04   7.9268580E+04   -1.6815759E+00
   4.4701816E-04   7.8656891E+04   -1.6810433E+00
   4.4908253E-04   7.8050114E+04   -1.6805114E+00
   4.5115644E-04   7.7448207E+04   -1.6799802E+00
   4.5323993E-04   7.6851130E+04   -1.6794496E+00
   4.5533304E-04   7.6258842E+04   -1.6789198E+00
   4.5743582E-04   7.5671304E+04   -1.6783906E+00
   4.5954830E-04   7.5088476E+04   -1.6778621E+00
   4.6167054E-04   7.4510317E+04   -1.6773344E+00
   4.6380259E-04   7.3936790E+04   -1.6768073E+00
   4.6594448E-04   7.3367856E+04   -1.6762810E+00
   4.6809626E-04   7.2803476E+04   -1.6757553E+00
   4.7025797E-04   7.2243612E+04   -1.6752304E+00
   4.7242967E-04   7.1688227E+04   -1.6747062E+00
   4.7461140E-04   7.1137283E+04   -1.6741827E+00
   4.7680321E-04   7.0590744E+04   -1.6736600E+00
   4.7900514E-04   7.0048572E+04   -1.6731380E+00
   4.8121723E-04   6.9510731E+04   -1.6726167E+00
   4.8343954E-04   6.8977186E+04   -1.6720962E+00
   4.8567212E-04   6.8447900E+04   -1.6715764E+00
   4.8791500E-04   6.7922838E+04   -1.6710574E+00
   4.9016825E-04   6.7401964E+04   -1.6705391E+00
   4.9243189E-04   6.6885245E+04   -1.6700216E+00
   4.9470600E-04   6.6372645E+04   -1.6695048E+00
   4.9699060E-04   6.5864130E+04   -1.6689889E+00
   4.9928575E-04   6.5359667E+04   -1.6684736E+00
   5.0159151E-04   6.4859221E+04   -1.6679592E+00
   5.0390791E-04   6.4362759E+04   -1.6674455E+00
   5.0623501E-04   6.3870249E+04   -1.6669326E+00
   5.0857286E-04   6.3381657E+04   -1.6664205E+00
   5.1092150E-04   6.2896951E+04   -1.6659092E+00
   5.1328099E-04   6.2416098E+04   -1.6653987E+00
   5.1565137E-04   6.1939068E+04   -1.6648889E+00
   5.1803270E-04   6.1465827E+04   -1.6643800E+00
   5.2042503E-04   6.0996345E+04   -1.6638718E+00
   5.2282841E-04   6.0530591E+04   -1.6633645E+00
   5.2524289E-04   6.0068533E+04   -1.6628580E+00
   5.2766851E-04   5.9610142E+04   -1.6623523E+00
   5.3010534E-04   5.9155386E+04   -1.6618474E+00
   5.3255342E-04   5.8704236E+04   -1.6613433E+00
   5.3501281E-04   5.8256662E+04   -1.6608400E+00
   5.3748356E-04   5.7812634E+04   -1.6603376E+00
   5.3996571E-04   5.7372123E+04   -1.6598360E+00
   5.4245933E-04   5.6935100E+04   -1.6593352E+00
   5.4496446E-04   5.6501536E+04   -1.6588353E+00
   5.4748117E-04   5.6071404E+04   -1.6583362E+00
   5.5000949E-04   5.5644673E+04   -1.6578380E+00
   5.5254949E-04   5.5221317E+04   -1.6573405E+00
   5.5510123E-04   5.4801307E+04   -1.6568440E+00
   5.5766474E-04   5.4384616E+04   -1.6563483E+00
   5.6024010E-04   5.3971217E+04   -1.6558534E+00
   5.6282734E-04   5.3561082E+04   -1.6553594E+00
   5.6542654E-04   5.3154184E+04   -1.6548663E+00
   5.6803774E-04   5.2750498E+04   -1.6543740E+00
   5.7066099E-04   5.2349996E+04   -1.6538826E+00
   5.7329637E-04   5.1952652E+04   -1.6533920E+00
   5.7594391E-04   5.1558440E+04   -1.6529024E+00
   5.7860368E-04   5.1167336E+04   -1.6524136E+00
   5.8127573E-04   5.0779312E+04   -1.6519256E+00
   5.8396012E-04   5.0394344E+04   -1.6514386E+00
   5.8665691E-04   5.0012407E+04   -1.6509524E+00
   5.8936616E-04   4.9633475E+04   -1.6504672E+00
   5.9208791E-04   4.9257524E+04   -1.6499828E+00
   5.9482223E-04   4.8884531E+04   -1.6494993E+00
   5.9756919E-04   4.8514469E+04   -1.6490167E+00
   6.0032882E-04   4.8147316E+04   -1.6485350E+00
   6.0310120E-04   4.7783047E+04   -1.6480542E+00
   6.0588639E-04   4.7421640E+04   -1.6475743E+00
   6.0868443E-04   4.7063069E+04   -1.6470953E+00
   6.1149540E-04   4.6707313E+04   -1.6466172E+00
   6.1431935E-04   4.6354349E+04   -1.6461400E+00
   6.1715634E-04   4.6004153E+04   -1.6456637E+00
   6.2000644E-04   4.5656702E+04   -1.6451884E+00
   6.2286969E-04   4.5311975E+04   -1.6447139E+00
