#        a       HoverH0(a)       dlogHdloga_of_a(a)
   1.0000000E-04   1.1677981E+06   -1.8583501E+00
   1.0046181E-04   1.1578430E+06   -1.8578819E+00
   1.0092575E-04   1.1479753E+06   -1.8574127E+00
   1.0139184E-04   1.1381941E+06   -1.8569426E+00
   1.0186008E-04   1.1284987E+06   -1.8564716E+00
   1.0233048E-04   1.1188883E+06   -1.8559996E+00
   1.0280305E-04   1.1093621E+06   -1.8555268E+00
   1.0327781E-04   1.0999195E+06   -1.8550530E+00
   1.0375475E-04   1.0905596E+06   -1.8545783E+00
   1.0423390E-04   1.0812818E+06   -1.8541026E+00
   1.0471527E-04   1.0720852E+06   -1.8536261E+00
   1.0519885E-04   1.0629692E+06   -1.8531487E+00
   1.0568467E-04   1.0539330E+06   -1.8526703E+00
   1.0617274E-04   1.0449759E+06   -1.8521910E+00
   1.0666305E-04   1.0360972E+06   -1.8517109E+00
   1.0715563E-04   1.0272963E+06   -1.8512298E+00
   1.0765049E-04   1.0185724E+06   -1.8507478E+00
   1.0814763E-04   1.0099248E+06   -1.8502650E+00
   1.0864707E-04   1.0013528E+06   -1.8497812E+00
   1.0914881E-04   9.9285587E+05   -1.8492966E+00
   1.0965287E-04   9.8443320E+05   -1.8488110E+00
   1.1015926E-04   9.7608416E+05   -1.8483246E+00
   1.1066799E-04   9.6780810E+05   -1.8478373E+00
   1.1117906E-04   9.5960438E+05   -1.8473491E+00
   1.1169250E-04   9.5147233E+05   -1.8468601E+00
   1.1220831E-04   9.4341132E+05   -1.8463701E+00
   1.1272650E-04   9.3542072E+05   -1.8458793E+00
   1.1324708E-04   9.2749990E+05   -1.8453877E+00
   1.1377007E-04   9.1964824E+05   -1.8448951E+00
   1.1429547E-04   9.1186512E+05   -1.8444017E+00
   1.1482330E-04   9.0414992E+05   -1.8439075E+00
   1.1535356E-04   8.9650204E+05   -1.8434123E+00
   1.1588628E-04   8.8892089E+05   -1.8429164E+00
   1.1642145E-04   8.8140586E+05   -1.8424196E+00
   1.1695910E-04   8.7395636E+05   -1.8419219E+00
   1.1749923E-04   8.6657181E+05   -1.8414234E+00
   1.1804185E-04   8.5925164E+05   -1.8409240E+00
   1.1858698E-04   8.5199526E+05   -1.8404238E+00
   1.1913463E-04   8.4480211E+05   -1.8399228E+00
   1.1968481E-04   8.3767163E+05   -1.8394210E+00
   1.2023752E-04   8.3060325E+05   -1.8389183E+00
   1.2079279E-04   8.2359643E+05   -1.8384148E+00
   1.2135063E-04   8.1665061E+05   -1.8379105E+00
   1.2191104E-04   8.0976525E+05   -1.8374053E+00
   1.2247403E-04   8.0293982E+05   -1.8368993E+00
   1.2303963E-04   7.9617377E+05   -1.8363926E+00
   1.2360784E-04   7.8946658E+05   -1.8358850E+00
   1.2417868E-04   7.8281773E+05   -1.8353766E+00
   1.2475215E-04   7.7622669E+05   -1.8348674E+00
   1.2532826E-04   7.6969295E+05   -1.8343575E+00
   1.2590704E-04   7.6321601E+05   -1.8338467E+00
   1.2648850E-04   7.5679535E+05   -1.8333351E+00
   1.2707263E-04   7.5043047E+05   -1.8328228E+00
   1.2765947E-04   7.4412089E+05   -1.8323096E+00
   1.2824901E-04   7.3786610E+05   -1.8317957E+00
   1.2884128E-04   7.3166562E+05   -1.8312810E+00
   1.2943628E-04   7.2551897E+05   -1.8307656E+00
   1.3003403E-04   7.1942566E+05   -1.8302493E+00
   1.3063454E-04   7.1338523E+05   -1.8297324E+00
   1.3123783E-04   7.0739720E+05   -1.8292146E+00
   1.3184390E-04   7.0146110E+05   -1.8286961E+00
   1.3245277E-04   6.9557649E+05   -1.8281768E+00
   1.3306445E-04   6.8974288E+05   -1.8276568E+00
   1.3367895E-04   6.8395985E+05   -1.8271361E+00
   1.3429630E-04   6.7822693E+05   -1.8266146E+00
   1.3491649E-04   6.7254368E+05   -1.8260923E+00
   1.3553955E-04   6.6690965E+05   -1.8255694E+00
   1.3616548E-04   6.6132443E+05   -1.8250457E+00
   1.3679431E-04   6.5578756E+05   -1.8245212E+00
   1.3742604E-04   6.5029862E+05   -1.8239961E+00
   1.3806069E-04   6.4485718E+05   -1.8234702E+00
   1.3869827E-04   6.3946282E+05   -1.8229437E+00
   1.3933879E-04   6.3411513E+05   -1.8224164E+00
   1.3998227E-04   6.2881369E+05   -1.8218884E+00
   1.4062872E-04   6.2355809E+05   -1.8213597E+00
   1.4127816E-04   6.1834792E+05   -1.8208304E+00
   1.4193060E-04   6.1318279E+05   -1.8203003E+00
   1.4258605E-04   6.0806228E+05   -1.8197695E+00
   1.4324453E-04   6.0298601E+05   -1.8192381E+00
   1.4390605E-04   5.9795358E+05   -1.8187060E+00
   1.4457062E-04   5.9296461E+05   -1.8181732E+00
   1.4523826E-04   5.8801870E+05   -1.8176397E+00
   1.4590899E-04   5.8311549E+05   -1.8171056E+00
   1.4658281E-04   5.7825458E+05   -1.8165708E+00
   1.4725974E-04   5.7343561E+05   -1.8160353E+00
   1.4793981E-04   5.6865820E+05   -1.8154992E+00
   1.4862301E-04   5.6392199E+05   -1.8149625E+00
   1.4930936E-04   5.5922661E+05   -1.8144251E+00
   1.4999889E-04   5.5457170E+05   -1.8138871E+00
   1.5069160E-04   5.4995689E+05   -1.8133484E+00
   1.5138751E-04   5.4538185E+05   -1.8128091E+00
   1.5208663E-04   5.4084620E+05   -1.8122692E+00
   1.5278899E-04   5.3634962E+05   -1.8117286E+00
   1.5349458E-04   5.3189174E+05   -1.8111875E+00
   1.5420343E-04   5.2747223E+05   -1.8106457E+00
   1.5491556E-04   5.2309075E+05   -1.8101033E+00
   1.5563098E-04   5.1874696E+05   -1.8095604E+00
   1.5634970E-04   5.1444053E+05   -1.8090168E+00
   1.5707174E-04   5.1017113E+05   -1.8084726E+00
   1.5779711E-04   5.0593843E+05   -1.8079279E+00
   1.5852584E-04   5.0174211E+05   -1.8073826E+00
   1.5925792E-04   4.9758184E+05   -1.8068367E+00
   1.5999339E-04   4.9345731E+05   -1.8062902E+00
   1.6073226E-04   4.8936821E+05   -1.8057431E+00
   1.6147454E-04   4.8531421E+05   -1.8051955E+00
   1.6222024E-04   4.8129501E+05   -1.8046474E+00
   1.6296939E-04   4.7731030E+05   -1.8040986E+00
   1.6372200E-04   4.7335978E+05   -1.8035494E+00
   1.6447809E-04   4.6944314E+05   -1.8029996E+00
   1.6523767E-04   4.6556009E+05   -1.8024492E+00
   1.6600075E-04   4.6171034E+05   -1.8018983E+00
   1.6676736E-04   4.5789357E+05   -1.8013469E+00
   1.6753751E-04   4.5410952E+05   -1.8007950E+00
   1.6831122E-04   4.5035788E+05   -1.8002425E+00
   1.6908849E-04   4.4663837E+05   -1.7996896E+00
   1.6986936E-04   4.4295071E+05   -1.7991361E+00
   1.7065384E-04   4.3929462E+05   -1.7985822E+00
   1.7144193E-04   4.3566982E+05   -1.7980277E+00
   1.7223367E-04   4.3207603E+05   -1.7974727E+00
   1.7302906E-04   4.2851299E+05   -1.7969173E+00
   1.7382813E-04   4.2498041E+05   -1.7963614E+00
   1.7463089E-04   4.2147804E+05   -1.7958050E+00
   1.7543735E-04   4.1800560E+05   -1.7952481E+00
   1.7624754E-04   4.1456284E+05   -1.7946908E+00
   1.7706147E-04   4.1114948E+05   -1.7941330E+00
   1.7787916E-04   4.0776528E+05   -1.7935747E+00
   1.7870062E-04   4.0440998E+05   -1.7930160E+00
   1.7952588E-04   4.0108332E+05   -1.7924569E+00
   1.8035495E-04   3.9778504E+05   -1.7918973E+00
   1.8118785E-04   3.9451491E+05   -1.7913373E+00
   1.8202459E-04   3.9127267E+05   -1.7907769E+00
   1.8286520E-04   3.8805808E+05   -1.7902160E+00
   1.8370969E-04   3.8487089E+05   -1.7896548E+00
   1.8455808E-04   3.8171087E+05   -1.7890931E+00
   1.8541039E-04   3.7857778E+05   -1.7885310E+00
   1.8626663E-04   3.7547137E+05   -1.7879685E+00
   1.8712683E-04   3.7239142E+05   -1.7874056E+00
   1.8799100E-04   3.6933769E+05   -1.7868424E+00
   1.8885917E-04   3.6630996E+05   -1.7862787E+00
   1.8973134E-04   3.6330798E+05   -1.7857147E+00
   1.9060754E-04   3.6033155E+05   -1.7851503E+00
   1.9148778E-04   3.5738043E+05   -1.7845855E+00
   1.9237209E-04   3.5445440E+05   -1.7840204E+00
   1.9326049E-04   3.5155325E+05   -1.7834549E+00
   1.9415299E-04   3.4867675E+05   -1.7828891E+00
   1.9504960E-04   3.4582469E+05   -1.7823229E+00
   1.9595036E-04   3.4299685E+05   -1.7817564E+00
   1.9685528E-04   3.4019302E+05   -1.7811895E+00
   1.9776438E-04   3.3741300E+05   -1.7806223E+00
   1.9867768E-04   3.3465657E+05   -1.7800549E+00
   1.9959519E-04   3.3192352E+05   -1.7794870E+00
   2.0051694E-04   3.2921366E+05   -1.7789189E+00
   2.0144295E-04   3.2652677E+05   -1.7783505E+00
   2.0237324E-04   3.2386266E+05   -1.7777818E+00
   2.0330782E-04   3.2122113E+05   -1.7772128E+00
   2.0424671E-04   3.1860198E+05   -1.7766435E+00
   2.0518995E-04   3.1600502E+05   -1.7760739E+00
   2.0613754E-04   3.1343004E+05   -1.7755041E+00
   2.0708950E-04   3.1087687E+05   -1.7749340E+00
   2.0804586E-04   3.0834530E+05   -1.7743636E+00
   2.0900664E-04   3.0583516E+05   -1.7737929E+00
   2.0997185E-04   3.0334624E+05   -1.7732221E+00
   2.1094152E-04   3.0087837E+05   -1.7726509E+00
   2.1191567E-04   2.9843137E+05   -1.7720796E+00
   2.1289432E-04   2.9600504E+05   -1.7715080E+00
   2.1387749E-04   2.9359922E+05   -1.7709361E+00
   2.1486520E-04   2.9121371E+05   -1.7703641E+00
   2.1585747E-04   2.8884835E+05   -1.7697918E+00
   2.1685432E-04   2.8650296E+05   -1.7692193E+00
   2.1785578E-04   2.8417736E+05   -1.7686467E+00
   2.1886186E-04   2.8187138E+05   -1.7680738E+00
   2.1987259E-04   2.7958485E+05   -1.7675007E+00
   2.2088798E-04   2.7731761E+05   -1.7669275E+00
   2.2190807E-04   2.7506947E+05   -1.7663541E+00
   2.2293286E-04   2.7284029E+05   -1.7657805E+00
   2.2396239E-04   2.7062988E+05   -1.7652067E+00
   2.2499667E-04   2.6843809E+05   -1.7646328E+00
   2.2603573E-04   2.6626475E+05   -1.7640587E+00
   2.2707958E-04   2.6410971E+05   -1.7634844E+00
   2.2812826E-04   2.6197281E+05   -1.7629101E+00
   2.2918178E-04   2.5985388E+05   -1.7623355E+00
   2.3024017E-04   2.5775277E+05   -1.7617609E+00
   2.3130344E-04   2.5566933E+05   -1.7611861E+00
   2.3237162E-04   2.5360340E+05   -1.7606112E+00
   2.3344474E-04   2.5155483E+05   -1.7600362E+00
   2.3452281E-04   2.4952347E+05   -1.7594611E+00
   2.3560586E-04   2.4750918E+05   -1.7588859E+00
   2.3669392E-04   2.4551179E+05   -1.7583106E+00
   2.3778699E-04   2.4353116E+05   -1.7577352E+00
   2.3888512E-04   2.4156716E+05   -1.7571597E+00
   2.3998831E-04   2.3961963E+05   -1.7565842E+00
   2.4109661E-04   2.3768843E+05   -1.7560086E+00
   2.4221001E-04   2.3577342E+05   -1.7554329E+00
   2.4332857E-04   2.3387446E+05   -1.7548571E+00
   2.4445228E-04   2.3199141E+05   -1.7542813E+00
   2.4558119E-04   2.3012413E+05   -1.7537055E+00
   2.4671531E-04   2.2827249E+05   -1.7531296E+00
   2.4785467E-04   2.2643634E+05   -1.7525537E+00
   2.4899928E-04   2.2461556E+05   -1.7519778E+00
   2.5014919E-04   2.2281002E+05   -1.7514018E+00
   2.5130440E-04   2.2101957E+05   -1.7508258E+00
   2.5246495E-04   2.1924410E+05   -1.7502498E+00
   2.5363086E-04   2.1748346E+05   -1.7496738E+00
   2.5480216E-04   2.1573754E+05   -1.7490978E+00
   2.5597886E-04   2.1400619E+05   -1.7485219E+00
   2.5716100E-04   2.1228931E+05   -1.7479459E+00
   2.5834859E-04   2.1058676E+05   -1.7473700E+00
   2.5954168E-04   2.0889842E+05   -1.7467940E+00
   2.6074027E-04   2.0722416E+05   -1.7462182E+00
   2.6194439E-04   2.0556387E+05   -1.7456423E+00
   2.6315408E-04   2.0391742E+05   -1.7450665E+00
   2.6436935E-04   2.0228470E+05   -1.7444908E+00
   2.6559024E-04   2.0066558E+05   -1.7439151E+00
   2.6681676E-04   1.9905994E+05   -1.7433395E+00
   2.6804895E-04   1.9746768E+05   -1.7427639E+00
   2.6928683E-04   1.9588868E+05   -1.7421884E+00
   2.7053042E-04   1.9432281E+05   -1.7416131E+00
   2.7177976E-04   1.9276998E+05   -1.7410378E+00
   2.7303487E-04   1.9123006E+05   -1.7404625E+00
   2.7429577E-04   1.8970294E+05   -1.7398874E+00
   2.7556250E-04   1.8818852E+05   -1.7393124E+00
   2.7683507E-04   1.8668668E+05   -1.7387375E+00
   2.7811353E-04   1.8519732E+05   -1.7381628E+00
   2.7939788E-04   1.8372032E+05   -1.7375881E+00
   2.8068817E-04   1.8225559E+05   -1.7370136E+00
   2.8198442E-04   1.8080302E+05   -1.7364392E+00
   2.8328665E-04   1.7936249E+05   -1.7358650E+00
   2.8459490E-04   1.7793392E+05   -1.7352909E+00
   2.8590919E-04   1.7651719E+05   -1.7347170E+00
   2.8722955E-04   1.7511220E+05   -1.7341432E+00
   2.8855600E-04   1.7371885E+05   -1.7335696E+00
   2.8988859E-04   1.7233705E+05   -1.7329962E+00
   2.9122732E-04   1.7096669E+05   -1.7324229E+00
   2.9257224E-04   1.6960767E+05   -1.7318499E+00
   2.9392337E-04   1.6825990E+05   -1.7312770E+00
   2.9528074E-04   1.6692328E+05   -1.7307043E+00
   2.9664438E-04   1.6559772E+05   -1.7301318E+00
   2.9801431E-04   1.6428312E+05   -1.7295596E+00
   2.9939057E-04   1.6297938E+05   -1.7289875E+00
   3.0077319E-04   1.6168641E+05   -1.7284157E+00
   3.0216219E-04   1.6040413E+05   -1.7278441E+00
   3.0355761E-04   1.5913243E+05   -1.7272727E+00
   3.0495947E-04   1.5787123E+05   -1.7267016E+00
   3.0636780E-04   1.5662044E+05   -1.7261307E+00
   3.0778264E-04   1.5537996E+05   -1.7255601E+00
   3.0920401E-04   1.5414972E+05   -1.7249897E+00
   3.1063195E-04   1.5292962E+05   -1.7244196E+00
   3.1206648E-04   1.5171957E+05   -1.7238497E+00
   3.1350764E-04   1.5051949E+05   -1.7232802E+00
   3.1495545E-04   1.4932930E+05   -1.7227109E+00
   3.1640994E-04   1.4814891E+05   -1.7221419E+00
   3.1787116E-04   1.4697823E+05   -1.7215732E+00
   3.1933912E-04   1.4581719E+05   -1.7210047E+00
   3.2081386E-04   1.4466570E+05   -1.7204366E+00
   3.2229541E-04   1.4352367E+05   -1.7198688E+00
   3.2378381E-04   1.4239103E+05   -1.7193013E+00
   3.2527908E-04   1.4126771E+05   -1.7187342E+00
   3.2678125E-04   1.4015360E+05   -1.7181673E+00
   3.2829036E-04   1.3904865E+05   -1.7176008E+00
   3.2980644E-04   1.3795277E+05   -1.7170346E+00
   3.3132952E-04   1.3686588E+05   -1.7164688E+00
   3.3285963E-04   1.3578791E+05   -1.7159033E+00
   3.3439681E-04   1.3471879E+05   -1.7153382E+00
   3.3594109E-04   1.3365842E+05   -1.7147734E+00
   3.3749250E-04   1.3260675E+05   -1.7142090E+00
   3.3905108E-04   1.3156370E+05   -1.7136450E+00
   3.4061685E-04   1.3052919E+05   -1.7130813E+00
   3.4218986E-04   1.2950314E+05   -1.7125181E+00
   3.4377013E-04   1.2848550E+05   -1.7119552E+00
   3.4535769E-04   1.2747619E+05   -1.7113927E+00
   3.4695259E-04   1.2647513E+05   -1.7108306E+00
   3.4855485E-04   1.2548226E+05   -1.7102689E+00
   3.5016452E-04   1.2449750E+05   -1.7097076E+00
   3.5178161E-04   1.2352079E+05   -1.7091468E+00
   3.5340618E-04   1.2255206E+05   -1.7085863E+00
   3.5503824E-04   1.2159124E+05   -1.7080263E+00
   3.5667785E-04   1.2063827E+05   -1.7074668E+00
   3.5832502E-04   1.1969307E+05   -1.7069076E+00
   3.5997981E-04   1.1875559E+05   -1.7063489E+00
   3.6164223E-04   1.1782575E+05   -1.7057907E+00
   3.6331233E-04   1.1690349E+05   -1.7052329E+00
   3.6499015E-04   1.1598875E+05   -1.7046756E+00
   3.6667571E-04   1.1508146E+05   -1.7041187E+00
   3.6836906E-04   1.1418156E+05   -1.7035623E+00
   3.7007022E-04   1.1328899E+05   -1.7030064E+00
   3.7177925E-04   1.1240368E+05   -1.7024509E+00
   3.7349616E-04   1.1152558E+05   -1.7018960E+00
   3.7522101E-04   1.1065462E+05   -1.7013415E+00
   3.7695382E-04   1.0979074E+05   -1.7007875E+00
   3.7869463E-04   1.0893389E+05   -1.7002341E+00
   3.8044348E-04   1.0808400E+05   -1.6996811E+00
   3.8220041E-04   1.0724101E+05   -1.6991287E+00
   3.8396545E-04   1.0640486E+05   -1.6985767E+00
   3.8573864E-04   1.0557551E+05   -1.6980253E+00
   3.8752002E-04   1.0475288E+05   -1.6974744E+00
   3.8930963E-04   1.0393693E+05   -1.6969241E+00
   3.9110750E-04   1.0312759E+05   -1.6963743E+00
   3.9291368E-04   1.0232482E+05   -1.6958250E+00
   3.9472820E-04   1.0152855E+05   -1.6952763E+00
   3.9655109E-04   1.0073873E+05   -1.6947281E+00
   3.9838241E-04   9.9955313E+04   -1.6941805E+00
   4.0022218E-04   9.9178235E+04   -1.6936334E+00
   4.0207045E-04   9.8407446E+04   -1.6930870E+00
   4.0392725E-04   9.7642894E+04   -1.6925410E+00
   4.0579263E-04   9.6884524E+04   -1.6919957E+00
   4.0766662E-04   9.6132287E+04   -1.6914510E+00
   4.0954927E-04   9.5386129E+04   -1.6909068E+00
   4.1144061E-04   9.4646000E+04   -1.6903632E+00
   4.1334068E-04   9.3911848E+04   -1.6898202E+00
   4.1524953E-04   9.3183625E+04   -1.6892779E+00
   4.1716720E-04   9.2461279E+04   -1.6887361E+00
   4.1909372E-04   9.1744761E+04   -1.6881949E+00
   4.2102914E-04   9.1034023E+04   -1.6876544E+00
   4.2297350E-04   9.0329016E+04   -1.6871145E+00
   4.2492683E-04   8.9629692E+04   -1.6865752E+00
   4.2688919E-04   8.8936002E+04   -1.6860365E+00
   4.2886061E-04   8.8247901E+04   -1.6854985E+00
   4.3084113E-04   8.7565340E+04   -1.6849611E+00
   4.3283080E-04   8.6888273E+04   -1.6844243E+00
   4.3482966E-04   8.6216655E+04   -1.6838882E+00
   4.3683775E-04   8.5550440E+04   -1.6833528E+00
   4.3885511E-04   8.4889581E+04   -1.6828180E+00
   4.4088179E-04   8.4234035E+04   -1.6822838E+00
   4.4291783E-04   8.3583757E+04   -1.6817503E+00
   4.4496327E-04   8.2938703E+04   -1.6812175E+00
   4.4701816E-04   8.2298829E+04   -1.6806854E+00
   4.4908253E-04   8.1664091E+04   -1.6801540E+00
   4.5115644E-04   8.1034447E+04   -1.6796232E+00
   4.5323993E-04   8.0409855E+04   -1.6790931E+00
   4.5533304E-04   7.9790271E+04   -1.6785637E+00
   4.5743582E-04   7.9175655E+04   -1.6780350E+00
   4.5954830E-04   7.8565964E+04   -1.6775070E+00
   4.6167054E-04   7.7961158E+04   -1.6769798E+00
   4.6380259E-04   7.7361195E+04   -1.6764532E+00
   4.6594448E-04   7.6766036E+04   -1.6759273E+00
   4.6809626E-04   7.6175639E+04   -1.6754022E+00
   4.7025797E-04   7.5589966E+04   -1.6748777E+00
   4.7242967E-04   7.5008977E+04   -1.6743540E+00
   4.7461140E-04   7.4432633E+04   -1.6738310E+00
   4.7680321E-04   7.3860896E+04   -1.6733088E+00
   4.7900514E-04   7.3293726E+04   -1.6727873E+00
   4.8121723E-04   7.2731086E+04   -1.6722665E+00
   4.8343954E-04   7.2172938E+04   -1.6717465E+00
   4.8567212E-04   7.1619245E+04   -1.6712272E+00
   4.8791500E-04   7.1069970E+04   -1.6707087E+00
   4.9016825E-04   7.0525076E+04   -1.6701909E+00
   4.9243189E-04   6.9984526E+04   -1.6696739E+00
   4.9470600E-04   6.9448285E+04   -1.6691577E+00
   4.9699060E-04   6.8916317E+04   -1.6686422E+00
   4.9928575E-04   6.8388585E+04   -1.6681275E+00
   5.0159151E-04   6.7865055E+04   -1.6676136E+00
   5.0390791E-04   6.7345693E+04   -1.6671004E+00
   5.0623501E-04   6.6830463E+04   -1.6665881E+00
   5.0857286E-04   6.6319331E+04   -1.6660765E+00
   5.1092150E-04   6.5812264E+04   -1.6655657E+00
   5.1328099E-04   6.5309227E+04   -1.6650557E+00
   5.1565137E-04   6.4810187E+04   -1.6645465E+00
   5.1803270E-04   6.4315111E+04   -1.6640381E+00
   5.2042503E-04   6.3823967E+04   -1.6635305E+00
   5.2282841E-04   6.3336721E+04   -1.6630237E+00
   5.2524289E-04   6.2853341E+04   -1.6625178E+00
   5.2766851E-04   6.2373796E+04   -1.6620126E+00
   5.3010534E-04   6.1898054E+04   -1.6615082E+00
   5.3255342E-04   6.1426082E+04   -1.6610047E+00
   5.3501281E-04   6.0957851E+04   -1.6605020E+00
   5.3748356E-04   6.0493329E+04   -1.6600001E+00
   5.3996571E-04   6.0032486E+04   -1.6594991E+00
   5.4245933E-04   5.9575290E+04   -1.6589989E+00
   5.4496446E-04   5.9121713E+04   -1.6584995E+00
   5.4748117E-04   5.8671724E+04   -1.6580010E+00
   5.5000949E-04   5.8225294E+04   -1.6575033E+00
   5.5254949E-04   5.7782393E+04   -1.6570065E+00
   5.5510123E-04   5.7342992E+04   -1.6565105E+00
   5.5766474E-04   5.6907062E+04   -1.6560153E+00
   5.6024010E-04   5.6474575E+04   -1.6555211E+00
   5.6282734E-04   5.6045503E+04   -1.6550276E+00
   5.6542654E-04   5.5619816E+04   -1.6545351E+00
   5.6803774E-04   5.5197488E+04   -1.6540434E+00
   5.7066099E-04   5.4778491E+04   -1.6535525E+00
   5.7329637E-04   5.4362797E+04   -1.6530626E+00
   5.7594391E-04   5.3950380E+04   -1.6525735E+00
   5.7860368E-04   5.3541212E+04   -1.6520853E+00
   5.8127573E-04   5.3135266E+04   -1.6515980E+00
   5.8396012E-04   5.2732517E+04   -1.6511115E+00
   5.8665691E-04   5.2332937E+04   -1.6506260E+00
   5.8936616E-04   5.1936501E+04   -1.6501413E+00
   5.9208791E-04   5.1543184E+04   -1.6496575E+00
   5.9482223E-04   5.1152959E+04   -1.6491746E+00
   5.9756919E-04   5.0765801E+04   -1.6486926E+00
   6.0032882E-04   5.0381685E+04   -1.6482115E+00
   6.0310120E-04   5.0000586E+04   -1.6477313E+00
   6.0588639E-04   4.9622480E+04   -1.6472520E+00
   6.0868443E-04   4.9247342E+04   -1.6467736E+00
   6.1149540E-04   4.8875147E+04   -1.6462961E+00
   6.1431935E-04   4.8505872E+04   -1.6458196E+00
   6.1715634E-04   4.8139492E+04   -1.6453439E+00
   6.2000644E-04   4.7775984E+04   -1.6448692E+00
   6.2286969E-04   4.7415325E+04   -1.6443954E+00
