#        a       HoverH0(a)       dlogHdloga_of_a(a)
   1.0000000E-04   1.1319745E+06   -1.8797961E+00
   1.0046181E-04   1.1222138E+06   -1.8793749E+00
   1.0092575E-04   1.1125394E+06   -1.8789527E+00
   1.0139184E-04   1.1029505E+06   -1.8785295E+00
   1.0186008E-04   1.0934464E+06   -1.8781052E+00
   1.0233048E-04   1.0840264E+06   -1.8776800E+00
   1.0280305E-04   1.0746896E+06   -1.8772538E+00
   1.0327781E-04   1.0654353E+06   -1.8768266E+00
   1.0375475E-04   1.0562628E+06   -1.8763983E+00
   1.0423390E-04   1.0471713E+06   -1.8759691E+00
   1.0471527E-04   1.0381601E+06   -1.8755389E+00
   1.0519885E-04   1.0292285E+06   -1.8751077E+00
   1.0568467E-04   1.0203758E+06   -1.8746755E+00
   1.0617274E-04   1.0116013E+06   -1.8742422E+00
   1.0666305E-04   1.0029042E+06   -1.8738080E+00
   1.0715563E-04   9.9428386E+05   -1.8733729E+00
   1.0765049E-04   9.8573961E+05   -1.8729367E+00
   1.0814763E-04   9.7727074E+05   -1.8724995E+00
   1.0864707E-04   9.6887659E+05   -1.8720613E+00
   1.0914881E-04   9.6055648E+05   -1.8716222E+00
   1.0965287E-04   9.5230975E+05   -1.8711820E+00
   1.1015926E-04   9.4413574E+05   -1.8707409E+00
   1.1066799E-04   9.3603379E+05   -1.8702988E+00
   1.1117906E-04   9.2800325E+05   -1.8698557E+00
   1.1169250E-04   9.2004350E+05   -1.8694117E+00
   1.1220831E-04   9.1215388E+05   -1.8689666E+00
   1.1272650E-04   9.0433378E+05   -1.8685206E+00
   1.1324708E-04   8.9658256E+05   -1.8680736E+00
   1.1377007E-04   8.8889962E+05   -1.8676256E+00
   1.1429547E-04   8.8128434E+05   -1.8671767E+00
   1.1482330E-04   8.7373610E+05   -1.8667268E+00
   1.1535356E-04   8.6625431E+05   -1.8662759E+00
   1.1588628E-04   8.5883838E+05   -1.8658241E+00
   1.1642145E-04   8.5148771E+05   -1.8653712E+00
   1.1695910E-04   8.4420171E+05   -1.8649175E+00
   1.1749923E-04   8.3697981E+05   -1.8644627E+00
   1.1804185E-04   8.2982143E+05   -1.8640070E+00
   1.1858698E-04   8.2272600E+05   -1.8635504E+00
   1.1913463E-04   8.1569296E+05   -1.8630928E+00
   1.1968481E-04   8.0872175E+05   -1.8626342E+00
   1.2023752E-04   8.0181181E+05   -1.8621747E+00
   1.2079279E-04   7.9496261E+05   -1.8617142E+00
   1.2135063E-04   7.8817358E+05   -1.8612528E+00
   1.2191104E-04   7.8144419E+05   -1.8607904E+00
   1.2247403E-04   7.7477391E+05   -1.8603271E+00
   1.2303963E-04   7.6816221E+05   -1.8598628E+00
   1.2360784E-04   7.6160856E+05   -1.8593976E+00
   1.2417868E-04   7.5511244E+05   -1.8589315E+00
   1.2475215E-04   7.4867334E+05   -1.8584644E+00
   1.2532826E-04   7.4229075E+05   -1.8579964E+00
   1.2590704E-04   7.3596416E+05   -1.8575274E+00
   1.2648850E-04   7.2969307E+05   -1.8570576E+00
   1.2707263E-04   7.2347699E+05   -1.8565868E+00
   1.2765947E-04   7.1731541E+05   -1.8561150E+00
   1.2824901E-04   7.1120786E+05   -1.8556424E+00
   1.2884128E-04   7.0515385E+05   -1.8551688E+00
   1.2943628E-04   6.9915290E+05   -1.8546943E+00
   1.3003403E-04   6.9320453E+05   -1.8542189E+00
   1.3063454E-04   6.8730828E+05   -1.8537426E+00
   1.3123783E-04   6.8146368E+05   -1.8532653E+00
   1.3184390E-04   6.7567027E+05   -1.8527872E+00
   1.3245277E-04   6.6992758E+05   -1.8523081E+00
   1.3306445E-04   6.6423517E+05   -1.8518282E+00
   1.3367895E-04   6.5859259E+05   -1.8513473E+00
   1.3429630E-04   6.5299939E+05   -1.8508656E+00
   1.3491649E-04   6.4745513E+05   -1.8503829E+00
   1.3553955E-04   6.4195937E+05   -1.8498994E+00
   1.3616548E-04   6.3651168E+05   -1.8494149E+00
   1.3679431E-04   6.3111163E+05   -1.8489296E+00
   1.3742604E-04   6.2575879E+05   -1.8484434E+00
   1.3806069E-04   6.2045275E+05   -1.8479563E+00
   1.3869827E-04   6.1519308E+05   -1.8474683E+00
   1.3933879E-04   6.0997936E+05   -1.8469795E+00
   1.3998227E-04   6.0481120E+05   -1.8464897E+00
   1.4062872E-04   5.9968818E+05   -1.8459991E+00
   1.4127816E-04   5.9460990E+05   -1.8455077E+00
   1.4193060E-04   5.8957596E+05   -1.8450153E+00
   1.4258605E-04   5.8458596E+05   -1.8445221E+00
   1.4324453E-04   5.7963952E+05   -1.8440281E+00
   1.4390605E-04   5.7473624E+05   -1.8435332E+00
   1.4457062E-04   5.6987574E+05   -1.8430374E+00
   1.4523826E-04   5.6505763E+05   -1.8425408E+00
   1.4590899E-04   5.6028155E+05   -1.8420433E+00
   1.4658281E-04   5.5554710E+05   -1.8415450E+00
   1.4725974E-04   5.5085393E+05   -1.8410458E+00
   1.4793981E-04   5.4620167E+05   -1.8405458E+00
   1.4862301E-04   5.4158994E+05   -1.8400450E+00
   1.4930936E-04   5.3701839E+05   -1.8395433E+00
   1.4999889E-04   5.3248666E+05   -1.8390409E+00
   1.5069160E-04   5.2799440E+05   -1.8385375E+00
   1.5138751E-04   5.2354125E+05   -1.8380334E+00
   1.5208663E-04   5.1912686E+05   -1.8375284E+00
   1.5278899E-04   5.1475090E+05   -1.8370227E+00
   1.5349458E-04   5.1041301E+05   -1.8365161E+00
   1.5420343E-04   5.0611287E+05   -1.8360087E+00
   1.5491556E-04   5.0185012E+05   -1.8355005E+00
   1.5563098E-04   4.9762444E+05   -1.8349915E+00
   1.5634970E-04   4.9343550E+05   -1.8344817E+00
   1.5707174E-04   4.8928298E+05   -1.8339711E+00
   1.5779711E-04   4.8516654E+05   -1.8334597E+00
   1.5852584E-04   4.8108587E+05   -1.8329476E+00
   1.5925792E-04   4.7704065E+05   -1.8324346E+00
   1.5999339E-04   4.7303056E+05   -1.8319209E+00
   1.6073226E-04   4.6905529E+05   -1.8314064E+00
   1.6147454E-04   4.6511453E+05   -1.8308911E+00
   1.6222024E-04   4.6120797E+05   -1.8303750E+00
   1.6296939E-04   4.5733532E+05   -1.8298582E+00
   1.6372200E-04   4.5349626E+05   -1.8293406E+00
   1.6447809E-04   4.4969051E+05   -1.8288223E+00
   1.6523767E-04   4.4591776E+05   -1.8283032E+00
   1.6600075E-04   4.4217771E+05   -1.8277834E+00
   1.6676736E-04   4.3847009E+05   -1.8272628E+00
   1.6753751E-04   4.3479460E+05   -1.8267414E+00
   1.6831122E-04   4.3115096E+05   -1.8262194E+00
   1.6908849E-04   4.2753888E+05   -1.8256966E+00
   1.6986936E-04   4.2395808E+05   -1.8251731E+00
   1.7065384E-04   4.2040829E+05   -1.8246488E+00
   1.7144193E-04   4.1688922E+05   -1.8241238E+00
   1.7223367E-04   4.1340062E+05   -1.8235981E+00
   1.7302906E-04   4.0994220E+05   -1.8230717E+00
   1.7382813E-04   4.0651370E+05   -1.8225446E+00
   1.7463089E-04   4.0311486E+05   -1.8220168E+00
   1.7543735E-04   3.9974540E+05   -1.8214882E+00
   1.7624754E-04   3.9640508E+05   -1.8209590E+00
   1.7706147E-04   3.9309362E+05   -1.8204291E+00
   1.7787916E-04   3.8981078E+05   -1.8198985E+00
   1.7870062E-04   3.8655631E+05   -1.8193672E+00
   1.7952588E-04   3.8332994E+05   -1.8188352E+00
   1.8035495E-04   3.8013143E+05   -1.8183026E+00
   1.8118785E-04   3.7696054E+05   -1.8177693E+00
   1.8202459E-04   3.7381702E+05   -1.8172353E+00
   1.8286520E-04   3.7070062E+05   -1.8167006E+00
   1.8370969E-04   3.6761111E+05   -1.8161653E+00
   1.8455808E-04   3.6454825E+05   -1.8156294E+00
   1.8541039E-04   3.6151180E+05   -1.8150928E+00
   1.8626663E-04   3.5850153E+05   -1.8145555E+00
   1.8712683E-04   3.5551721E+05   -1.8140176E+00
   1.8799100E-04   3.5255861E+05   -1.8134791E+00
   1.8885917E-04   3.4962549E+05   -1.8129400E+00
   1.8973134E-04   3.4671764E+05   -1.8124002E+00
   1.9060754E-04   3.4383482E+05   -1.8118598E+00
   1.9148778E-04   3.4097683E+05   -1.8113187E+00
   1.9237209E-04   3.3814343E+05   -1.8107771E+00
   1.9326049E-04   3.3533442E+05   -1.8102349E+00
   1.9415299E-04   3.3254957E+05   -1.8096920E+00
   1.9504960E-04   3.2978868E+05   -1.8091486E+00
   1.9595036E-04   3.2705153E+05   -1.8086046E+00
   1.9685528E-04   3.2433791E+05   -1.8080599E+00
   1.9776438E-04   3.2164761E+05   -1.8075147E+00
   1.9867768E-04   3.1898043E+05   -1.8069689E+00
   1.9959519E-04   3.1633616E+05   -1.8064226E+00
   2.0051694E-04   3.1371460E+05   -1.8058757E+00
   2.0144295E-04   3.1111555E+05   -1.8053282E+00
   2.0237324E-04   3.0853881E+05   -1.8047801E+00
   2.0330782E-04   3.0598419E+05   -1.8042315E+00
   2.0424671E-04   3.0345149E+05   -1.8036824E+00
   2.0518995E-04   3.0094051E+05   -1.8031327E+00
   2.0613754E-04   2.9845106E+05   -1.8025824E+00
   2.0708950E-04   2.9598296E+05   -1.8020317E+00
   2.0804586E-04   2.9353602E+05   -1.8014804E+00
   2.0900664E-04   2.9111004E+05   -1.8009286E+00
   2.0997185E-04   2.8870485E+05   -1.8003762E+00
   2.1094152E-04   2.8632026E+05   -1.7998234E+00
   2.1191567E-04   2.8395609E+05   -1.7992700E+00
   2.1289432E-04   2.8161216E+05   -1.7987161E+00
   2.1387749E-04   2.7928829E+05   -1.7981618E+00
   2.1486520E-04   2.7698430E+05   -1.7976069E+00
   2.1585747E-04   2.7470003E+05   -1.7970516E+00
   2.1685432E-04   2.7243528E+05   -1.7964958E+00
   2.1785578E-04   2.7018991E+05   -1.7959395E+00
   2.1886186E-04   2.6796372E+05   -1.7953827E+00
   2.1987259E-04   2.6575656E+05   -1.7948254E+00
   2.2088798E-04   2.6356826E+05   -1.7942677E+00
   2.2190807E-04   2.6139865E+05   -1.7937096E+00
   2.2293286E-04   2.5924756E+05   -1.7931510E+00
   2.2396239E-04   2.5711484E+05   -1.7925919E+00
   2.2499667E-04   2.5500032E+05   -1.7920325E+00
   2.2603573E-04   2.5290385E+05   -1.7914725E+00
   2.2707958E-04   2.5082525E+05   -1.7909122E+00
   2.2812826E-04   2.4876438E+05   -1.7903514E+00
   2.2918178E-04   2.4672109E+05   -1.7897902E+00
   2.3024017E-04   2.4469520E+05   -1.7892286E+00
   2.3130344E-04   2.4268659E+05   -1.7886666E+00
   2.3237162E-04   2.4069508E+05   -1.7881042E+00
   2.3344474E-04   2.3872053E+05   -1.7875414E+00
   2.3452281E-04   2.3676280E+05   -1.7869782E+00
   2.3560586E-04   2.3482173E+05   -1.7864146E+00
   2.3669392E-04   2.3289719E+05   -1.7858506E+00
   2.3778699E-04   2.3098901E+05   -1.7852863E+00
   2.3888512E-04   2.2909706E+05   -1.7847216E+00
   2.3998831E-04   2.2722121E+05   -1.7841565E+00
   2.4109661E-04   2.2536129E+05   -1.7835911E+00
   2.4221001E-04   2.2351719E+05   -1.7830253E+00
   2.4332857E-04   2.2168875E+05   -1.7824592E+00
   2.4445228E-04   2.1987585E+05   -1.7818928E+00
   2.4558119E-04   2.1807833E+05   -1.7813260E+00
   2.4671531E-04   2.1629608E+05   -1.7807589E+00
   2.4785467E-04   2.1452896E+05   -1.7801914E+00
   2.4899928E-04   2.1277683E+05   -1.7796237E+00
   2.5014919E-04   2.1103956E+05   -1.7790556E+00
   2.5130440E-04   2.0931702E+05   -1.7784873E+00
   2.5246495E-04   2.0760909E+05   -1.7779186E+00
   2.5363086E-04   2.0591563E+05   -1.7773496E+00
   2.5480216E-04   2.0423652E+05   -1.7767804E+00
   2.5597886E-04   2.0257164E+05   -1.7762108E+00
   2.5716100E-04   2.0092085E+05   -1.7756410E+00
   2.5834859E-04   1.9928404E+05   -1.7750710E+00
   2.5954168E-04   1.9766108E+05   -1.7745006E+00
   2.6074027E-04   1.9605186E+05   -1.7739300E+00
   2.6194439E-04   1.9445625E+05   -1.7733592E+00
   2.6315408E-04   1.9287413E+05   -1.7727881E+00
   2.6436935E-04   1.9130539E+05   -1.7722167E+00
   2.6559024E-04   1.8974991E+05   -1.7716452E+00
   2.6681676E-04   1.8820757E+05   -1.7710734E+00
   2.6804895E-04   1.8667825E+05   -1.7705014E+00
   2.6928683E-04   1.8516186E+05   -1.7699291E+00
   2.7053042E-04   1.8365826E+05   -1.7693567E+00
   2.7177976E-04   1.8216736E+05   -1.7687840E+00
   2.7303487E-04   1.8068904E+05   -1.7682112E+00
   2.7429577E-04   1.7922318E+05   -1.7676381E+00
   2.7556250E-04   1.7776969E+05   -1.7670649E+00
   2.7683507E-04   1.7632845E+05   -1.7664915E+00
   2.7811353E-04   1.7489935E+05   -1.7659179E+00
   2.7939788E-04   1.7348230E+05   -1.7653441E+00
   2.8068817E-04   1.7207719E+05   -1.7647702E+00
   2.8198442E-04   1.7068390E+05   -1.7641961E+00
   2.8328665E-04   1.6930235E+05   -1.7636219E+00
   2.8459490E-04   1.6793242E+05   -1.7630475E+00
   2.8590919E-04   1.6657402E+05   -1.7624730E+00
   2.8722955E-04   1.6522704E+05   -1.7618984E+00
   2.8855600E-04   1.6389139E+05   -1.7613236E+00
   2.8988859E-04   1.6256697E+05   -1.7607487E+00
   2.9122732E-04   1.6125368E+05   -1.7601737E+00
   2.9257224E-04   1.5995142E+05   -1.7595986E+00
   2.9392337E-04   1.5866010E+05   -1.7590234E+00
   2.9528074E-04   1.5737962E+05   -1.7584481E+00
   2.9664438E-04   1.5610988E+05   -1.7578727E+00
   2.9801431E-04   1.5485081E+05   -1.7572972E+00
   2.9939057E-04   1.5360229E+05   -1.7567216E+00
   3.0077319E-04   1.5236425E+05   -1.7561460E+00
   3.0216219E-04   1.5113658E+05   -1.7555703E+00
   3.0355761E-04   1.4991921E+05   -1.7549945E+00
   3.0495947E-04   1.4871203E+05   -1.7544187E+00
   3.0636780E-04   1.4751497E+05   -1.7538429E+00
   3.0778264E-04   1.4632793E+05   -1.7532669E+00
   3.0920401E-04   1.4515083E+05   -1.7526910E+00
   3.1063195E-04   1.4398358E+05   -1.7521150E+00
   3.1206648E-04   1.4282609E+05   -1.7515391E+00
   3.1350764E-04   1.4167829E+05   -1.7509630E+00
   3.1495545E-04   1.4054008E+05   -1.7503870E+00
   3.1640994E-04   1.3941139E+05   -1.7498110E+00
   3.1787116E-04   1.3829213E+05   -1.7492350E+00
   3.1933912E-04   1.3718221E+05   -1.7486590E+00
   3.2081386E-04   1.3608157E+05   -1.7480830E+00
   3.2229541E-04   1.3499012E+05   -1.7475070E+00
   3.2378381E-04   1.3390778E+05   -1.7469310E+00
   3.2527908E-04   1.3283446E+05   -1.7463551E+00
   3.2678125E-04   1.3177010E+05   -1.7457792E+00
   3.2829036E-04   1.3071462E+05   -1.7452034E+00
   3.2980644E-04   1.2966793E+05   -1.7446276E+00
   3.3132952E-04   1.2862996E+05   -1.7440519E+00
   3.3285963E-04   1.2760065E+05   -1.7434762E+00
   3.3439681E-04   1.2657990E+05   -1.7429006E+00
   3.3594109E-04   1.2556766E+05   -1.7423251E+00
   3.3749250E-04   1.2456383E+05   -1.7417496E+00
   3.3905108E-04   1.2356837E+05   -1.7411742E+00
   3.4061685E-04   1.2258118E+05   -1.7405990E+00
   3.4218986E-04   1.2160220E+05   -1.7400238E+00
   3.4377013E-04   1.2063136E+05   -1.7394487E+00
   3.4535769E-04   1.1966858E+05   -1.7388738E+00
   3.4695259E-04   1.1871381E+05   -1.7382989E+00
   3.4855485E-04   1.1776696E+05   -1.7377242E+00
   3.5016452E-04   1.1682798E+05   -1.7371497E+00
   3.5178161E-04   1.1589679E+05   -1.7365752E+00
   3.5340618E-04   1.1497332E+05   -1.7360009E+00
   3.5503824E-04   1.1405752E+05   -1.7354267E+00
   3.5667785E-04   1.1314931E+05   -1.7348527E+00
   3.5832502E-04   1.1224863E+05   -1.7342789E+00
   3.5997981E-04   1.1135541E+05   -1.7337052E+00
   3.6164223E-04   1.1046959E+05   -1.7331317E+00
   3.6331233E-04   1.0959111E+05   -1.7325584E+00
   3.6499015E-04   1.0871990E+05   -1.7319852E+00
   3.6667571E-04   1.0785590E+05   -1.7314123E+00
   3.6836906E-04   1.0699905E+05   -1.7308395E+00
   3.7007022E-04   1.0614929E+05   -1.7302669E+00
   3.7177925E-04   1.0530656E+05   -1.7296946E+00
   3.7349616E-04   1.0447079E+05   -1.7291224E+00
   3.7522101E-04   1.0364192E+05   -1.7285505E+00
   3.7695382E-04   1.0281990E+05   -1.7279788E+00
   3.7869463E-04   1.0200468E+05   -1.7274074E+00
   3.8044348E-04   1.0119618E+05   -1.7268361E+00
   3.8220041E-04   1.0039435E+05   -1.7262651E+00
   3.8396545E-04   9.9599142E+04   -1.7256944E+00
   3.8573864E-04   9.8810490E+04   -1.7251239E+00
   3.8752002E-04   9.8028340E+04   -1.7245537E+00
   3.8930963E-04   9.7252637E+04   -1.7239838E+00
   3.9110750E-04   9.6483326E+04   -1.7234141E+00
   3.9291368E-04   9.5720351E+04   -1.7228447E+00
   3.9472820E-04   9.4963659E+04   -1.7222755E+00
   3.9655109E-04   9.4213195E+04   -1.7217067E+00
   3.9838241E-04   9.3468907E+04   -1.7211382E+00
   4.0022218E-04   9.2730742E+04   -1.7205700E+00
   4.0207045E-04   9.1998648E+04   -1.7200020E+00
   4.0392725E-04   9.1272572E+04   -1.7194344E+00
   4.0579263E-04   9.0552463E+04   -1.7188671E+00
   4.0766662E-04   8.9838270E+04   -1.7183002E+00
   4.0954927E-04   8.9129943E+04   -1.7177335E+00
   4.1144061E-04   8.8427431E+04   -1.7171672E+00
   4.1334068E-04   8.7730685E+04   -1.7166013E+00
   4.1524953E-04   8.7039656E+04   -1.7160356E+00
   4.1716720E-04   8.6354295E+04   -1.7154704E+00
   4.1909372E-04   8.5674554E+04   -1.7149055E+00
   4.2102914E-04   8.5000385E+04   -1.7143409E+00
   4.2297350E-04   8.4331739E+04   -1.7137768E+00
   4.2492683E-04   8.3668571E+04   -1.7132130E+00
   4.2688919E-04   8.3010834E+04   -1.7126496E+00
   4.2886061E-04   8.2358481E+04   -1.7120866E+00
   4.3084113E-04   8.1711467E+04   -1.7115239E+00
   4.3283080E-04   8.1069745E+04   -1.7109617E+00
   4.3482966E-04   8.0433272E+04   -1.7103999E+00
   4.3683775E-04   7.9802002E+04   -1.7098384E+00
   4.3885511E-04   7.9175891E+04   -1.7092774E+00
   4.4088179E-04   7.8554896E+04   -1.7087169E+00
   4.4291783E-04   7.7938972E+04   -1.7081567E+00
   4.4496327E-04   7.7328077E+04   -1.7075970E+00
   4.4701816E-04   7.6722168E+04   -1.7070377E+00
   4.4908253E-04   7.6121203E+04   -1.7064788E+00
   4.5115644E-04   7.5525140E+04   -1.7059204E+00
   4.5323993E-04   7.4933937E+04   -1.7053625E+00
   4.5533304E-04   7.4347552E+04   -1.7048050E+00
   4.5743582E-04   7.3765946E+04   -1.7042479E+00
   4.5954830E-04   7.3189078E+04   -1.7036914E+00
   4.6167054E-04   7.2616907E+04   -1.7031353E+00
   4.6380259E-04   7.2049393E+04   -1.7025797E+00
   4.6594448E-04   7.1486497E+04   -1.7020245E+00
   4.6809626E-04   7.0928181E+04   -1.7014699E+00
   4.7025797E-04   7.0374405E+04   -1.7009158E+00
   4.7242967E-04   6.9825130E+04   -1.7003621E+00
   4.7461140E-04   6.9280319E+04   -1.6998090E+00
   4.7680321E-04   6.8739935E+04   -1.6992564E+00
   4.7900514E-04   6.8203939E+04   -1.6987043E+00
   4.8121723E-04   6.7672294E+04   -1.6981527E+00
   4.8343954E-04   6.7144964E+04   -1.6976016E+00
   4.8567212E-04   6.6621913E+04   -1.6970511E+00
   4.8791500E-04   6.6103103E+04   -1.6965011E+00
   4.9016825E-04   6.5588500E+04   -1.6959516E+00
   4.9243189E-04   6.5078067E+04   -1.6954027E+00
   4.9470600E-04   6.4571770E+04   -1.6948544E+00
   4.9699060E-04   6.4069574E+04   -1.6943066E+00
   4.9928575E-04   6.3571444E+04   -1.6937593E+00
   5.0159151E-04   6.3077346E+04   -1.6932126E+00
   5.0390791E-04   6.2587245E+04   -1.6926665E+00
   5.0623501E-04   6.2101109E+04   -1.6921210E+00
   5.0857286E-04   6.1618904E+04   -1.6915761E+00
   5.1092150E-04   6.1140596E+04   -1.6910317E+00
   5.1328099E-04   6.0666153E+04   -1.6904879E+00
   5.1565137E-04   6.0195543E+04   -1.6899447E+00
   5.1803270E-04   5.9728732E+04   -1.6894022E+00
   5.2042503E-04   5.9265690E+04   -1.6888602E+00
   5.2282841E-04   5.8806384E+04   -1.6883188E+00
   5.2524289E-04   5.8350783E+04   -1.6877781E+00
   5.2766851E-04   5.7898857E+04   -1.6872379E+00
   5.3010534E-04   5.7450573E+04   -1.6866984E+00
   5.3255342E-04   5.7005901E+04   -1.6861595E+00
   5.3501281E-04   5.6564812E+04   -1.6856213E+00
   5.3748356E-04   5.6127275E+04   -1.6850837E+00
   5.3996571E-04   5.5693260E+04   -1.6845467E+00
   5.4245933E-04   5.5262738E+04   -1.6840104E+00
   5.4496446E-04   5.4835680E+04   -1.6834747E+00
   5.4748117E-04   5.4412056E+04   -1.6829397E+00
   5.5000949E-04   5.3991837E+04   -1.6824053E+00
   5.5254949E-04   5.3574996E+04   -1.6818716E+00
   5.5510123E-04   5.3161503E+04   -1.6813386E+00
   5.5766474E-04   5.2751331E+04   -1.6808063E+00
   5.6024010E-04   5.2344453E+04   -1.6802746E+00
   5.6282734E-04   5.1940840E+04   -1.6797436E+00
   5.6542654E-04   5.1540464E+04   -1.6792133E+00
   5.6803774E-04   5.1143300E+04   -1.6786837E+00
   5.7066099E-04   5.0749321E+04   -1.6781547E+00
   5.7329637E-04   5.0358498E+04   -1.6776265E+00
   5.7594391E-04   4.9970808E+04   -1.6770990E+00
   5.7860368E-04   4.9586222E+04   -1.6765722E+00
   5.8127573E-04   4.9204716E+04   -1.6760461E+00
   5.8396012E-04   4.8826263E+04   -1.6755207E+00
   5.8665691E-04   4.8450838E+04   -1.6749960E+00
   5.8936616E-04   4.8078416E+04   -1.6744721E+00
   5.9208791E-04   4.7708971E+04   -1.6739489E+00
   5.9482223E-04   4.7342480E+04   -1.6734264E+00
   5.9756919E-04   4.6978917E+04   -1.6729046E+00
   6.0032882E-04   4.6618257E+04   -1.6723836E+00
   6.0310120E-04   4.6260478E+04   -1.6718633E+00
   6.0588639E-04   4.5905554E+04   -1.6713438E+00
   6.0868443E-04   4.5553463E+04   -1.6708250E+00
   6.1149540E-04   4.5204179E+04   -1.6703070E+00
   6.1431935E-04   4.4857682E+04   -1.6697898E+00
   6.1715634E-04   4.4513946E+04   -1.6692733E+00
   6.2000644E-04   4.4172949E+04   -1.6687575E+00
   6.2286969E-04   4.3834668E+04   -1.6682426E+00
