#        a       HoverH0(a)       dlogHdloga_of_a(a)
   1.0000000E-04   1.1234998E+06   -1.8631357E+00
   1.0046181E-04   1.1138977E+06   -1.8626772E+00
   1.0092575E-04   1.1043801E+06   -1.8622178E+00
   1.0139184E-04   1.0949460E+06   -1.8617574E+00
   1.0186008E-04   1.0855949E+06   -1.8612961E+00
   1.0233048E-04   1.0763260E+06   -1.8608338E+00
   1.0280305E-04   1.0671384E+06   -1.8603706E+00
   1.0327781E-04   1.0580315E+06   -1.8599064E+00
   1.0375475E-04   1.0490046E+06   -1.8594413E+00
   1.0423390E-04   1.0400570E+06   -1.8589753E+00
   1.0471527E-04   1.0311878E+06   -1.8585083E+00
   1.0519885E-04   1.0223965E+06   -1.8580404E+00
   1.0568467E-04   1.0136824E+06   -1.8575715E+00
   1.0617274E-04   1.0050447E+06   -1.8571018E+00
   1.0666305E-04   9.9648273E+05   -1.8566310E+00
   1.0715563E-04   9.8799587E+05   -1.8561594E+00
   1.0765049E-04   9.7958342E+05   -1.8556868E+00
   1.0814763E-04   9.7124472E+05   -1.8552134E+00
   1.0864707E-04   9.6297910E+05   -1.8547390E+00
   1.0914881E-04   9.5478591E+05   -1.8542636E+00
   1.0965287E-04   9.4666451E+05   -1.8537874E+00
   1.1015926E-04   9.3861425E+05   -1.8533103E+00
   1.1066799E-04   9.3063450E+05   -1.8528322E+00
   1.1117906E-04   9.2272462E+05   -1.8523533E+00
   1.1169250E-04   9.1488399E+05   -1.8518734E+00
   1.1220831E-04   9.0711200E+05   -1.8513926E+00
   1.1272650E-04   8.9940801E+05   -1.8509110E+00
   1.1324708E-04   8.9177144E+05   -1.8504284E+00
   1.1377007E-04   8.8420168E+05   -1.8499449E+00
   1.1429547E-04   8.7669813E+05   -1.8494606E+00
   1.1482330E-04   8.6926020E+05   -1.8489754E+00
   1.1535356E-04   8.6188730E+05   -1.8484892E+00
   1.1588628E-04   8.5457885E+05   -1.8480022E+00
   1.1642145E-04   8.4733428E+05   -1.8475143E+00
   1.1695910E-04   8.4015301E+05   -1.8470256E+00
   1.1749923E-04   8.3303448E+05   -1.8465359E+00
   1.1804185E-04   8.2597813E+05   -1.8460454E+00
   1.1858698E-04   8.1898341E+05   -1.8455540E+00
   1.1913463E-04   8.1204976E+05   -1.8450618E+00
   1.1968481E-04   8.0517664E+05   -1.8445687E+00
   1.2023752E-04   7.9836350E+05   -1.8440747E+00
   1.2079279E-04   7.9160983E+05   -1.8435799E+00
   1.2135063E-04   7.8491507E+05   -1.8430842E+00
   1.2191104E-04   7.7827872E+05   -1.8425877E+00
   1.2247403E-04   7.7170023E+05   -1.8420903E+00
   1.2303963E-04   7.6517911E+05   -1.8415921E+00
   1.2360784E-04   7.5871484E+05   -1.8410930E+00
   1.2417868E-04   7.5230691E+05   -1.8405931E+00
   1.2475215E-04   7.4595482E+05   -1.8400924E+00
   1.2532826E-04   7.3965807E+05   -1.8395908E+00
   1.2590704E-04   7.3341617E+05   -1.8390884E+00
   1.2648850E-04   7.2722863E+05   -1.8385851E+00
   1.2707263E-04   7.2109496E+05   -1.8380811E+00
   1.2765947E-04   7.1501469E+05   -1.8375762E+00
   1.2824901E-04   7.0898734E+05   -1.8370705E+00
   1.2884128E-04   7.0301244E+05   -1.8365640E+00
   1.2943628E-04   6.9708952E+05   -1.8360567E+00
   1.3003403E-04   6.9121811E+05   -1.8355486E+00
   1.3063454E-04   6.8539777E+05   -1.8350397E+00
   1.3123783E-04   6.7962803E+05   -1.8345300E+00
   1.3184390E-04   6.7390844E+05   -1.8340195E+00
   1.3245277E-04   6.6823856E+05   -1.8335082E+00
   1.3306445E-04   6.6261794E+05   -1.8329961E+00
   1.3367895E-04   6.5704616E+05   -1.8324832E+00
   1.3429630E-04   6.5152276E+05   -1.8319696E+00
   1.3491649E-04   6.4604733E+05   -1.8314551E+00
   1.3553955E-04   6.4061943E+05   -1.8309399E+00
   1.3616548E-04   6.3523865E+05   -1.8304240E+00
   1.3679431E-04   6.2990456E+05   -1.8299072E+00
   1.3742604E-04   6.2461675E+05   -1.8293897E+00
   1.3806069E-04   6.1937480E+05   -1.8288715E+00
   1.3869827E-04   6.1417832E+05   -1.8283525E+00
   1.3933879E-04   6.0902689E+05   -1.8278327E+00
   1.3998227E-04   6.0392011E+05   -1.8273122E+00
   1.4062872E-04   5.9885759E+05   -1.8267910E+00
   1.4127816E-04   5.9383894E+05   -1.8262690E+00
   1.4193060E-04   5.8886376E+05   -1.8257463E+00
   1.4258605E-04   5.8393168E+05   -1.8252228E+00
   1.4324453E-04   5.7904229E+05   -1.8246986E+00
   1.4390605E-04   5.7419524E+05   -1.8241737E+00
   1.4457062E-04   5.6939014E+05   -1.8236481E+00
   1.4523826E-04   5.6462662E+05   -1.8231218E+00
   1.4590899E-04   5.5990431E+05   -1.8225947E+00
   1.4658281E-04   5.5522284E+05   -1.8220670E+00
   1.4725974E-04   5.5058186E+05   -1.8215385E+00
   1.4793981E-04   5.4598099E+05   -1.8210094E+00
   1.4862301E-04   5.4141990E+05   -1.8204795E+00
   1.4930936E-04   5.3689822E+05   -1.8199490E+00
   1.4999889E-04   5.3241561E+05   -1.8194178E+00
   1.5069160E-04   5.2797171E+05   -1.8188859E+00
   1.5138751E-04   5.2356619E+05   -1.8183533E+00
   1.5208663E-04   5.1919871E+05   -1.8178201E+00
   1.5278899E-04   5.1486892E+05   -1.8172862E+00
   1.5349458E-04   5.1057650E+05   -1.8167516E+00
   1.5420343E-04   5.0632111E+05   -1.8162164E+00
   1.5491556E-04   5.0210243E+05   -1.8156805E+00
   1.5563098E-04   4.9792013E+05   -1.8151440E+00
   1.5634970E-04   4.9377388E+05   -1.8146068E+00
   1.5707174E-04   4.8966338E+05   -1.8140690E+00
   1.5779711E-04   4.8558830E+05   -1.8135305E+00
   1.5852584E-04   4.8154832E+05   -1.8129914E+00
   1.5925792E-04   4.7754315E+05   -1.8124517E+00
   1.5999339E-04   4.7357246E+05   -1.8119114E+00
   1.6073226E-04   4.6963596E+05   -1.8113704E+00
   1.6147454E-04   4.6573335E+05   -1.8108289E+00
   1.6222024E-04   4.6186431E+05   -1.8102867E+00
   1.6296939E-04   4.5802857E+05   -1.8097439E+00
   1.6372200E-04   4.5422581E+05   -1.8092006E+00
   1.6447809E-04   4.5045576E+05   -1.8086566E+00
   1.6523767E-04   4.4671812E+05   -1.8081120E+00
   1.6600075E-04   4.4301260E+05   -1.8075669E+00
   1.6676736E-04   4.3933892E+05   -1.8070212E+00
   1.6753751E-04   4.3569681E+05   -1.8064749E+00
   1.6831122E-04   4.3208597E+05   -1.8059280E+00
   1.6908849E-04   4.2850614E+05   -1.8053806E+00
   1.6986936E-04   4.2495705E+05   -1.8048326E+00
   1.7065384E-04   4.2143841E+05   -1.8042841E+00
   1.7144193E-04   4.1794996E+05   -1.8037350E+00
   1.7223367E-04   4.1449143E+05   -1.8031854E+00
   1.7302906E-04   4.1106257E+05   -1.8026352E+00
   1.7382813E-04   4.0766311E+05   -1.8020845E+00
   1.7463089E-04   4.0429279E+05   -1.8015333E+00
   1.7543735E-04   4.0095135E+05   -1.8009815E+00
   1.7624754E-04   3.9763854E+05   -1.8004293E+00
   1.7706147E-04   3.9435410E+05   -1.7998765E+00
   1.7787916E-04   3.9109779E+05   -1.7993232E+00
   1.7870062E-04   3.8786935E+05   -1.7987694E+00
   1.7952588E-04   3.8466855E+05   -1.7982151E+00
   1.8035495E-04   3.8149514E+05   -1.7976603E+00
   1.8118785E-04   3.7834887E+05   -1.7971050E+00
   1.8202459E-04   3.7522951E+05   -1.7965492E+00
   1.8286520E-04   3.7213683E+05   -1.7959930E+00
   1.8370969E-04   3.6907058E+05   -1.7954363E+00
   1.8455808E-04   3.6603053E+05   -1.7948791E+00
   1.8541039E-04   3.6301646E+05   -1.7943215E+00
   1.8626663E-04   3.6002813E+05   -1.7937634E+00
   1.8712683E-04   3.5706533E+05   -1.7932048E+00
   1.8799100E-04   3.5412781E+05   -1.7926458E+00
   1.8885917E-04   3.5121537E+05   -1.7920864E+00
   1.8973134E-04   3.4832777E+05   -1.7915265E+00
   1.9060754E-04   3.4546481E+05   -1.7909662E+00
   1.9148778E-04   3.4262627E+05   -1.7904055E+00
   1.9237209E-04   3.3981192E+05   -1.7898444E+00
   1.9326049E-04   3.3702157E+05   -1.7892828E+00
   1.9415299E-04   3.3425499E+05   -1.7887209E+00
   1.9504960E-04   3.3151198E+05   -1.7881585E+00
   1.9595036E-04   3.2879234E+05   -1.7875958E+00
   1.9685528E-04   3.2609585E+05   -1.7870326E+00
   1.9776438E-04   3.2342232E+05   -1.7864691E+00
   1.9867768E-04   3.2077154E+05   -1.7859052E+00
   1.9959519E-04   3.1814331E+05   -1.7853409E+00
   2.0051694E-04   3.1553743E+05   -1.7847763E+00
   2.0144295E-04   3.1295372E+05   -1.7842112E+00
   2.0237324E-04   3.1039197E+05   -1.7836459E+00
   2.0330782E-04   3.0785199E+05   -1.7830802E+00
   2.0424671E-04   3.0533359E+05   -1.7825141E+00
   2.0518995E-04   3.0283658E+05   -1.7819477E+00
   2.0613754E-04   3.0036078E+05   -1.7813809E+00
   2.0708950E-04   2.9790600E+05   -1.7808139E+00
   2.0804586E-04   2.9547205E+05   -1.7802465E+00
   2.0900664E-04   2.9305876E+05   -1.7796788E+00
   2.0997185E-04   2.9066593E+05   -1.7791108E+00
   2.1094152E-04   2.8829340E+05   -1.7785425E+00
   2.1191567E-04   2.8594098E+05   -1.7779738E+00
   2.1289432E-04   2.8360850E+05   -1.7774049E+00
   2.1387749E-04   2.8129579E+05   -1.7768357E+00
   2.1486520E-04   2.7900266E+05   -1.7762662E+00
   2.1585747E-04   2.7672896E+05   -1.7756965E+00
   2.1685432E-04   2.7447450E+05   -1.7751264E+00
   2.1785578E-04   2.7223913E+05   -1.7745561E+00
   2.1886186E-04   2.7002267E+05   -1.7739856E+00
   2.1987259E-04   2.6782497E+05   -1.7734148E+00
   2.2088798E-04   2.6564584E+05   -1.7728437E+00
   2.2190807E-04   2.6348515E+05   -1.7722724E+00
   2.2293286E-04   2.6134271E+05   -1.7717009E+00
   2.2396239E-04   2.5921838E+05   -1.7711292E+00
   2.2499667E-04   2.5711199E+05   -1.7705572E+00
   2.2603573E-04   2.5502339E+05   -1.7699850E+00
   2.2707958E-04   2.5295243E+05   -1.7694126E+00
   2.2812826E-04   2.5089894E+05   -1.7688400E+00
   2.2918178E-04   2.4886278E+05   -1.7682672E+00
   2.3024017E-04   2.4684380E+05   -1.7676941E+00
   2.3130344E-04   2.4484184E+05   -1.7671210E+00
   2.3237162E-04   2.4285676E+05   -1.7665476E+00
   2.3344474E-04   2.4088841E+05   -1.7659740E+00
   2.3452281E-04   2.3893665E+05   -1.7654003E+00
   2.3560586E-04   2.3700133E+05   -1.7648264E+00
   2.3669392E-04   2.3508230E+05   -1.7642524E+00
   2.3778699E-04   2.3317943E+05   -1.7636782E+00
   2.3888512E-04   2.3129258E+05   -1.7631039E+00
   2.3998831E-04   2.2942160E+05   -1.7625294E+00
   2.4109661E-04   2.2756635E+05   -1.7619548E+00
   2.4221001E-04   2.2572671E+05   -1.7613800E+00
   2.4332857E-04   2.2390253E+05   -1.7608052E+00
   2.4445228E-04   2.2209368E+05   -1.7602302E+00
   2.4558119E-04   2.2030003E+05   -1.7596551E+00
   2.4671531E-04   2.1852145E+05   -1.7590800E+00
   2.4785467E-04   2.1675779E+05   -1.7585047E+00
   2.4899928E-04   2.1500894E+05   -1.7579293E+00
   2.5014919E-04   2.1327477E+05   -1.7573539E+00
   2.5130440E-04   2.1155515E+05   -1.7567783E+00
   2.5246495E-04   2.0984994E+05   -1.7562027E+00
   2.5363086E-04   2.0815904E+05   -1.7556271E+00
   2.5480216E-04   2.0648230E+05   -1.7550513E+00
   2.5597886E-04   2.0481962E+05   -1.7544755E+00
   2.5716100E-04   2.0317086E+05   -1.7538997E+00
   2.5834859E-04   2.0153591E+05   -1.7533238E+00
   2.5954168E-04   1.9991465E+05   -1.7527479E+00
   2.6074027E-04   1.9830696E+05   -1.7521720E+00
   2.6194439E-04   1.9671271E+05   -1.7515960E+00
   2.6315408E-04   1.9513180E+05   -1.7510200E+00
   2.6436935E-04   1.9356411E+05   -1.7504440E+00
   2.6559024E-04   1.9200953E+05   -1.7498681E+00
   2.6681676E-04   1.9046793E+05   -1.7492921E+00
   2.6804895E-04   1.8893922E+05   -1.7487161E+00
   2.6928683E-04   1.8742327E+05   -1.7481401E+00
   2.7053042E-04   1.8591998E+05   -1.7475641E+00
   2.7177976E-04   1.8442923E+05   -1.7469882E+00
   2.7303487E-04   1.8295092E+05   -1.7464123E+00
   2.7429577E-04   1.8148495E+05   -1.7458364E+00
   2.7556250E-04   1.8003120E+05   -1.7452606E+00
   2.7683507E-04   1.7858956E+05   -1.7446849E+00
   2.7811353E-04   1.7715994E+05   -1.7441091E+00
   2.7939788E-04   1.7574224E+05   -1.7435335E+00
   2.8068817E-04   1.7433634E+05   -1.7429579E+00
   2.8198442E-04   1.7294214E+05   -1.7423824E+00
   2.8328665E-04   1.7155955E+05   -1.7418070E+00
   2.8459490E-04   1.7018846E+05   -1.7412316E+00
   2.8590919E-04   1.6882878E+05   -1.7406564E+00
   2.8722955E-04   1.6748041E+05   -1.7400812E+00
   2.8855600E-04   1.6614324E+05   -1.7395062E+00
   2.8988859E-04   1.6481719E+05   -1.7389313E+00
   2.9122732E-04   1.6350215E+05   -1.7383564E+00
   2.9257224E-04   1.6219804E+05   -1.7377817E+00
   2.9392337E-04   1.6090475E+05   -1.7372072E+00
   2.9528074E-04   1.5962220E+05   -1.7366327E+00
   2.9664438E-04   1.5835029E+05   -1.7360585E+00
   2.9801431E-04   1.5708893E+05   -1.7354843E+00
   2.9939057E-04   1.5583803E+05   -1.7349103E+00
   3.0077319E-04   1.5459750E+05   -1.7343365E+00
   3.0216219E-04   1.5336725E+05   -1.7337628E+00
   3.0355761E-04   1.5214720E+05   -1.7331893E+00
   3.0495947E-04   1.5093724E+05   -1.7326160E+00
   3.0636780E-04   1.4973731E+05   -1.7320429E+00
   3.0778264E-04   1.4854730E+05   -1.7314699E+00
   3.0920401E-04   1.4736715E+05   -1.7308972E+00
   3.1063195E-04   1.4619675E+05   -1.7303246E+00
   3.1206648E-04   1.4503603E+05   -1.7297523E+00
   3.1350764E-04   1.4388491E+05   -1.7291802E+00
   3.1495545E-04   1.4274330E+05   -1.7286083E+00
   3.1640994E-04   1.4161112E+05   -1.7280366E+00
   3.1787116E-04   1.4048829E+05   -1.7274651E+00
   3.1933912E-04   1.3937473E+05   -1.7268939E+00
   3.2081386E-04   1.3827036E+05   -1.7263229E+00
   3.2229541E-04   1.3717510E+05   -1.7257522E+00
   3.2378381E-04   1.3608888E+05   -1.7251817E+00
   3.2527908E-04   1.3501161E+05   -1.7246115E+00
   3.2678125E-04   1.3394322E+05   -1.7240416E+00
   3.2829036E-04   1.3288364E+05   -1.7234719E+00
   3.2980644E-04   1.3183278E+05   -1.7229025E+00
   3.3132952E-04   1.3079057E+05   -1.7223334E+00
   3.3285963E-04   1.2975695E+05   -1.7217646E+00
   3.3439681E-04   1.2873183E+05   -1.7211960E+00
   3.3594109E-04   1.2771514E+05   -1.7206278E+00
   3.3749250E-04   1.2670682E+05   -1.7200599E+00
   3.3905108E-04   1.2570678E+05   -1.7194923E+00
   3.4061685E-04   1.2471497E+05   -1.7189250E+00
   3.4218986E-04   1.2373130E+05   -1.7183580E+00
   3.4377013E-04   1.2275571E+05   -1.7177914E+00
   3.4535769E-04   1.2178813E+05   -1.7172251E+00
   3.4695259E-04   1.2082850E+05   -1.7166591E+00
   3.4855485E-04   1.1987673E+05   -1.7160935E+00
   3.5016452E-04   1.1893278E+05   -1.7155283E+00
   3.5178161E-04   1.1799656E+05   -1.7149634E+00
   3.5340618E-04   1.1706802E+05   -1.7143988E+00
   3.5503824E-04   1.1614709E+05   -1.7138347E+00
   3.5667785E-04   1.1523370E+05   -1.7132709E+00
   3.5832502E-04   1.1432779E+05   -1.7127075E+00
   3.5997981E-04   1.1342930E+05   -1.7121445E+00
   3.6164223E-04   1.1253816E+05   -1.7115818E+00
   3.6331233E-04   1.1165431E+05   -1.7110196E+00
   3.6499015E-04   1.1077769E+05   -1.7104578E+00
   3.6667571E-04   1.0990824E+05   -1.7098963E+00
   3.6836906E-04   1.0904589E+05   -1.7093353E+00
   3.7007022E-04   1.0819059E+05   -1.7087747E+00
   3.7177925E-04   1.0734227E+05   -1.7082146E+00
   3.7349616E-04   1.0650088E+05   -1.7076549E+00
   3.7522101E-04   1.0566636E+05   -1.7070956E+00
   3.7695382E-04   1.0483865E+05   -1.7065367E+00
   3.7869463E-04   1.0401769E+05   -1.7059783E+00
   3.8044348E-04   1.0320342E+05   -1.7054203E+00
   3.8220041E-04   1.0239579E+05   -1.7048628E+00
   3.8396545E-04   1.0159474E+05   -1.7043058E+00
   3.8573864E-04   1.0080022E+05   -1.7037492E+00
   3.8752002E-04   1.0001216E+05   -1.7031932E+00
   3.8930963E-04   9.9230522E+04   -1.7026375E+00
   3.9110750E-04   9.8455244E+04   -1.7020824E+00
   3.9291368E-04   9.7686273E+04   -1.7015278E+00
   3.9472820E-04   9.6923556E+04   -1.7009736E+00
   3.9655109E-04   9.6167039E+04   -1.7004200E+00
   3.9838241E-04   9.5416670E+04   -1.6998668E+00
   4.0022218E-04   9.4672397E+04   -1.6993142E+00
   4.0207045E-04   9.3934169E+04   -1.6987621E+00
   4.0392725E-04   9.3201934E+04   -1.6982105E+00
   4.0579263E-04   9.2475643E+04   -1.6976594E+00
   4.0766662E-04   9.1755243E+04   -1.6971089E+00
   4.0954927E-04   9.1040687E+04   -1.6965589E+00
   4.1144061E-04   9.0331924E+04   -1.6960094E+00
   4.1334068E-04   8.9628906E+04   -1.6954605E+00
   4.1524953E-04   8.8931584E+04   -1.6949121E+00
   4.1716720E-04   8.8239910E+04   -1.6943643E+00
   4.1909372E-04   8.7553836E+04   -1.6938171E+00
   4.2102914E-04   8.6873315E+04   -1.6932704E+00
   4.2297350E-04   8.6198301E+04   -1.6927243E+00
   4.2492683E-04   8.5528747E+04   -1.6921787E+00
   4.2688919E-04   8.4864607E+04   -1.6916338E+00
   4.2886061E-04   8.4205836E+04   -1.6910894E+00
   4.3084113E-04   8.3552388E+04   -1.6905456E+00
   4.3283080E-04   8.2904218E+04   -1.6900024E+00
   4.3482966E-04   8.2261282E+04   -1.6894598E+00
   4.3683775E-04   8.1623536E+04   -1.6889178E+00
   4.3885511E-04   8.0990937E+04   -1.6883765E+00
   4.4088179E-04   8.0363441E+04   -1.6878357E+00
   4.4291783E-04   7.9741005E+04   -1.6872956E+00
   4.4496327E-04   7.9123586E+04   -1.6867560E+00
   4.4701816E-04   7.8511143E+04   -1.6862171E+00
   4.4908253E-04   7.7903634E+04   -1.6856789E+00
   4.5115644E-04   7.7301018E+04   -1.6851413E+00
   4.5323993E-04   7.6703253E+04   -1.6846043E+00
   4.5533304E-04   7.6110298E+04   -1.6840679E+00
   4.5743582E-04   7.5522114E+04   -1.6835322E+00
   4.5954830E-04   7.4938661E+04   -1.6829972E+00
   4.6167054E-04   7.4359898E+04   -1.6824628E+00
   4.6380259E-04   7.3785786E+04   -1.6819291E+00
   4.6594448E-04   7.3216287E+04   -1.6813961E+00
   4.6809626E-04   7.2651362E+04   -1.6808637E+00
   4.7025797E-04   7.2090972E+04   -1.6803320E+00
   4.7242967E-04   7.1535080E+04   -1.6798010E+00
   4.7461140E-04   7.0983648E+04   -1.6792707E+00
   4.7680321E-04   7.0436639E+04   -1.6787411E+00
   4.7900514E-04   6.9894015E+04   -1.6782121E+00
   4.8121723E-04   6.9355741E+04   -1.6776839E+00
   4.8343954E-04   6.8821780E+04   -1.6771564E+00
   4.8567212E-04   6.8292095E+04   -1.6766295E+00
   4.8791500E-04   6.7766651E+04   -1.6761034E+00
   4.9016825E-04   6.7245414E+04   -1.6755780E+00
   4.9243189E-04   6.6728346E+04   -1.6750533E+00
   4.9470600E-04   6.6215415E+04   -1.6745293E+00
   4.9699060E-04   6.5706585E+04   -1.6740061E+00
   4.9928575E-04   6.5201822E+04   -1.6734836E+00
   5.0159151E-04   6.4701092E+04   -1.6729618E+00
   5.0390791E-04   6.4204362E+04   -1.6724408E+00
   5.0623501E-04   6.3711598E+04   -1.6719205E+00
   5.0857286E-04   6.3222768E+04   -1.6714010E+00
   5.1092150E-04   6.2737838E+04   -1.6708822E+00
   5.1328099E-04   6.2256777E+04   -1.6703642E+00
   5.1565137E-04   6.1779551E+04   -1.6698469E+00
   5.1803270E-04   6.1306130E+04   -1.6693304E+00
   5.2042503E-04   6.0836482E+04   -1.6688146E+00
   5.2282841E-04   6.0370574E+04   -1.6682997E+00
   5.2524289E-04   5.9908377E+04   -1.6677855E+00
   5.2766851E-04   5.9449859E+04   -1.6672720E+00
   5.3010534E-04   5.8994989E+04   -1.6667594E+00
   5.3255342E-04   5.8543739E+04   -1.6662475E+00
   5.3501281E-04   5.8096076E+04   -1.6657365E+00
   5.3748356E-04   5.7651973E+04   -1.6652262E+00
   5.3996571E-04   5.7211398E+04   -1.6647167E+00
   5.4245933E-04   5.6774324E+04   -1.6642080E+00
   5.4496446E-04   5.6340721E+04   -1.6637001E+00
   5.4748117E-04   5.5910560E+04   -1.6631931E+00
   5.5000949E-04   5.5483813E+04   -1.6626868E+00
   5.5254949E-04   5.5060452E+04   -1.6621813E+00
   5.5510123E-04   5.4640448E+04   -1.6616767E+00
   5.5766474E-04   5.4223774E+04   -1.6611729E+00
   5.6024010E-04   5.3810402E+04   -1.6606699E+00
   5.6282734E-04   5.3400305E+04   -1.6601677E+00
   5.6542654E-04   5.2993456E+04   -1.6596664E+00
   5.6803774E-04   5.2589828E+04   -1.6591659E+00
   5.7066099E-04   5.2189394E+04   -1.6586662E+00
   5.7329637E-04   5.1792129E+04   -1.6581674E+00
   5.7594391E-04   5.1398006E+04   -1.6576694E+00
   5.7860368E-04   5.1006998E+04   -1.6571723E+00
   5.8127573E-04   5.0619082E+04   -1.6566760E+00
   5.8396012E-04   5.0234230E+04   -1.6561805E+00
   5.8665691E-04   4.9852418E+04   -1.6556860E+00
   5.8936616E-04   4.9473620E+04   -1.6551922E+00
   5.9208791E-04   4.9097813E+04   -1.6546994E+00
   5.9482223E-04   4.8724970E+04   -1.6542074E+00
   5.9756919E-04   4.8355069E+04   -1.6537162E+00
   6.0032882E-04   4.7988084E+04   -1.6532260E+00
   6.0310120E-04   4.7623992E+04   -1.6527366E+00
   6.0588639E-04   4.7262768E+04   -1.6522480E+00
   6.0868443E-04   4.6904390E+04   -1.6517604E+00
   6.1149540E-04   4.6548834E+04   -1.6512736E+00
   6.1431935E-04   4.6196077E+04   -1.6507878E+00
   6.1715634E-04   4.5846095E+04   -1.6503028E+00
   6.2000644E-04   4.5498867E+04   -1.6498187E+00
   6.2286969E-04   4.5154369E+04   -1.6493355E+00
