#        a       HoverH0(a)       dlogHdloga_of_a(a)
   1.0000000E-04   1.0577982E+06   -1.8570993E+00
   1.0046181E-04   1.0487869E+06   -1.8566286E+00
   1.0092575E-04   1.0398545E+06   -1.8561570E+00
   1.0139184E-04   1.0310005E+06   -1.8556844E+00
   1.0186008E-04   1.0222242E+06   -1.8552109E+00
   1.0233048E-04   1.0135247E+06   -1.8547365E+00
   1.0280305E-04   1.0049015E+06   -1.8542612E+00
   1.0327781E-04   9.9635382E+05   -1.8537850E+00
   1.0375475E-04   9.8788102E+05   -1.8533078E+00
   1.0423390E-04   9.7948243E+05   -1.8528297E+00
   1.0471527E-04   9.7115738E+05   -1.8523508E+00
   1.0519885E-04   9.6290522E+05   -1.8518709E+00
   1.0568467E-04   9.5472529E+05   -1.8513901E+00
   1.0617274E-04   9.4661694E+05   -1.8509085E+00
   1.0666305E-04   9.3857955E+05   -1.8504259E+00
   1.0715563E-04   9.3061247E+05   -1.8499425E+00
   1.0765049E-04   9.2271508E+05   -1.8494581E+00
   1.0814763E-04   9.1488675E+05   -1.8489729E+00
   1.0864707E-04   9.0712686E+05   -1.8484867E+00
   1.0914881E-04   8.9943481E+05   -1.8479997E+00
   1.0965287E-04   8.9180999E+05   -1.8475118E+00
   1.1015926E-04   8.8425179E+05   -1.8470231E+00
   1.1066799E-04   8.7675963E+05   -1.8465334E+00
   1.1117906E-04   8.6933291E+05   -1.8460429E+00
   1.1169250E-04   8.6197105E+05   -1.8455515E+00
   1.1220831E-04   8.5467347E+05   -1.8450593E+00
   1.1272650E-04   8.4743959E+05   -1.8445662E+00
   1.1324708E-04   8.4026885E+05   -1.8440722E+00
   1.1377007E-04   8.3316069E+05   -1.8435774E+00
   1.1429547E-04   8.2611455E+05   -1.8430817E+00
   1.1482330E-04   8.1912986E+05   -1.8425852E+00
   1.1535356E-04   8.1220609E+05   -1.8420878E+00
   1.1588628E-04   8.0534269E+05   -1.8415895E+00
   1.1642145E-04   7.9853913E+05   -1.8410905E+00
   1.1695910E-04   7.9179486E+05   -1.8405906E+00
   1.1749923E-04   7.8510936E+05   -1.8400898E+00
   1.1804185E-04   7.7848211E+05   -1.8395882E+00
   1.1858698E-04   7.7191259E+05   -1.8390858E+00
   1.1913463E-04   7.6540027E+05   -1.8385826E+00
   1.1968481E-04   7.5894466E+05   -1.8380786E+00
   1.2023752E-04   7.5254525E+05   -1.8375737E+00
   1.2079279E-04   7.4620154E+05   -1.8370680E+00
   1.2135063E-04   7.3991303E+05   -1.8365615E+00
   1.2191104E-04   7.3367923E+05   -1.8360542E+00
   1.2247403E-04   7.2749964E+05   -1.8355461E+00
   1.2303963E-04   7.2137380E+05   -1.8350371E+00
   1.2360784E-04   7.1530122E+05   -1.8345274E+00
   1.2417868E-04   7.0928143E+05   -1.8340169E+00
   1.2475215E-04   7.0331395E+05   -1.8335056E+00
   1.2532826E-04   6.9739832E+05   -1.8329935E+00
   1.2590704E-04   6.9153408E+05   -1.8324807E+00
   1.2648850E-04   6.8572077E+05   -1.8319670E+00
   1.2707263E-04   6.7995795E+05   -1.8314526E+00
   1.2765947E-04   6.7424515E+05   -1.8309374E+00
   1.2824901E-04   6.6858194E+05   -1.8304214E+00
   1.2884128E-04   6.6296787E+05   -1.8299047E+00
   1.2943628E-04   6.5740252E+05   -1.8293872E+00
   1.3003403E-04   6.5188543E+05   -1.8288689E+00
   1.3063454E-04   6.4641619E+05   -1.8283499E+00
   1.3123783E-04   6.4099438E+05   -1.8278301E+00
   1.3184390E-04   6.3561956E+05   -1.8273096E+00
   1.3245277E-04   6.3029132E+05   -1.8267884E+00
   1.3306445E-04   6.2500925E+05   -1.8262664E+00
   1.3367895E-04   6.1977293E+05   -1.8257437E+00
   1.3429630E-04   6.1458197E+05   -1.8252202E+00
   1.3491649E-04   6.0943595E+05   -1.8246960E+00
   1.3553955E-04   6.0433449E+05   -1.8241711E+00
   1.3616548E-04   5.9927717E+05   -1.8236455E+00
   1.3679431E-04   5.9426363E+05   -1.8231192E+00
   1.3742604E-04   5.8929345E+05   -1.8225921E+00
   1.3806069E-04   5.8436626E+05   -1.8220644E+00
   1.3869827E-04   5.7948168E+05   -1.8215359E+00
   1.3933879E-04   5.7463933E+05   -1.8210068E+00
   1.3998227E-04   5.6983883E+05   -1.8204770E+00
   1.4062872E-04   5.6507982E+05   -1.8199464E+00
   1.4127816E-04   5.6036192E+05   -1.8194152E+00
   1.4193060E-04   5.5568477E+05   -1.8188833E+00
   1.4258605E-04   5.5104801E+05   -1.8183507E+00
   1.4324453E-04   5.4645129E+05   -1.8178175E+00
   1.4390605E-04   5.4189424E+05   -1.8172836E+00
   1.4457062E-04   5.3737651E+05   -1.8167490E+00
   1.4523826E-04   5.3289777E+05   -1.8162138E+00
   1.4590899E-04   5.2845766E+05   -1.8156779E+00
   1.4658281E-04   5.2405583E+05   -1.8151414E+00
   1.4725974E-04   5.1969196E+05   -1.8146042E+00
   1.4793981E-04   5.1536570E+05   -1.8140664E+00
   1.4862301E-04   5.1107673E+05   -1.8135279E+00
   1.4930936E-04   5.0682470E+05   -1.8129888E+00
   1.4999889E-04   5.0260930E+05   -1.8124491E+00
   1.5069160E-04   4.9843020E+05   -1.8119088E+00
   1.5138751E-04   4.9428708E+05   -1.8113679E+00
   1.5208663E-04   4.9017962E+05   -1.8108263E+00
   1.5278899E-04   4.8610751E+05   -1.8102841E+00
   1.5349458E-04   4.8207043E+05   -1.8097413E+00
   1.5420343E-04   4.7806808E+05   -1.8091980E+00
   1.5491556E-04   4.7410014E+05   -1.8086540E+00
   1.5563098E-04   4.7016632E+05   -1.8081095E+00
   1.5634970E-04   4.6626630E+05   -1.8075643E+00
   1.5707174E-04   4.6239980E+05   -1.8070186E+00
   1.5779711E-04   4.5856652E+05   -1.8064723E+00
   1.5852584E-04   4.5476615E+05   -1.8059255E+00
   1.5925792E-04   4.5099842E+05   -1.8053780E+00
   1.5999339E-04   4.4726304E+05   -1.8048301E+00
   1.6073226E-04   4.4355971E+05   -1.8042815E+00
   1.6147454E-04   4.3988816E+05   -1.8037324E+00
   1.6222024E-04   4.3624810E+05   -1.8031828E+00
   1.6296939E-04   4.3263927E+05   -1.8026326E+00
   1.6372200E-04   4.2906137E+05   -1.8020819E+00
   1.6447809E-04   4.2551414E+05   -1.8015307E+00
   1.6523767E-04   4.2199732E+05   -1.8009790E+00
   1.6600075E-04   4.1851062E+05   -1.8004267E+00
   1.6676736E-04   4.1505379E+05   -1.7998739E+00
   1.6753751E-04   4.1162656E+05   -1.7993206E+00
   1.6831122E-04   4.0822867E+05   -1.7987668E+00
   1.6908849E-04   4.0485986E+05   -1.7982125E+00
   1.6986936E-04   4.0151988E+05   -1.7976577E+00
   1.7065384E-04   3.9820847E+05   -1.7971024E+00
   1.7144193E-04   3.9492538E+05   -1.7965467E+00
   1.7223367E-04   3.9167036E+05   -1.7959904E+00
   1.7302906E-04   3.8844317E+05   -1.7954337E+00
   1.7382813E-04   3.8524356E+05   -1.7948765E+00
   1.7463089E-04   3.8207128E+05   -1.7943189E+00
   1.7543735E-04   3.7892610E+05   -1.7937608E+00
   1.7624754E-04   3.7580778E+05   -1.7932023E+00
   1.7706147E-04   3.7271607E+05   -1.7926433E+00
   1.7787916E-04   3.6965076E+05   -1.7920838E+00
   1.7870062E-04   3.6661160E+05   -1.7915240E+00
   1.7952588E-04   3.6359836E+05   -1.7909637E+00
   1.8035495E-04   3.6061083E+05   -1.7904030E+00
   1.8118785E-04   3.5764876E+05   -1.7898418E+00
   1.8202459E-04   3.5471194E+05   -1.7892803E+00
   1.8286520E-04   3.5180015E+05   -1.7887183E+00
   1.8370969E-04   3.4891317E+05   -1.7881560E+00
   1.8455808E-04   3.4605077E+05   -1.7875932E+00
   1.8541039E-04   3.4321275E+05   -1.7870301E+00
   1.8626663E-04   3.4039888E+05   -1.7864666E+00
   1.8712683E-04   3.3760897E+05   -1.7859027E+00
   1.8799100E-04   3.3484278E+05   -1.7853384E+00
   1.8885917E-04   3.3210013E+05   -1.7847737E+00
   1.8973134E-04   3.2938080E+05   -1.7842087E+00
   1.9060754E-04   3.2668458E+05   -1.7836434E+00
   1.9148778E-04   3.2401128E+05   -1.7830777E+00
   1.9237209E-04   3.2136070E+05   -1.7825116E+00
   1.9326049E-04   3.1873263E+05   -1.7819452E+00
   1.9415299E-04   3.1612687E+05   -1.7813785E+00
   1.9504960E-04   3.1354324E+05   -1.7808114E+00
   1.9595036E-04   3.1098154E+05   -1.7802440E+00
   1.9685528E-04   3.0844157E+05   -1.7796763E+00
   1.9776438E-04   3.0592315E+05   -1.7791083E+00
   1.9867768E-04   3.0342609E+05   -1.7785400E+00
   1.9959519E-04   3.0095019E+05   -1.7779714E+00
   2.0051694E-04   2.9849528E+05   -1.7774025E+00
   2.0144295E-04   2.9606117E+05   -1.7768333E+00
   2.0237324E-04   2.9364769E+05   -1.7762638E+00
   2.0330782E-04   2.9125464E+05   -1.7756940E+00
   2.0424671E-04   2.8888185E+05   -1.7751240E+00
   2.0518995E-04   2.8652914E+05   -1.7745537E+00
   2.0613754E-04   2.8419634E+05   -1.7739832E+00
   2.0708950E-04   2.8188328E+05   -1.7734124E+00
   2.0804586E-04   2.7958978E+05   -1.7728413E+00
   2.0900664E-04   2.7731567E+05   -1.7722700E+00
   2.0997185E-04   2.7506078E+05   -1.7716985E+00
   2.1094152E-04   2.7282494E+05   -1.7711267E+00
   2.1191567E-04   2.7060799E+05   -1.7705548E+00
   2.1289432E-04   2.6840976E+05   -1.7699826E+00
   2.1387749E-04   2.6623009E+05   -1.7694102E+00
   2.1486520E-04   2.6406882E+05   -1.7688376E+00
   2.1585747E-04   2.6192578E+05   -1.7682648E+00
   2.1685432E-04   2.5980083E+05   -1.7676918E+00
   2.1785578E-04   2.5769379E+05   -1.7671186E+00
   2.1886186E-04   2.5560451E+05   -1.7665452E+00
   2.1987259E-04   2.5353285E+05   -1.7659717E+00
   2.2088798E-04   2.5147864E+05   -1.7653979E+00
   2.2190807E-04   2.4944173E+05   -1.7648241E+00
   2.2293286E-04   2.4742198E+05   -1.7642500E+00
   2.2396239E-04   2.4541922E+05   -1.7636758E+00
   2.2499667E-04   2.4343333E+05   -1.7631015E+00
   2.2603573E-04   2.4146414E+05   -1.7625271E+00
   2.2707958E-04   2.3951152E+05   -1.7619524E+00
   2.2812826E-04   2.3757531E+05   -1.7613777E+00
   2.2918178E-04   2.3565538E+05   -1.7608029E+00
   2.3024017E-04   2.3375159E+05   -1.7602279E+00
   2.3130344E-04   2.3186379E+05   -1.7596528E+00
   2.3237162E-04   2.2999185E+05   -1.7590777E+00
   2.3344474E-04   2.2813562E+05   -1.7585024E+00
   2.3452281E-04   2.2629498E+05   -1.7579270E+00
   2.3560586E-04   2.2446978E+05   -1.7573516E+00
   2.3669392E-04   2.2265989E+05   -1.7567760E+00
   2.3778699E-04   2.2086518E+05   -1.7562005E+00
   2.3888512E-04   2.1908552E+05   -1.7556248E+00
   2.3998831E-04   2.1732078E+05   -1.7550491E+00
   2.4109661E-04   2.1557082E+05   -1.7544733E+00
   2.4221001E-04   2.1383552E+05   -1.7538975E+00
   2.4332857E-04   2.1211475E+05   -1.7533216E+00
   2.4445228E-04   2.1040839E+05   -1.7527457E+00
   2.4558119E-04   2.0871631E+05   -1.7521698E+00
   2.4671531E-04   2.0703838E+05   -1.7515938E+00
   2.4785467E-04   2.0537449E+05   -1.7510178E+00
   2.4899928E-04   2.0372451E+05   -1.7504418E+00
   2.5014919E-04   2.0208833E+05   -1.7498659E+00
   2.5130440E-04   2.0046582E+05   -1.7492899E+00
   2.5246495E-04   1.9885686E+05   -1.7487139E+00
   2.5363086E-04   1.9726134E+05   -1.7481379E+00
   2.5480216E-04   1.9567914E+05   -1.7475620E+00
   2.5597886E-04   1.9411014E+05   -1.7469860E+00
   2.5716100E-04   1.9255424E+05   -1.7464101E+00
   2.5834859E-04   1.9101131E+05   -1.7458343E+00
   2.5954168E-04   1.8948125E+05   -1.7452585E+00
   2.6074027E-04   1.8796395E+05   -1.7446827E+00
   2.6194439E-04   1.8645929E+05   -1.7441070E+00
   2.6315408E-04   1.8496717E+05   -1.7435314E+00
   2.6436935E-04   1.8348747E+05   -1.7429558E+00
   2.6559024E-04   1.8202009E+05   -1.7423803E+00
   2.6681676E-04   1.8056493E+05   -1.7418049E+00
   2.6804895E-04   1.7912188E+05   -1.7412296E+00
   2.6928683E-04   1.7769083E+05   -1.7406543E+00
   2.7053042E-04   1.7627167E+05   -1.7400792E+00
   2.7177976E-04   1.7486432E+05   -1.7395041E+00
   2.7303487E-04   1.7346866E+05   -1.7389292E+00
   2.7429577E-04   1.7208460E+05   -1.7383544E+00
   2.7556250E-04   1.7071203E+05   -1.7377797E+00
   2.7683507E-04   1.6935086E+05   -1.7372052E+00
   2.7811353E-04   1.6800099E+05   -1.7366307E+00
   2.7939788E-04   1.6666232E+05   -1.7360564E+00
   2.8068817E-04   1.6533475E+05   -1.7354823E+00
   2.8198442E-04   1.6401819E+05   -1.7349083E+00
   2.8328665E-04   1.6271254E+05   -1.7343345E+00
   2.8459490E-04   1.6141772E+05   -1.7337609E+00
   2.8590919E-04   1.6013362E+05   -1.7331874E+00
   2.8722955E-04   1.5886016E+05   -1.7326141E+00
   2.8855600E-04   1.5759724E+05   -1.7320409E+00
   2.8988859E-04   1.5634477E+05   -1.7314680E+00
   2.9122732E-04   1.5510267E+05   -1.7308953E+00
   2.9257224E-04   1.5387084E+05   -1.7303227E+00
   2.9392337E-04   1.5264919E+05   -1.7297504E+00
   2.9528074E-04   1.5143765E+05   -1.7291783E+00
   2.9664438E-04   1.5023611E+05   -1.7286064E+00
   2.9801431E-04   1.4904450E+05   -1.7280347E+00
   2.9939057E-04   1.4786274E+05   -1.7274632E+00
   3.0077319E-04   1.4669073E+05   -1.7268920E+00
   3.0216219E-04   1.4552839E+05   -1.7263211E+00
   3.0355761E-04   1.4437564E+05   -1.7257504E+00
   3.0495947E-04   1.4323240E+05   -1.7251799E+00
   3.0636780E-04   1.4209858E+05   -1.7246097E+00
   3.0778264E-04   1.4097411E+05   -1.7240398E+00
   3.0920401E-04   1.3985891E+05   -1.7234701E+00
   3.1063195E-04   1.3875289E+05   -1.7229007E+00
   3.1206648E-04   1.3765598E+05   -1.7223316E+00
   3.1350764E-04   1.3656810E+05   -1.7217628E+00
   3.1495545E-04   1.3548917E+05   -1.7211943E+00
   3.1640994E-04   1.3441912E+05   -1.7206261E+00
   3.1787116E-04   1.3335787E+05   -1.7200582E+00
   3.1933912E-04   1.3230534E+05   -1.7194906E+00
   3.2081386E-04   1.3126146E+05   -1.7189233E+00
   3.2229541E-04   1.3022616E+05   -1.7183563E+00
   3.2378381E-04   1.2919936E+05   -1.7177897E+00
   3.2527908E-04   1.2818100E+05   -1.7172234E+00
   3.2678125E-04   1.2717099E+05   -1.7166575E+00
   3.2829036E-04   1.2616927E+05   -1.7160919E+00
   3.2980644E-04   1.2517576E+05   -1.7155266E+00
   3.3132952E-04   1.2419040E+05   -1.7149618E+00
   3.3285963E-04   1.2321312E+05   -1.7143972E+00
   3.3439681E-04   1.2224385E+05   -1.7138331E+00
   3.3594109E-04   1.2128252E+05   -1.7132693E+00
   3.3749250E-04   1.2032906E+05   -1.7127059E+00
   3.3905108E-04   1.1938340E+05   -1.7121429E+00
   3.4061685E-04   1.1844549E+05   -1.7115803E+00
   3.4218986E-04   1.1751524E+05   -1.7110181E+00
   3.4377013E-04   1.1659261E+05   -1.7104562E+00
   3.4535769E-04   1.1567752E+05   -1.7098948E+00
   3.4695259E-04   1.1476990E+05   -1.7093338E+00
   3.4855485E-04   1.1386971E+05   -1.7087733E+00
   3.5016452E-04   1.1297686E+05   -1.7082131E+00
   3.5178161E-04   1.1209131E+05   -1.7076534E+00
   3.5340618E-04   1.1121298E+05   -1.7070941E+00
   3.5503824E-04   1.1034182E+05   -1.7065353E+00
   3.5667785E-04   1.0947776E+05   -1.7059769E+00
   3.5832502E-04   1.0862076E+05   -1.7054189E+00
   3.5997981E-04   1.0777073E+05   -1.7048614E+00
   3.6164223E-04   1.0692764E+05   -1.7043044E+00
   3.6331233E-04   1.0609141E+05   -1.7037479E+00
   3.6499015E-04   1.0526199E+05   -1.7031918E+00
   3.6667571E-04   1.0443932E+05   -1.7026362E+00
   3.6836906E-04   1.0362335E+05   -1.7020811E+00
   3.7007022E-04   1.0281401E+05   -1.7015264E+00
   3.7177925E-04   1.0201126E+05   -1.7009723E+00
   3.7349616E-04   1.0121503E+05   -1.7004187E+00
   3.7522101E-04   1.0042527E+05   -1.6998656E+00
   3.7695382E-04   9.9641932E+04   -1.6993129E+00
   3.7869463E-04   9.8864954E+04   -1.6987608E+00
   3.8044348E-04   9.8094283E+04   -1.6982092E+00
   3.8220041E-04   9.7329868E+04   -1.6976582E+00
   3.8396545E-04   9.6571654E+04   -1.6971077E+00
   3.8573864E-04   9.5819590E+04   -1.6965577E+00
   3.8752002E-04   9.5073623E+04   -1.6960082E+00
   3.8930963E-04   9.4333702E+04   -1.6954593E+00
   3.9110750E-04   9.3599777E+04   -1.6949110E+00
   3.9291368E-04   9.2871796E+04   -1.6943632E+00
   3.9472820E-04   9.2149709E+04   -1.6938159E+00
   3.9655109E-04   9.1433467E+04   -1.6932693E+00
   3.9838241E-04   9.0723021E+04   -1.6927232E+00
   4.0022218E-04   9.0018321E+04   -1.6921776E+00
   4.0207045E-04   8.9319320E+04   -1.6916327E+00
   4.0392725E-04   8.8625968E+04   -1.6910883E+00
   4.0579263E-04   8.7938220E+04   -1.6905446E+00
   4.0766662E-04   8.7256027E+04   -1.6900014E+00
   4.0954927E-04   8.6579342E+04   -1.6894588E+00
   4.1144061E-04   8.5908120E+04   -1.6889169E+00
   4.1334068E-04   8.5242315E+04   -1.6883755E+00
   4.1524953E-04   8.4581880E+04   -1.6878347E+00
   4.1716720E-04   8.3926772E+04   -1.6872946E+00
   4.1909372E-04   8.3276944E+04   -1.6867551E+00
   4.2102914E-04   8.2632353E+04   -1.6862162E+00
   4.2297350E-04   8.1992955E+04   -1.6856780E+00
   4.2492683E-04   8.1358707E+04   -1.6851404E+00
   4.2688919E-04   8.0729564E+04   -1.6846034E+00
   4.2886061E-04   8.0105484E+04   -1.6840671E+00
   4.3084113E-04   7.9486426E+04   -1.6835314E+00
   4.3283080E-04   7.8872346E+04   -1.6829964E+00
   4.3482966E-04   7.8263203E+04   -1.6824621E+00
   4.3683775E-04   7.7658955E+04   -1.6819284E+00
   4.3885511E-04   7.7059562E+04   -1.6813953E+00
   4.4088179E-04   7.6464983E+04   -1.6808630E+00
   4.4291783E-04   7.5875178E+04   -1.6803313E+00
   4.4496327E-04   7.5290106E+04   -1.6798003E+00
   4.4701816E-04   7.4709728E+04   -1.6792700E+00
   4.4908253E-04   7.4134006E+04   -1.6787404E+00
   4.5115644E-04   7.3562899E+04   -1.6782115E+00
   4.5323993E-04   7.2996370E+04   -1.6776832E+00
   4.5533304E-04   7.2434380E+04   -1.6771557E+00
   4.5743582E-04   7.1876891E+04   -1.6766289E+00
   4.5954830E-04   7.1323866E+04   -1.6761028E+00
   4.6167054E-04   7.0775267E+04   -1.6755774E+00
   4.6380259E-04   7.0231058E+04   -1.6750528E+00
   4.6594448E-04   6.9691202E+04   -1.6745288E+00
   4.6809626E-04   6.9155663E+04   -1.6740056E+00
   4.7025797E-04   6.8624404E+04   -1.6734831E+00
   4.7242967E-04   6.8097390E+04   -1.6729614E+00
   4.7461140E-04   6.7574585E+04   -1.6724403E+00
   4.7680321E-04   6.7055956E+04   -1.6719201E+00
   4.7900514E-04   6.6541466E+04   -1.6714006E+00
   4.8121723E-04   6.6031081E+04   -1.6708818E+00
   4.8343954E-04   6.5524768E+04   -1.6703638E+00
   4.8567212E-04   6.5022492E+04   -1.6698465E+00
   4.8791500E-04   6.4524220E+04   -1.6693300E+00
   4.9016825E-04   6.4029919E+04   -1.6688143E+00
   4.9243189E-04   6.3539555E+04   -1.6682993E+00
   4.9470600E-04   6.3053096E+04   -1.6677852E+00
   4.9699060E-04   6.2570509E+04   -1.6672718E+00
   4.9928575E-04   6.2091763E+04   -1.6667591E+00
   5.0159151E-04   6.1616825E+04   -1.6662473E+00
   5.0390791E-04   6.1145664E+04   -1.6657362E+00
   5.0623501E-04   6.0678249E+04   -1.6652260E+00
   5.0857286E-04   6.0214548E+04   -1.6647165E+00
   5.1092150E-04   5.9754531E+04   -1.6642079E+00
   5.1328099E-04   5.9298167E+04   -1.6637000E+00
   5.1565137E-04   5.8845426E+04   -1.6631929E+00
   5.1803270E-04   5.8396278E+04   -1.6626867E+00
   5.2042503E-04   5.7950694E+04   -1.6621813E+00
   5.2282841E-04   5.7508643E+04   -1.6616767E+00
   5.2524289E-04   5.7070096E+04   -1.6611729E+00
   5.2766851E-04   5.6635026E+04   -1.6606699E+00
   5.3010534E-04   5.6203402E+04   -1.6601677E+00
   5.3255342E-04   5.5775196E+04   -1.6596664E+00
   5.3501281E-04   5.5350381E+04   -1.6591659E+00
   5.3748356E-04   5.4928928E+04   -1.6586663E+00
   5.3996571E-04   5.4510809E+04   -1.6581675E+00
   5.4245933E-04   5.4095997E+04   -1.6576695E+00
   5.4496446E-04   5.3684466E+04   -1.6571724E+00
   5.4748117E-04   5.3276186E+04   -1.6566761E+00
   5.5000949E-04   5.2871133E+04   -1.6561807E+00
   5.5254949E-04   5.2469278E+04   -1.6556861E+00
   5.5510123E-04   5.2070597E+04   -1.6551924E+00
   5.5766474E-04   5.1675062E+04   -1.6546996E+00
   5.6024010E-04   5.1282649E+04   -1.6542076E+00
   5.6282734E-04   5.0893330E+04   -1.6537165E+00
   5.6542654E-04   5.0507081E+04   -1.6532263E+00
   5.6803774E-04   5.0123877E+04   -1.6527369E+00
   5.7066099E-04   4.9743692E+04   -1.6522484E+00
   5.7329637E-04   4.9366502E+04   -1.6517608E+00
   5.7594391E-04   4.8992282E+04   -1.6512740E+00
   5.7860368E-04   4.8621007E+04   -1.6507882E+00
   5.8127573E-04   4.8252655E+04   -1.6503032E+00
   5.8396012E-04   4.7887199E+04   -1.6498191E+00
   5.8665691E-04   4.7524618E+04   -1.6493359E+00
   5.8936616E-04   4.7164887E+04   -1.6488536E+00
   5.9208791E-04   4.6807982E+04   -1.6483723E+00
   5.9482223E-04   4.6453881E+04   -1.6478918E+00
   5.9756919E-04   4.6102561E+04   -1.6474122E+00
   6.0032882E-04   4.5753999E+04   -1.6469335E+00
   6.0310120E-04   4.5408173E+04   -1.6464557E+00
   6.0588639E-04   4.5065059E+04   -1.6459788E+00
   6.0868443E-04   4.4724636E+04   -1.6455029E+00
   6.1149540E-04   4.4386882E+04   -1.6450278E+00
   6.1431935E-04   4.4051775E+04   -1.6445537E+00
   6.1715634E-04   4.3719293E+04   -1.6440805E+00
   6.2000644E-04   4.3389415E+04   -1.6436082E+00
   6.2286969E-04   4.3062120E+04   -1.6431368E+00
