#        a       HoverH0(a)       dlogHdloga_of_a(a)
   1.0000000E-04   1.1429798E+06   -1.8603114E+00
   1.0046181E-04   1.1332260E+06   -1.8598471E+00
   1.0092575E-04   1.1235578E+06   -1.8593819E+00
   1.0139184E-04   1.1139746E+06   -1.8589157E+00
   1.0186008E-04   1.1044754E+06   -1.8584486E+00
   1.0233048E-04   1.0950596E+06   -1.8579806E+00
   1.0280305E-04   1.0857264E+06   -1.8575116E+00
   1.0327781E-04   1.0764751E+06   -1.8570417E+00
   1.0375475E-04   1.0673050E+06   -1.8565709E+00
   1.0423390E-04   1.0582152E+06   -1.8560991E+00
   1.0471527E-04   1.0492052E+06   -1.8556264E+00
   1.0519885E-04   1.0402741E+06   -1.8551528E+00
   1.0568467E-04   1.0314213E+06   -1.8546783E+00
   1.0617274E-04   1.0226461E+06   -1.8542029E+00
   1.0666305E-04   1.0139478E+06   -1.8537265E+00
   1.0715563E-04   1.0053256E+06   -1.8532493E+00
   1.0765049E-04   9.9677898E+05   -1.8527711E+00
   1.0814763E-04   9.8830719E+05   -1.8522920E+00
   1.0864707E-04   9.7990957E+05   -1.8518121E+00
   1.0914881E-04   9.7158545E+05   -1.8513312E+00
   1.0965287E-04   9.6333418E+05   -1.8508494E+00
   1.1015926E-04   9.5515511E+05   -1.8503667E+00
   1.1066799E-04   9.4704759E+05   -1.8498832E+00
   1.1117906E-04   9.3901098E+05   -1.8493987E+00
   1.1169250E-04   9.3104465E+05   -1.8489134E+00
   1.1220831E-04   9.2314796E+05   -1.8484271E+00
   1.1272650E-04   9.1532031E+05   -1.8479400E+00
   1.1324708E-04   9.0756107E+05   -1.8474520E+00
   1.1377007E-04   8.9986963E+05   -1.8469631E+00
   1.1429547E-04   8.9224539E+05   -1.8464734E+00
   1.1482330E-04   8.8468774E+05   -1.8459828E+00
   1.1535356E-04   8.7719609E+05   -1.8454913E+00
   1.1588628E-04   8.6976986E+05   -1.8449989E+00
   1.1642145E-04   8.6240845E+05   -1.8445057E+00
   1.1695910E-04   8.5511129E+05   -1.8440116E+00
   1.1749923E-04   8.4787780E+05   -1.8435167E+00
   1.1804185E-04   8.4070743E+05   -1.8430209E+00
   1.1858698E-04   8.3359960E+05   -1.8425242E+00
   1.1913463E-04   8.2655375E+05   -1.8420268E+00
   1.1968481E-04   8.1956934E+05   -1.8415284E+00
   1.2023752E-04   8.1264581E+05   -1.8410293E+00
   1.2079279E-04   8.0578263E+05   -1.8405292E+00
   1.2135063E-04   7.9897926E+05   -1.8400284E+00
   1.2191104E-04   7.9223515E+05   -1.8395267E+00
   1.2247403E-04   7.8554979E+05   -1.8390242E+00
   1.2303963E-04   7.7892265E+05   -1.8385209E+00
   1.2360784E-04   7.7235321E+05   -1.8380167E+00
   1.2417868E-04   7.6584096E+05   -1.8375117E+00
   1.2475215E-04   7.5938538E+05   -1.8370060E+00
   1.2532826E-04   7.5298598E+05   -1.8364994E+00
   1.2590704E-04   7.4664225E+05   -1.8359919E+00
   1.2648850E-04   7.4035369E+05   -1.8354837E+00
   1.2707263E-04   7.3411982E+05   -1.8349747E+00
   1.2765947E-04   7.2794015E+05   -1.8344649E+00
   1.2824901E-04   7.2181420E+05   -1.8339543E+00
   1.2884128E-04   7.1574149E+05   -1.8334429E+00
   1.2943628E-04   7.0972154E+05   -1.8329307E+00
   1.3003403E-04   7.0375388E+05   -1.8324177E+00
   1.3063454E-04   6.9783805E+05   -1.8319040E+00
   1.3123783E-04   6.9197359E+05   -1.8313895E+00
   1.3184390E-04   6.8616005E+05   -1.8308742E+00
   1.3245277E-04   6.8039696E+05   -1.8303581E+00
   1.3306445E-04   6.7468388E+05   -1.8298413E+00
   1.3367895E-04   6.6902036E+05   -1.8293237E+00
   1.3429630E-04   6.6340597E+05   -1.8288053E+00
   1.3491649E-04   6.5784027E+05   -1.8282862E+00
   1.3553955E-04   6.5232282E+05   -1.8277664E+00
   1.3616548E-04   6.4685320E+05   -1.8272458E+00
   1.3679431E-04   6.4143098E+05   -1.8267244E+00
   1.3742604E-04   6.3605575E+05   -1.8262023E+00
   1.3806069E-04   6.3072707E+05   -1.8256795E+00
   1.3869827E-04   6.2544455E+05   -1.8251560E+00
   1.3933879E-04   6.2020776E+05   -1.8246317E+00
   1.3998227E-04   6.1501631E+05   -1.8241067E+00
   1.4062872E-04   6.0986979E+05   -1.8235810E+00
   1.4127816E-04   6.0476780E+05   -1.8230546E+00
   1.4193060E-04   5.9970995E+05   -1.8225275E+00
   1.4258605E-04   5.9469584E+05   -1.8219996E+00
   1.4324453E-04   5.8972510E+05   -1.8214711E+00
   1.4390605E-04   5.8479732E+05   -1.8209419E+00
   1.4457062E-04   5.7991214E+05   -1.8204119E+00
   1.4523826E-04   5.7506917E+05   -1.8198813E+00
   1.4590899E-04   5.7026804E+05   -1.8193500E+00
   1.4658281E-04   5.6550838E+05   -1.8188180E+00
   1.4725974E-04   5.6078982E+05   -1.8182854E+00
   1.4793981E-04   5.5611200E+05   -1.8177520E+00
   1.4862301E-04   5.5147456E+05   -1.8172181E+00
   1.4930936E-04   5.4687713E+05   -1.8166834E+00
   1.4999889E-04   5.4231936E+05   -1.8161481E+00
   1.5069160E-04   5.3780091E+05   -1.8156121E+00
   1.5138751E-04   5.3332142E+05   -1.8150755E+00
   1.5208663E-04   5.2888055E+05   -1.8145383E+00
   1.5278899E-04   5.2447796E+05   -1.8140004E+00
   1.5349458E-04   5.2011331E+05   -1.8134618E+00
   1.5420343E-04   5.1578626E+05   -1.8129227E+00
   1.5491556E-04   5.1149648E+05   -1.8123829E+00
   1.5563098E-04   5.0724364E+05   -1.8118425E+00
   1.5634970E-04   5.0302742E+05   -1.8113014E+00
   1.5707174E-04   4.9884748E+05   -1.8107598E+00
   1.5779711E-04   4.9470351E+05   -1.8102176E+00
   1.5852584E-04   4.9059520E+05   -1.8096747E+00
   1.5925792E-04   4.8652222E+05   -1.8091313E+00
   1.5999339E-04   4.8248426E+05   -1.8085872E+00
   1.6073226E-04   4.7848101E+05   -1.8080426E+00
   1.6147454E-04   4.7451217E+05   -1.8074974E+00
   1.6222024E-04   4.7057744E+05   -1.8069516E+00
   1.6296939E-04   4.6667650E+05   -1.8064052E+00
   1.6372200E-04   4.6280907E+05   -1.8058583E+00
   1.6447809E-04   4.5897485E+05   -1.8053108E+00
   1.6523767E-04   4.5517354E+05   -1.8047628E+00
   1.6600075E-04   4.5140486E+05   -1.8042142E+00
   1.6676736E-04   4.4766851E+05   -1.8036650E+00
   1.6753751E-04   4.4396421E+05   -1.8031153E+00
   1.6831122E-04   4.4029168E+05   -1.8025651E+00
   1.6908849E-04   4.3665063E+05   -1.8020143E+00
   1.6986936E-04   4.3304080E+05   -1.8014630E+00
   1.7065384E-04   4.2946190E+05   -1.8009112E+00
   1.7144193E-04   4.2591366E+05   -1.8003588E+00
   1.7223367E-04   4.2239581E+05   -1.7998060E+00
   1.7302906E-04   4.1890808E+05   -1.7992526E+00
   1.7382813E-04   4.1545022E+05   -1.7986988E+00
   1.7463089E-04   4.1202194E+05   -1.7981444E+00
   1.7543735E-04   4.0862301E+05   -1.7975896E+00
   1.7624754E-04   4.0525314E+05   -1.7970342E+00
   1.7706147E-04   4.0191210E+05   -1.7964784E+00
   1.7787916E-04   3.9859962E+05   -1.7959221E+00
   1.7870062E-04   3.9531546E+05   -1.7953653E+00
   1.7952588E-04   3.9205936E+05   -1.7948081E+00
   1.8035495E-04   3.8883109E+05   -1.7942504E+00
   1.8118785E-04   3.8563038E+05   -1.7936922E+00
   1.8202459E-04   3.8245700E+05   -1.7931336E+00
   1.8286520E-04   3.7931072E+05   -1.7925746E+00
   1.8370969E-04   3.7619129E+05   -1.7920151E+00
   1.8455808E-04   3.7309847E+05   -1.7914552E+00
   1.8541039E-04   3.7003204E+05   -1.7908948E+00
   1.8626663E-04   3.6699176E+05   -1.7903341E+00
   1.8712683E-04   3.6397739E+05   -1.7897729E+00
   1.8799100E-04   3.6098872E+05   -1.7892113E+00
   1.8885917E-04   3.5802552E+05   -1.7886493E+00
   1.8973134E-04   3.5508756E+05   -1.7880869E+00
   1.9060754E-04   3.5217463E+05   -1.7875241E+00
   1.9148778E-04   3.4928649E+05   -1.7869609E+00
   1.9237209E-04   3.4642294E+05   -1.7863973E+00
   1.9326049E-04   3.4358376E+05   -1.7858334E+00
   1.9415299E-04   3.4076873E+05   -1.7852690E+00
   1.9504960E-04   3.3797764E+05   -1.7847043E+00
   1.9595036E-04   3.3521029E+05   -1.7841393E+00
   1.9685528E-04   3.3246647E+05   -1.7835739E+00
   1.9776438E-04   3.2974596E+05   -1.7830081E+00
   1.9867768E-04   3.2704857E+05   -1.7824420E+00
   1.9959519E-04   3.2437408E+05   -1.7818756E+00
   2.0051694E-04   3.2172231E+05   -1.7813088E+00
   2.0144295E-04   3.1909305E+05   -1.7807417E+00
   2.0237324E-04   3.1648611E+05   -1.7801743E+00
   2.0330782E-04   3.1390128E+05   -1.7796065E+00
   2.0424671E-04   3.1133838E+05   -1.7790385E+00
   2.0518995E-04   3.0879722E+05   -1.7784701E+00
   2.0613754E-04   3.0627759E+05   -1.7779014E+00
   2.0708950E-04   3.0377933E+05   -1.7773325E+00
   2.0804586E-04   3.0130223E+05   -1.7767633E+00
   2.0900664E-04   2.9884611E+05   -1.7761937E+00
   2.0997185E-04   2.9641079E+05   -1.7756240E+00
   2.1094152E-04   2.9399609E+05   -1.7750539E+00
   2.1191567E-04   2.9160183E+05   -1.7744836E+00
   2.1289432E-04   2.8922783E+05   -1.7739130E+00
   2.1387749E-04   2.8687390E+05   -1.7733422E+00
   2.1486520E-04   2.8453989E+05   -1.7727711E+00
   2.1585747E-04   2.8222561E+05   -1.7721998E+00
   2.1685432E-04   2.7993088E+05   -1.7716282E+00
   2.1785578E-04   2.7765555E+05   -1.7710564E+00
   2.1886186E-04   2.7539943E+05   -1.7704844E+00
   2.1987259E-04   2.7316237E+05   -1.7699122E+00
   2.2088798E-04   2.7094420E+05   -1.7693398E+00
   2.2190807E-04   2.6874474E+05   -1.7687671E+00
   2.2293286E-04   2.6656385E+05   -1.7681943E+00
   2.2396239E-04   2.6440135E+05   -1.7676213E+00
   2.2499667E-04   2.6225708E+05   -1.7670480E+00
   2.2603573E-04   2.6013089E+05   -1.7664747E+00
   2.2707958E-04   2.5802263E+05   -1.7659011E+00
   2.2812826E-04   2.5593212E+05   -1.7653273E+00
   2.2918178E-04   2.5385922E+05   -1.7647534E+00
   2.3024017E-04   2.5180378E+05   -1.7641794E+00
   2.3130344E-04   2.4976564E+05   -1.7636052E+00
   2.3237162E-04   2.4774466E+05   -1.7630308E+00
   2.3344474E-04   2.4574068E+05   -1.7624563E+00
   2.3452281E-04   2.4375355E+05   -1.7618817E+00
   2.3560586E-04   2.4178313E+05   -1.7613070E+00
   2.3669392E-04   2.3982928E+05   -1.7607321E+00
   2.3778699E-04   2.3789184E+05   -1.7601571E+00
   2.3888512E-04   2.3597068E+05   -1.7595820E+00
   2.3998831E-04   2.3406566E+05   -1.7590068E+00
   2.4109661E-04   2.3217663E+05   -1.7584316E+00
   2.4221001E-04   2.3030346E+05   -1.7578562E+00
   2.4332857E-04   2.2844600E+05   -1.7572807E+00
   2.4445228E-04   2.2660413E+05   -1.7567052E+00
   2.4558119E-04   2.2477770E+05   -1.7561296E+00
   2.4671531E-04   2.2296658E+05   -1.7555539E+00
   2.4785467E-04   2.2117065E+05   -1.7549782E+00
   2.4899928E-04   2.1938976E+05   -1.7544024E+00
   2.5014919E-04   2.1762379E+05   -1.7538265E+00
   2.5130440E-04   2.1587261E+05   -1.7532507E+00
   2.5246495E-04   2.1413609E+05   -1.7526748E+00
   2.5363086E-04   2.1241410E+05   -1.7520988E+00
   2.5480216E-04   2.1070651E+05   -1.7515229E+00
   2.5597886E-04   2.0901321E+05   -1.7509469E+00
   2.5716100E-04   2.0733407E+05   -1.7503709E+00
   2.5834859E-04   2.0566896E+05   -1.7497949E+00
   2.5954168E-04   2.0401777E+05   -1.7492189E+00
   2.6074027E-04   2.0238037E+05   -1.7486429E+00
   2.6194439E-04   2.0075664E+05   -1.7480669E+00
   2.6315408E-04   1.9914647E+05   -1.7474910E+00
   2.6436935E-04   1.9754974E+05   -1.7469151E+00
   2.6559024E-04   1.9596633E+05   -1.7463392E+00
   2.6681676E-04   1.9439613E+05   -1.7457633E+00
   2.6804895E-04   1.9283902E+05   -1.7451875E+00
   2.6928683E-04   1.9129489E+05   -1.7446118E+00
   2.7053042E-04   1.8976363E+05   -1.7440361E+00
   2.7177976E-04   1.8824512E+05   -1.7434604E+00
   2.7303487E-04   1.8673926E+05   -1.7428849E+00
   2.7429577E-04   1.8524594E+05   -1.7423094E+00
   2.7556250E-04   1.8376505E+05   -1.7417339E+00
   2.7683507E-04   1.8229648E+05   -1.7411586E+00
   2.7811353E-04   1.8084013E+05   -1.7405834E+00
   2.7939788E-04   1.7939588E+05   -1.7400083E+00
   2.8068817E-04   1.7796364E+05   -1.7394332E+00
   2.8198442E-04   1.7654331E+05   -1.7388583E+00
   2.8328665E-04   1.7513477E+05   -1.7382835E+00
   2.8459490E-04   1.7373793E+05   -1.7377088E+00
   2.8590919E-04   1.7235269E+05   -1.7371343E+00
   2.8722955E-04   1.7097894E+05   -1.7365599E+00
   2.8855600E-04   1.6961660E+05   -1.7359856E+00
   2.8988859E-04   1.6826555E+05   -1.7354115E+00
   2.9122732E-04   1.6692571E+05   -1.7348375E+00
   2.9257224E-04   1.6559697E+05   -1.7342637E+00
   2.9392337E-04   1.6427925E+05   -1.7336901E+00
   2.9528074E-04   1.6297244E+05   -1.7331166E+00
   2.9664438E-04   1.6167645E+05   -1.7325433E+00
   2.9801431E-04   1.6039119E+05   -1.7319702E+00
   2.9939057E-04   1.5911657E+05   -1.7313973E+00
   3.0077319E-04   1.5785250E+05   -1.7308246E+00
   3.0216219E-04   1.5659888E+05   -1.7302521E+00
   3.0355761E-04   1.5535563E+05   -1.7296798E+00
   3.0495947E-04   1.5412265E+05   -1.7291077E+00
   3.0636780E-04   1.5289987E+05   -1.7285358E+00
   3.0778264E-04   1.5168718E+05   -1.7279641E+00
   3.0920401E-04   1.5048451E+05   -1.7273927E+00
   3.1063195E-04   1.4929176E+05   -1.7268215E+00
   3.1206648E-04   1.4810886E+05   -1.7262506E+00
   3.1350764E-04   1.4693572E+05   -1.7256799E+00
   3.1495545E-04   1.4577226E+05   -1.7251095E+00
   3.1640994E-04   1.4461838E+05   -1.7245393E+00
   3.1787116E-04   1.4347402E+05   -1.7239694E+00
   3.1933912E-04   1.4233909E+05   -1.7233997E+00
   3.2081386E-04   1.4121350E+05   -1.7228304E+00
   3.2229541E-04   1.4009718E+05   -1.7222613E+00
   3.2378381E-04   1.3899006E+05   -1.7216925E+00
   3.2527908E-04   1.3789204E+05   -1.7211241E+00
   3.2678125E-04   1.3680305E+05   -1.7205559E+00
   3.2829036E-04   1.3572302E+05   -1.7199880E+00
   3.2980644E-04   1.3465187E+05   -1.7194204E+00
   3.3132952E-04   1.3358952E+05   -1.7188532E+00
   3.3285963E-04   1.3253590E+05   -1.7182863E+00
   3.3439681E-04   1.3149094E+05   -1.7177197E+00
   3.3594109E-04   1.3045455E+05   -1.7171534E+00
   3.3749250E-04   1.2942667E+05   -1.7165875E+00
   3.3905108E-04   1.2840722E+05   -1.7160220E+00
   3.4061685E-04   1.2739613E+05   -1.7154568E+00
   3.4218986E-04   1.2639334E+05   -1.7148919E+00
   3.4377013E-04   1.2539876E+05   -1.7143274E+00
   3.4535769E-04   1.2441234E+05   -1.7137633E+00
   3.4695259E-04   1.2343399E+05   -1.7131996E+00
   3.4855485E-04   1.2246366E+05   -1.7126362E+00
   3.5016452E-04   1.2150126E+05   -1.7120733E+00
   3.5178161E-04   1.2054675E+05   -1.7115107E+00
   3.5340618E-04   1.1960004E+05   -1.7109485E+00
   3.5503824E-04   1.1866107E+05   -1.7103867E+00
   3.5667785E-04   1.1772979E+05   -1.7098254E+00
   3.5832502E-04   1.1680611E+05   -1.7092644E+00
   3.5997981E-04   1.1588998E+05   -1.7087039E+00
   3.6164223E-04   1.1498133E+05   -1.7081438E+00
   3.6331233E-04   1.1408010E+05   -1.7075841E+00
   3.6499015E-04   1.1318622E+05   -1.7070249E+00
   3.6667571E-04   1.1229964E+05   -1.7064661E+00
   3.6836906E-04   1.1142029E+05   -1.7059077E+00
   3.7007022E-04   1.1054811E+05   -1.7053499E+00
   3.7177925E-04   1.0968304E+05   -1.7047924E+00
   3.7349616E-04   1.0882502E+05   -1.7042355E+00
   3.7522101E-04   1.0797398E+05   -1.7036790E+00
   3.7695382E-04   1.0712988E+05   -1.7031229E+00
   3.7869463E-04   1.0629265E+05   -1.7025674E+00
   3.8044348E-04   1.0546223E+05   -1.7020123E+00
   3.8220041E-04   1.0463856E+05   -1.7014577E+00
   3.8396545E-04   1.0382160E+05   -1.7009037E+00
   3.8573864E-04   1.0301127E+05   -1.7003501E+00
   3.8752002E-04   1.0220753E+05   -1.6997970E+00
   3.8930963E-04   1.0141032E+05   -1.6992445E+00
   3.9110750E-04   1.0061959E+05   -1.6986924E+00
   3.9291368E-04   9.9835269E+04   -1.6981409E+00
   3.9472820E-04   9.9057318E+04   -1.6975899E+00
   3.9655109E-04   9.8285678E+04   -1.6970394E+00
   3.9838241E-04   9.7520296E+04   -1.6964895E+00
   4.0022218E-04   9.6761119E+04   -1.6959401E+00
   4.0207045E-04   9.6008095E+04   -1.6953913E+00
   4.0392725E-04   9.5261173E+04   -1.6948430E+00
   4.0579263E-04   9.4520300E+04   -1.6942952E+00
   4.0766662E-04   9.3785426E+04   -1.6937481E+00
   4.0954927E-04   9.3056499E+04   -1.6932015E+00
   4.1144061E-04   9.2333471E+04   -1.6926554E+00
   4.1334068E-04   9.1616290E+04   -1.6921100E+00
   4.1524953E-04   9.0904909E+04   -1.6915651E+00
   4.1716720E-04   9.0199277E+04   -1.6910208E+00
   4.1909372E-04   8.9499347E+04   -1.6904771E+00
   4.2102914E-04   8.8805071E+04   -1.6899340E+00
   4.2297350E-04   8.8116401E+04   -1.6893915E+00
   4.2492683E-04   8.7433289E+04   -1.6888496E+00
   4.2688919E-04   8.6755690E+04   -1.6883083E+00
   4.2886061E-04   8.6083557E+04   -1.6877676E+00
   4.3084113E-04   8.5416844E+04   -1.6872275E+00
   4.3283080E-04   8.4755506E+04   -1.6866881E+00
   4.3482966E-04   8.4099497E+04   -1.6861493E+00
   4.3683775E-04   8.3448772E+04   -1.6856111E+00
   4.3885511E-04   8.2803287E+04   -1.6850736E+00
   4.4088179E-04   8.2162999E+04   -1.6845367E+00
   4.4291783E-04   8.1527863E+04   -1.6840004E+00
   4.4496327E-04   8.0897837E+04   -1.6834649E+00
   4.4701816E-04   8.0272878E+04   -1.6829299E+00
   4.4908253E-04   7.9652942E+04   -1.6823956E+00
   4.5115644E-04   7.9037989E+04   -1.6818620E+00
   4.5323993E-04   7.8427976E+04   -1.6813291E+00
   4.5533304E-04   7.7822862E+04   -1.6807968E+00
   4.5743582E-04   7.7222607E+04   -1.6802652E+00
   4.5954830E-04   7.6627169E+04   -1.6797343E+00
   4.6167054E-04   7.6036507E+04   -1.6792040E+00
   4.6380259E-04   7.5450583E+04   -1.6786745E+00
   4.6594448E-04   7.4869357E+04   -1.6781457E+00
   4.6809626E-04   7.4292789E+04   -1.6776175E+00
   4.7025797E-04   7.3720840E+04   -1.6770901E+00
   4.7242967E-04   7.3153472E+04   -1.6765633E+00
   4.7461140E-04   7.2590647E+04   -1.6760373E+00
   4.7680321E-04   7.2032326E+04   -1.6755120E+00
   4.7900514E-04   7.1478473E+04   -1.6749874E+00
   4.8121723E-04   7.0929049E+04   -1.6744636E+00
   4.8343954E-04   7.0384019E+04   -1.6739404E+00
   4.8567212E-04   6.9843344E+04   -1.6734180E+00
   4.8791500E-04   6.9306990E+04   -1.6728964E+00
   4.9016825E-04   6.8774920E+04   -1.6723754E+00
   4.9243189E-04   6.8247098E+04   -1.6718552E+00
   4.9470600E-04   6.7723490E+04   -1.6713358E+00
   4.9699060E-04   6.7204059E+04   -1.6708171E+00
   4.9928575E-04   6.6688771E+04   -1.6702992E+00
   5.0159151E-04   6.6177592E+04   -1.6697820E+00
   5.0390791E-04   6.5670488E+04   -1.6692656E+00
   5.0623501E-04   6.5167425E+04   -1.6687500E+00
   5.0857286E-04   6.4668369E+04   -1.6682351E+00
   5.1092150E-04   6.4173286E+04   -1.6677210E+00
   5.1328099E-04   6.3682145E+04   -1.6672077E+00
   5.1565137E-04   6.3194912E+04   -1.6666952E+00
   5.1803270E-04   6.2711555E+04   -1.6661834E+00
   5.2042503E-04   6.2232041E+04   -1.6656724E+00
   5.2282841E-04   6.1756339E+04   -1.6651623E+00
   5.2524289E-04   6.1284418E+04   -1.6646529E+00
   5.2766851E-04   6.0816245E+04   -1.6641443E+00
   5.3010534E-04   6.0351790E+04   -1.6636366E+00
   5.3255342E-04   5.9891022E+04   -1.6631296E+00
   5.3501281E-04   5.9433911E+04   -1.6626234E+00
   5.3748356E-04   5.8980426E+04   -1.6621181E+00
   5.3996571E-04   5.8530537E+04   -1.6616136E+00
   5.4245933E-04   5.8084215E+04   -1.6611099E+00
   5.4496446E-04   5.7641430E+04   -1.6606070E+00
   5.4748117E-04   5.7202153E+04   -1.6601049E+00
   5.5000949E-04   5.6766355E+04   -1.6596037E+00
   5.5254949E-04   5.6334006E+04   -1.6591033E+00
   5.5510123E-04   5.5905080E+04   -1.6586038E+00
   5.5766474E-04   5.5479547E+04   -1.6581051E+00
   5.6024010E-04   5.5057379E+04   -1.6576072E+00
   5.6282734E-04   5.4638549E+04   -1.6571102E+00
   5.6542654E-04   5.4223029E+04   -1.6566140E+00
   5.6803774E-04   5.3810792E+04   -1.6561187E+00
   5.7066099E-04   5.3401811E+04   -1.6556242E+00
   5.7329637E-04   5.2996059E+04   -1.6551306E+00
   5.7594391E-04   5.2593509E+04   -1.6546379E+00
   5.7860368E-04   5.2194136E+04   -1.6541460E+00
   5.8127573E-04   5.1797912E+04   -1.6536550E+00
   5.8396012E-04   5.1404813E+04   -1.6531648E+00
   5.8665691E-04   5.1014812E+04   -1.6526755E+00
   5.8936616E-04   5.0627884E+04   -1.6521871E+00
   5.9208791E-04   5.0244003E+04   -1.6516996E+00
   5.9482223E-04   4.9863145E+04   -1.6512130E+00
   5.9756919E-04   4.9485285E+04   -1.6507272E+00
   6.0032882E-04   4.9110398E+04   -1.6502424E+00
   6.0310120E-04   4.8738460E+04   -1.6497584E+00
   6.0588639E-04   4.8369447E+04   -1.6492753E+00
   6.0868443E-04   4.8003334E+04   -1.6487931E+00
   6.1149540E-04   4.7640098E+04   -1.6483118E+00
   6.1431935E-04   4.7279716E+04   -1.6478314E+00
   6.1715634E-04   4.6922163E+04   -1.6473519E+00
   6.2000644E-04   4.6567418E+04   -1.6468733E+00
   6.2286969E-04   4.6215456E+04   -1.6463957E+00
