#        a       HoverH0(a)       dlogHdloga_of_a(a)
   1.0000000E-04   1.1646594E+06   -1.8893494E+00
   1.0046181E-04   1.1545660E+06   -1.8889518E+00
   1.0092575E-04   1.1445621E+06   -1.8885533E+00
   1.0139184E-04   1.1346470E+06   -1.8881537E+00
   1.0186008E-04   1.1248198E+06   -1.8877532E+00
   1.0233048E-04   1.1150799E+06   -1.8873516E+00
   1.0280305E-04   1.1054263E+06   -1.8869490E+00
   1.0327781E-04   1.0958583E+06   -1.8865453E+00
   1.0375475E-04   1.0863752E+06   -1.8861407E+00
   1.0423390E-04   1.0769761E+06   -1.8857350E+00
   1.0471527E-04   1.0676604E+06   -1.8853283E+00
   1.0519885E-04   1.0584272E+06   -1.8849206E+00
   1.0568467E-04   1.0492758E+06   -1.8845119E+00
   1.0617274E-04   1.0402055E+06   -1.8841022E+00
   1.0666305E-04   1.0312156E+06   -1.8836915E+00
   1.0715563E-04   1.0223053E+06   -1.8832797E+00
   1.0765049E-04   1.0134740E+06   -1.8828669E+00
   1.0814763E-04   1.0047208E+06   -1.8824531E+00
   1.0864707E-04   9.9604514E+05   -1.8820384E+00
   1.0914881E-04   9.8744628E+05   -1.8816226E+00
   1.0965287E-04   9.7892353E+05   -1.8812057E+00
   1.1015926E-04   9.7047620E+05   -1.8807879E+00
   1.1066799E-04   9.6210363E+05   -1.8803691E+00
   1.1117906E-04   9.5380513E+05   -1.8799493E+00
   1.1169250E-04   9.4558003E+05   -1.8795284E+00
   1.1220831E-04   9.3742769E+05   -1.8791066E+00
   1.1272650E-04   9.2934744E+05   -1.8786837E+00
   1.1324708E-04   9.2133864E+05   -1.8782599E+00
   1.1377007E-04   9.1340064E+05   -1.8778350E+00
   1.1429547E-04   9.0553280E+05   -1.8774091E+00
   1.1482330E-04   8.9773451E+05   -1.8769823E+00
   1.1535356E-04   8.9000512E+05   -1.8765544E+00
   1.1588628E-04   8.8234402E+05   -1.8761255E+00
   1.1642145E-04   8.7475060E+05   -1.8756957E+00
   1.1695910E-04   8.6722425E+05   -1.8752648E+00
   1.1749923E-04   8.5976436E+05   -1.8748330E+00
   1.1804185E-04   8.5237034E+05   -1.8744001E+00
   1.1858698E-04   8.4504160E+05   -1.8739663E+00
   1.1913463E-04   8.3777754E+05   -1.8735314E+00
   1.1968481E-04   8.3057760E+05   -1.8730956E+00
   1.2023752E-04   8.2344118E+05   -1.8726588E+00
   1.2079279E-04   8.1636773E+05   -1.8722210E+00
   1.2135063E-04   8.0935668E+05   -1.8717822E+00
   1.2191104E-04   8.0240746E+05   -1.8713424E+00
   1.2247403E-04   7.9551953E+05   -1.8709016E+00
   1.2303963E-04   7.8869232E+05   -1.8704599E+00
   1.2360784E-04   7.8192529E+05   -1.8700171E+00
   1.2417868E-04   7.7521792E+05   -1.8695734E+00
   1.2475215E-04   7.6856965E+05   -1.8691287E+00
   1.2532826E-04   7.6197995E+05   -1.8686831E+00
   1.2590704E-04   7.5544831E+05   -1.8682364E+00
   1.2648850E-04   7.4897421E+05   -1.8677888E+00
   1.2707263E-04   7.4255711E+05   -1.8673402E+00
   1.2765947E-04   7.3619653E+05   -1.8668907E+00
   1.2824901E-04   7.2989194E+05   -1.8664401E+00
   1.2884128E-04   7.2364284E+05   -1.8659886E+00
   1.2943628E-04   7.1744874E+05   -1.8655362E+00
   1.3003403E-04   7.1130915E+05   -1.8650827E+00
   1.3063454E-04   7.0522357E+05   -1.8646283E+00
   1.3123783E-04   6.9919152E+05   -1.8641730E+00
   1.3184390E-04   6.9321252E+05   -1.8637167E+00
   1.3245277E-04   6.8728609E+05   -1.8632594E+00
   1.3306445E-04   6.8141177E+05   -1.8628012E+00
   1.3367895E-04   6.7558908E+05   -1.8623420E+00
   1.3429630E-04   6.6981757E+05   -1.8618818E+00
   1.3491649E-04   6.6409677E+05   -1.8614208E+00
   1.3553955E-04   6.5842624E+05   -1.8609587E+00
   1.3616548E-04   6.5280551E+05   -1.8604957E+00
   1.3679431E-04   6.4723415E+05   -1.8600318E+00
   1.3742604E-04   6.4171171E+05   -1.8595670E+00
   1.3806069E-04   6.3623776E+05   -1.8591012E+00
   1.3869827E-04   6.3081185E+05   -1.8586344E+00
   1.3933879E-04   6.2543356E+05   -1.8581667E+00
   1.3998227E-04   6.2010247E+05   -1.8576981E+00
   1.4062872E-04   6.1481814E+05   -1.8572286E+00
   1.4127816E-04   6.0958017E+05   -1.8567581E+00
   1.4193060E-04   6.0438813E+05   -1.8562867E+00
   1.4258605E-04   5.9924162E+05   -1.8558144E+00
   1.4324453E-04   5.9414022E+05   -1.8553412E+00
   1.4390605E-04   5.8908354E+05   -1.8548670E+00
   1.4457062E-04   5.8407118E+05   -1.8543919E+00
   1.4523826E-04   5.7910273E+05   -1.8539159E+00
   1.4590899E-04   5.7417781E+05   -1.8534390E+00
   1.4658281E-04   5.6929602E+05   -1.8529612E+00
   1.4725974E-04   5.6445699E+05   -1.8524825E+00
   1.4793981E-04   5.5966032E+05   -1.8520028E+00
   1.4862301E-04   5.5490564E+05   -1.8515223E+00
   1.4930936E-04   5.5019257E+05   -1.8510409E+00
   1.4999889E-04   5.4552074E+05   -1.8505585E+00
   1.5069160E-04   5.4088979E+05   -1.8500753E+00
   1.5138751E-04   5.3629934E+05   -1.8495912E+00
   1.5208663E-04   5.3174904E+05   -1.8491062E+00
   1.5278899E-04   5.2723853E+05   -1.8486203E+00
   1.5349458E-04   5.2276745E+05   -1.8481335E+00
   1.5420343E-04   5.1833545E+05   -1.8476458E+00
   1.5491556E-04   5.1394218E+05   -1.8471573E+00
   1.5563098E-04   5.0958729E+05   -1.8466679E+00
   1.5634970E-04   5.0527044E+05   -1.8461776E+00
   1.5707174E-04   5.0099130E+05   -1.8456864E+00
   1.5779711E-04   4.9674952E+05   -1.8451944E+00
   1.5852584E-04   4.9254477E+05   -1.8447015E+00
   1.5925792E-04   4.8837673E+05   -1.8442077E+00
   1.5999339E-04   4.8424505E+05   -1.8437131E+00
   1.6073226E-04   4.8014943E+05   -1.8432177E+00
   1.6147454E-04   4.7608953E+05   -1.8427213E+00
   1.6222024E-04   4.7206505E+05   -1.8422242E+00
   1.6296939E-04   4.6807565E+05   -1.8417262E+00
   1.6372200E-04   4.6412104E+05   -1.8412273E+00
   1.6447809E-04   4.6020090E+05   -1.8407276E+00
   1.6523767E-04   4.5631491E+05   -1.8402271E+00
   1.6600075E-04   4.5246279E+05   -1.8397257E+00
   1.6676736E-04   4.4864422E+05   -1.8392235E+00
   1.6753751E-04   4.4485891E+05   -1.8387205E+00
   1.6831122E-04   4.4110656E+05   -1.8382167E+00
   1.6908849E-04   4.3738688E+05   -1.8377120E+00
   1.6986936E-04   4.3369957E+05   -1.8372065E+00
   1.7065384E-04   4.3004435E+05   -1.8367002E+00
   1.7144193E-04   4.2642094E+05   -1.8361931E+00
   1.7223367E-04   4.2282904E+05   -1.8356852E+00
   1.7302906E-04   4.1926838E+05   -1.8351765E+00
   1.7382813E-04   4.1573867E+05   -1.8346670E+00
   1.7463089E-04   4.1223966E+05   -1.8341566E+00
   1.7543735E-04   4.0877105E+05   -1.8336455E+00
   1.7624754E-04   4.0533258E+05   -1.8331337E+00
   1.7706147E-04   4.0192399E+05   -1.8326210E+00
   1.7787916E-04   3.9854500E+05   -1.8321075E+00
   1.7870062E-04   3.9519536E+05   -1.8315933E+00
   1.7952588E-04   3.9187479E+05   -1.8310783E+00
   1.8035495E-04   3.8858305E+05   -1.8305625E+00
   1.8118785E-04   3.8531988E+05   -1.8300459E+00
   1.8202459E-04   3.8208502E+05   -1.8295286E+00
   1.8286520E-04   3.7887822E+05   -1.8290106E+00
   1.8370969E-04   3.7569923E+05   -1.8284917E+00
   1.8455808E-04   3.7254781E+05   -1.8279722E+00
   1.8541039E-04   3.6942371E+05   -1.8274518E+00
   1.8626663E-04   3.6632668E+05   -1.8269308E+00
   1.8712683E-04   3.6325649E+05   -1.8264090E+00
   1.8799100E-04   3.6021290E+05   -1.8258864E+00
   1.8885917E-04   3.5719567E+05   -1.8253631E+00
   1.8973134E-04   3.5420457E+05   -1.8248391E+00
   1.9060754E-04   3.5123936E+05   -1.8243144E+00
   1.9148778E-04   3.4829982E+05   -1.8237890E+00
   1.9237209E-04   3.4538572E+05   -1.8232628E+00
   1.9326049E-04   3.4249683E+05   -1.8227359E+00
   1.9415299E-04   3.3963292E+05   -1.8222084E+00
   1.9504960E-04   3.3679379E+05   -1.8216801E+00
   1.9595036E-04   3.3397920E+05   -1.8211511E+00
   1.9685528E-04   3.3118894E+05   -1.8206214E+00
   1.9776438E-04   3.2842279E+05   -1.8200911E+00
   1.9867768E-04   3.2568055E+05   -1.8195600E+00
   1.9959519E-04   3.2296199E+05   -1.8190283E+00
   2.0051694E-04   3.2026691E+05   -1.8184959E+00
   2.0144295E-04   3.1759510E+05   -1.8179628E+00
   2.0237324E-04   3.1494635E+05   -1.8174290E+00
   2.0330782E-04   3.1232046E+05   -1.8168946E+00
   2.0424671E-04   3.0971723E+05   -1.8163595E+00
   2.0518995E-04   3.0713645E+05   -1.8158238E+00
   2.0613754E-04   3.0457793E+05   -1.8152874E+00
   2.0708950E-04   3.0204148E+05   -1.8147504E+00
   2.0804586E-04   2.9952688E+05   -1.8142127E+00
   2.0900664E-04   2.9703396E+05   -1.8136744E+00
   2.0997185E-04   2.9456252E+05   -1.8131355E+00
   2.1094152E-04   2.9211236E+05   -1.8125959E+00
   2.1191567E-04   2.8968331E+05   -1.8120557E+00
   2.1289432E-04   2.8727517E+05   -1.8115149E+00
   2.1387749E-04   2.8488776E+05   -1.8109735E+00
   2.1486520E-04   2.8252089E+05   -1.8104315E+00
   2.1585747E-04   2.8017439E+05   -1.8098889E+00
   2.1685432E-04   2.7784807E+05   -1.8093456E+00
   2.1785578E-04   2.7554176E+05   -1.8088018E+00
   2.1886186E-04   2.7325528E+05   -1.8082574E+00
   2.1987259E-04   2.7098845E+05   -1.8077124E+00
   2.2088798E-04   2.6874111E+05   -1.8071668E+00
   2.2190807E-04   2.6651307E+05   -1.8066206E+00
   2.2293286E-04   2.6430416E+05   -1.8060739E+00
   2.2396239E-04   2.6211423E+05   -1.8055266E+00
   2.2499667E-04   2.5994309E+05   -1.8049787E+00
   2.2603573E-04   2.5779060E+05   -1.8044303E+00
   2.2707958E-04   2.5565657E+05   -1.8038814E+00
   2.2812826E-04   2.5354085E+05   -1.8033318E+00
   2.2918178E-04   2.5144327E+05   -1.8027818E+00
   2.3024017E-04   2.4936368E+05   -1.8022312E+00
   2.3130344E-04   2.4730192E+05   -1.8016801E+00
   2.3237162E-04   2.4525783E+05   -1.8011285E+00
   2.3344474E-04   2.4323125E+05   -1.8005763E+00
   2.3452281E-04   2.4122203E+05   -1.8000236E+00
   2.3560586E-04   2.3923002E+05   -1.7994704E+00
   2.3669392E-04   2.3725506E+05   -1.7989167E+00
   2.3778699E-04   2.3529701E+05   -1.7983625E+00
   2.3888512E-04   2.3335571E+05   -1.7978078E+00
   2.3998831E-04   2.3143103E+05   -1.7972527E+00
   2.4109661E-04   2.2952280E+05   -1.7966970E+00
   2.4221001E-04   2.2763089E+05   -1.7961409E+00
   2.4332857E-04   2.2575515E+05   -1.7955843E+00
   2.4445228E-04   2.2389545E+05   -1.7950272E+00
   2.4558119E-04   2.2205163E+05   -1.7944696E+00
   2.4671531E-04   2.2022357E+05   -1.7939116E+00
   2.4785467E-04   2.1841112E+05   -1.7933532E+00
   2.4899928E-04   2.1661414E+05   -1.7927943E+00
   2.5014919E-04   2.1483250E+05   -1.7922349E+00
   2.5130440E-04   2.1306606E+05   -1.7916751E+00
   2.5246495E-04   2.1131469E+05   -1.7911149E+00
   2.5363086E-04   2.0957826E+05   -1.7905543E+00
   2.5480216E-04   2.0785663E+05   -1.7899932E+00
   2.5597886E-04   2.0614968E+05   -1.7894318E+00
   2.5716100E-04   2.0445728E+05   -1.7888699E+00
   2.5834859E-04   2.0277930E+05   -1.7883076E+00
   2.5954168E-04   2.0111561E+05   -1.7877449E+00
   2.6074027E-04   1.9946608E+05   -1.7871819E+00
   2.6194439E-04   1.9783060E+05   -1.7866184E+00
   2.6315408E-04   1.9620904E+05   -1.7860546E+00
   2.6436935E-04   1.9460127E+05   -1.7854904E+00
   2.6559024E-04   1.9300718E+05   -1.7849258E+00
   2.6681676E-04   1.9142665E+05   -1.7843608E+00
   2.6804895E-04   1.8985956E+05   -1.7837955E+00
   2.6928683E-04   1.8830578E+05   -1.7832299E+00
   2.7053042E-04   1.8676521E+05   -1.7826639E+00
   2.7177976E-04   1.8523772E+05   -1.7820975E+00
   2.7303487E-04   1.8372321E+05   -1.7815308E+00
   2.7429577E-04   1.8222155E+05   -1.7809638E+00
   2.7556250E-04   1.8073264E+05   -1.7803965E+00
   2.7683507E-04   1.7925637E+05   -1.7798288E+00
   2.7811353E-04   1.7779262E+05   -1.7792609E+00
   2.7939788E-04   1.7634128E+05   -1.7786926E+00
   2.8068817E-04   1.7490225E+05   -1.7781240E+00
   2.8198442E-04   1.7347542E+05   -1.7775551E+00
   2.8328665E-04   1.7206067E+05   -1.7769860E+00
   2.8459490E-04   1.7065792E+05   -1.7764165E+00
   2.8590919E-04   1.6926704E+05   -1.7758468E+00
   2.8722955E-04   1.6788794E+05   -1.7752768E+00
   2.8855600E-04   1.6652051E+05   -1.7747066E+00
   2.8988859E-04   1.6516466E+05   -1.7741360E+00
   2.9122732E-04   1.6382027E+05   -1.7735653E+00
   2.9257224E-04   1.6248726E+05   -1.7729942E+00
   2.9392337E-04   1.6116551E+05   -1.7724230E+00
   2.9528074E-04   1.5985494E+05   -1.7718515E+00
   2.9664438E-04   1.5855545E+05   -1.7712797E+00
   2.9801431E-04   1.5726693E+05   -1.7707078E+00
   2.9939057E-04   1.5598930E+05   -1.7701356E+00
   3.0077319E-04   1.5472245E+05   -1.7695632E+00
   3.0216219E-04   1.5346629E+05   -1.7689906E+00
   3.0355761E-04   1.5222074E+05   -1.7684178E+00
   3.0495947E-04   1.5098569E+05   -1.7678448E+00
   3.0636780E-04   1.4976106E+05   -1.7672716E+00
   3.0778264E-04   1.4854676E+05   -1.7666983E+00
   3.0920401E-04   1.4734269E+05   -1.7661247E+00
   3.1063195E-04   1.4614876E+05   -1.7655510E+00
   3.1206648E-04   1.4496489E+05   -1.7649771E+00
   3.1350764E-04   1.4379100E+05   -1.7644031E+00
   3.1495545E-04   1.4262698E+05   -1.7638289E+00
   3.1640994E-04   1.4147277E+05   -1.7632546E+00
   3.1787116E-04   1.4032826E+05   -1.7626801E+00
   3.1933912E-04   1.3919339E+05   -1.7621055E+00
   3.2081386E-04   1.3806806E+05   -1.7615307E+00
   3.2229541E-04   1.3695218E+05   -1.7609559E+00
   3.2378381E-04   1.3584569E+05   -1.7603809E+00
   3.2527908E-04   1.3474849E+05   -1.7598058E+00
   3.2678125E-04   1.3366051E+05   -1.7592306E+00
   3.2829036E-04   1.3258167E+05   -1.7586553E+00
   3.2980644E-04   1.3151188E+05   -1.7580799E+00
   3.3132952E-04   1.3045107E+05   -1.7575044E+00
   3.3285963E-04   1.2939915E+05   -1.7569289E+00
   3.3439681E-04   1.2835607E+05   -1.7563532E+00
   3.3594109E-04   1.2732172E+05   -1.7557775E+00
   3.3749250E-04   1.2629605E+05   -1.7552018E+00
   3.3905108E-04   1.2527898E+05   -1.7546260E+00
   3.4061685E-04   1.2427042E+05   -1.7540501E+00
   3.4218986E-04   1.2327031E+05   -1.7534742E+00
   3.4377013E-04   1.2227857E+05   -1.7528982E+00
   3.4535769E-04   1.2129514E+05   -1.7523223E+00
   3.4695259E-04   1.2031993E+05   -1.7517463E+00
   3.4855485E-04   1.1935288E+05   -1.7511702E+00
   3.5016452E-04   1.1839391E+05   -1.7505942E+00
   3.5178161E-04   1.1744297E+05   -1.7500182E+00
   3.5340618E-04   1.1649997E+05   -1.7494421E+00
   3.5503824E-04   1.1556485E+05   -1.7488661E+00
   3.5667785E-04   1.1463754E+05   -1.7482900E+00
   3.5832502E-04   1.1371797E+05   -1.7477140E+00
   3.5997981E-04   1.1280607E+05   -1.7471380E+00
   3.6164223E-04   1.1190179E+05   -1.7465621E+00
   3.6331233E-04   1.1100505E+05   -1.7459862E+00
   3.6499015E-04   1.1011579E+05   -1.7454103E+00
   3.6667571E-04   1.0923394E+05   -1.7448345E+00
   3.6836906E-04   1.0835945E+05   -1.7442587E+00
   3.7007022E-04   1.0749223E+05   -1.7436830E+00
   3.7177925E-04   1.0663224E+05   -1.7431073E+00
   3.7349616E-04   1.0577942E+05   -1.7425317E+00
   3.7522101E-04   1.0493369E+05   -1.7419562E+00
   3.7695382E-04   1.0409500E+05   -1.7413808E+00
   3.7869463E-04   1.0326328E+05   -1.7408055E+00
   3.8044348E-04   1.0243849E+05   -1.7402303E+00
   3.8220041E-04   1.0162055E+05   -1.7396551E+00
   3.8396545E-04   1.0080940E+05   -1.7390801E+00
   3.8573864E-04   1.0000500E+05   -1.7385052E+00
   3.8752002E-04   9.9207282E+04   -1.7379304E+00
   3.8930963E-04   9.8416185E+04   -1.7373558E+00
   3.9110750E-04   9.7631655E+04   -1.7367812E+00
   3.9291368E-04   9.6853635E+04   -1.7362069E+00
   3.9472820E-04   9.6082070E+04   -1.7356326E+00
   3.9655109E-04   9.5316903E+04   -1.7350585E+00
   3.9838241E-04   9.4558079E+04   -1.7344846E+00
   4.0022218E-04   9.3805545E+04   -1.7339108E+00
   4.0207045E-04   9.3059246E+04   -1.7333372E+00
   4.0392725E-04   9.2319128E+04   -1.7327638E+00
   4.0579263E-04   9.1585139E+04   -1.7321906E+00
   4.0766662E-04   9.0857225E+04   -1.7316175E+00
   4.0954927E-04   9.0135334E+04   -1.7310447E+00
   4.1144061E-04   8.9419415E+04   -1.7304720E+00
   4.1334068E-04   8.8709417E+04   -1.7298996E+00
   4.1524953E-04   8.8005288E+04   -1.7293273E+00
   4.1716720E-04   8.7306978E+04   -1.7287553E+00
   4.1909372E-04   8.6614437E+04   -1.7281835E+00
   4.2102914E-04   8.5927616E+04   -1.7276119E+00
   4.2297350E-04   8.5246465E+04   -1.7270406E+00
   4.2492683E-04   8.4570937E+04   -1.7264695E+00
   4.2688919E-04   8.3900983E+04   -1.7258986E+00
   4.2886061E-04   8.3236555E+04   -1.7253280E+00
   4.3084113E-04   8.2577605E+04   -1.7247577E+00
   4.3283080E-04   8.1924088E+04   -1.7241876E+00
   4.3482966E-04   8.1275956E+04   -1.7236178E+00
   4.3683775E-04   8.0633163E+04   -1.7230482E+00
   4.3885511E-04   7.9995663E+04   -1.7224790E+00
   4.4088179E-04   7.9363412E+04   -1.7219100E+00
   4.4291783E-04   7.8736364E+04   -1.7213414E+00
   4.4496327E-04   7.8114475E+04   -1.7207730E+00
   4.4701816E-04   7.7497701E+04   -1.7202049E+00
   4.4908253E-04   7.6885998E+04   -1.7196372E+00
   4.5115644E-04   7.6279323E+04   -1.7190697E+00
   4.5323993E-04   7.5677633E+04   -1.7185026E+00
   4.5533304E-04   7.5080885E+04   -1.7179358E+00
   4.5743582E-04   7.4489037E+04   -1.7173694E+00
   4.5954830E-04   7.3902047E+04   -1.7168033E+00
   4.6167054E-04   7.3319874E+04   -1.7162375E+00
   4.6380259E-04   7.2742477E+04   -1.7156721E+00
   4.6594448E-04   7.2169815E+04   -1.7151070E+00
   4.6809626E-04   7.1601847E+04   -1.7145423E+00
   4.7025797E-04   7.1038534E+04   -1.7139780E+00
   4.7242967E-04   7.0479836E+04   -1.7134140E+00
   4.7461140E-04   6.9925713E+04   -1.7128504E+00
   4.7680321E-04   6.9376127E+04   -1.7122872E+00
   4.7900514E-04   6.8831039E+04   -1.7117244E+00
   4.8121723E-04   6.8290411E+04   -1.7111620E+00
   4.8343954E-04   6.7754205E+04   -1.7106000E+00
   4.8567212E-04   6.7222383E+04   -1.7100384E+00
   4.8791500E-04   6.6694909E+04   -1.7094772E+00
   4.9016825E-04   6.6171744E+04   -1.7089165E+00
   4.9243189E-04   6.5652852E+04   -1.7083561E+00
   4.9470600E-04   6.5138197E+04   -1.7077962E+00
   4.9699060E-04   6.4627744E+04   -1.7072367E+00
   4.9928575E-04   6.4121455E+04   -1.7066777E+00
   5.0159151E-04   6.3619297E+04   -1.7061191E+00
   5.0390791E-04   6.3121234E+04   -1.7055609E+00
   5.0623501E-04   6.2627231E+04   -1.7050032E+00
   5.0857286E-04   6.2137254E+04   -1.7044460E+00
   5.1092150E-04   6.1651268E+04   -1.7038892E+00
   5.1328099E-04   6.1169241E+04   -1.7033329E+00
   5.1565137E-04   6.0691137E+04   -1.7027771E+00
   5.1803270E-04   6.0216925E+04   -1.7022218E+00
   5.2042503E-04   5.9746571E+04   -1.7016669E+00
   5.2282841E-04   5.9280042E+04   -1.7011126E+00
   5.2524289E-04   5.8817306E+04   -1.7005587E+00
   5.2766851E-04   5.8358331E+04   -1.7000054E+00
   5.3010534E-04   5.7903085E+04   -1.6994525E+00
   5.3255342E-04   5.7451537E+04   -1.6989002E+00
   5.3501281E-04   5.7003655E+04   -1.6983484E+00
   5.3748356E-04   5.6559408E+04   -1.6977971E+00
   5.3996571E-04   5.6118766E+04   -1.6972463E+00
   5.4245933E-04   5.5681699E+04   -1.6966961E+00
   5.4496446E-04   5.5248175E+04   -1.6961464E+00
   5.4748117E-04   5.4818166E+04   -1.6955973E+00
   5.5000949E-04   5.4391640E+04   -1.6950487E+00
   5.5254949E-04   5.3968570E+04   -1.6945006E+00
   5.5510123E-04   5.3548926E+04   -1.6939531E+00
   5.5766474E-04   5.3132678E+04   -1.6934062E+00
   5.6024010E-04   5.2719799E+04   -1.6928599E+00
   5.6282734E-04   5.2310260E+04   -1.6923141E+00
   5.6542654E-04   5.1904033E+04   -1.6917689E+00
   5.6803774E-04   5.1501090E+04   -1.6912243E+00
   5.7066099E-04   5.1101403E+04   -1.6906803E+00
   5.7329637E-04   5.0704945E+04   -1.6901368E+00
   5.7594391E-04   5.0311689E+04   -1.6895940E+00
   5.7860368E-04   4.9921607E+04   -1.6890518E+00
   5.8127573E-04   4.9534674E+04   -1.6885101E+00
   5.8396012E-04   4.9150862E+04   -1.6879691E+00
   5.8665691E-04   4.8770146E+04   -1.6874287E+00
   5.8936616E-04   4.8392499E+04   -1.6868890E+00
   5.9208791E-04   4.8017895E+04   -1.6863498E+00
   5.9482223E-04   4.7646310E+04   -1.6858113E+00
   5.9756919E-04   4.7277718E+04   -1.6852734E+00
   6.0032882E-04   4.6912093E+04   -1.6847362E+00
   6.0310120E-04   4.6549411E+04   -1.6841996E+00
   6.0588639E-04   4.6189646E+04   -1.6836636E+00
   6.0868443E-04   4.5832776E+04   -1.6831283E+00
   6.1149540E-04   4.5478775E+04   -1.6825937E+00
   6.1431935E-04   4.5127619E+04   -1.6820597E+00
   6.1715634E-04   4.4779285E+04   -1.6815264E+00
   6.2000644E-04   4.4433748E+04   -1.6809938E+00
   6.2286969E-04   4.4090986E+04   -1.6804618E+00
