#        a       HoverH0(a)       dlogHdloga_of_a(a)
   1.0000000E-04   1.0944352E+06   -1.8363642E+00
   1.0046181E-04   1.0852155E+06   -1.8358566E+00
   1.0092575E-04   1.0760760E+06   -1.8353482E+00
   1.0139184E-04   1.0670160E+06   -1.8348389E+00
   1.0186008E-04   1.0580347E+06   -1.8343289E+00
   1.0233048E-04   1.0491315E+06   -1.8338181E+00
   1.0280305E-04   1.0403057E+06   -1.8333065E+00
   1.0327781E-04   1.0315565E+06   -1.8327941E+00
   1.0375475E-04   1.0228834E+06   -1.8322809E+00
   1.0423390E-04   1.0142856E+06   -1.8317670E+00
   1.0471527E-04   1.0057624E+06   -1.8312523E+00
   1.0519885E-04   9.9731321E+05   -1.8307368E+00
   1.0568467E-04   9.8893736E+05   -1.8302205E+00
   1.0617274E-04   9.8063418E+05   -1.8297035E+00
   1.0666305E-04   9.7240304E+05   -1.8291857E+00
   1.0715563E-04   9.6424329E+05   -1.8286671E+00
   1.0765049E-04   9.5615430E+05   -1.8281479E+00
   1.0814763E-04   9.4813543E+05   -1.8276278E+00
   1.0864707E-04   9.4018608E+05   -1.8271070E+00
   1.0914881E-04   9.3230560E+05   -1.8265855E+00
   1.0965287E-04   9.2449341E+05   -1.8260632E+00
   1.1015926E-04   9.1674888E+05   -1.8255402E+00
   1.1066799E-04   9.0907142E+05   -1.8250165E+00
   1.1117906E-04   9.0146044E+05   -1.8244920E+00
   1.1169250E-04   8.9391533E+05   -1.8239669E+00
   1.1220831E-04   8.8643553E+05   -1.8234410E+00
   1.1272650E-04   8.7902044E+05   -1.8229144E+00
   1.1324708E-04   8.7166950E+05   -1.8223871E+00
   1.1377007E-04   8.6438213E+05   -1.8218590E+00
   1.1429547E-04   8.5715777E+05   -1.8213303E+00
   1.1482330E-04   8.4999587E+05   -1.8208009E+00
   1.1535356E-04   8.4289586E+05   -1.8202708E+00
   1.1588628E-04   8.3585721E+05   -1.8197400E+00
   1.1642145E-04   8.2887935E+05   -1.8192086E+00
   1.1695910E-04   8.2196177E+05   -1.8186764E+00
   1.1749923E-04   8.1510391E+05   -1.8181436E+00
   1.1804185E-04   8.0830526E+05   -1.8176101E+00
   1.1858698E-04   8.0156529E+05   -1.8170759E+00
   1.1913463E-04   7.9488347E+05   -1.8165411E+00
   1.1968481E-04   7.8825930E+05   -1.8160056E+00
   1.2023752E-04   7.8169225E+05   -1.8154695E+00
   1.2079279E-04   7.7518184E+05   -1.8149327E+00
   1.2135063E-04   7.6872755E+05   -1.8143953E+00
   1.2191104E-04   7.6232889E+05   -1.8138572E+00
   1.2247403E-04   7.5598537E+05   -1.8133186E+00
   1.2303963E-04   7.4969649E+05   -1.8127792E+00
   1.2360784E-04   7.4346178E+05   -1.8122393E+00
   1.2417868E-04   7.3728075E+05   -1.8116987E+00
   1.2475215E-04   7.3115293E+05   -1.8111575E+00
   1.2532826E-04   7.2507786E+05   -1.8106158E+00
   1.2590704E-04   7.1905505E+05   -1.8100734E+00
   1.2648850E-04   7.1308406E+05   -1.8095304E+00
   1.2707263E-04   7.0716441E+05   -1.8089868E+00
   1.2765947E-04   7.0129567E+05   -1.8084426E+00
   1.2824901E-04   6.9547738E+05   -1.8078978E+00
   1.2884128E-04   6.8970909E+05   -1.8073525E+00
   1.2943628E-04   6.8399037E+05   -1.8068065E+00
   1.3003403E-04   6.7832076E+05   -1.8062600E+00
   1.3063454E-04   6.7269985E+05   -1.8057130E+00
   1.3123783E-04   6.6712720E+05   -1.8051653E+00
   1.3184390E-04   6.6160238E+05   -1.8046171E+00
   1.3245277E-04   6.5612497E+05   -1.8040684E+00
   1.3306445E-04   6.5069456E+05   -1.8035191E+00
   1.3367895E-04   6.4531072E+05   -1.8029693E+00
   1.3429630E-04   6.3997306E+05   -1.8024189E+00
   1.3491649E-04   6.3468115E+05   -1.8018680E+00
   1.3553955E-04   6.2943460E+05   -1.8013166E+00
   1.3616548E-04   6.2423301E+05   -1.8007646E+00
   1.3679431E-04   6.1907598E+05   -1.8002122E+00
   1.3742604E-04   6.1396311E+05   -1.7996592E+00
   1.3806069E-04   6.0889403E+05   -1.7991057E+00
   1.3869827E-04   6.0386834E+05   -1.7985517E+00
   1.3933879E-04   5.9888565E+05   -1.7979973E+00
   1.3998227E-04   5.9394560E+05   -1.7974423E+00
   1.4062872E-04   5.8904781E+05   -1.7968868E+00
   1.4127816E-04   5.8419190E+05   -1.7963309E+00
   1.4193060E-04   5.7937750E+05   -1.7957745E+00
   1.4258605E-04   5.7460425E+05   -1.7952176E+00
   1.4324453E-04   5.6987180E+05   -1.7946603E+00
   1.4390605E-04   5.6517976E+05   -1.7941025E+00
   1.4457062E-04   5.6052781E+05   -1.7935442E+00
   1.4523826E-04   5.5591557E+05   -1.7929855E+00
   1.4590899E-04   5.5134271E+05   -1.7924263E+00
   1.4658281E-04   5.4680887E+05   -1.7918668E+00
   1.4725974E-04   5.4231371E+05   -1.7913067E+00
   1.4793981E-04   5.3785689E+05   -1.7907463E+00
   1.4862301E-04   5.3343808E+05   -1.7901854E+00
   1.4930936E-04   5.2905694E+05   -1.7896241E+00
   1.4999889E-04   5.2471314E+05   -1.7890624E+00
   1.5069160E-04   5.2040635E+05   -1.7885003E+00
   1.5138751E-04   5.1613624E+05   -1.7879378E+00
   1.5208663E-04   5.1190251E+05   -1.7873750E+00
   1.5278899E-04   5.0770481E+05   -1.7868117E+00
   1.5349458E-04   5.0354285E+05   -1.7862480E+00
   1.5420343E-04   4.9941630E+05   -1.7856840E+00
   1.5491556E-04   4.9532486E+05   -1.7851196E+00
   1.5563098E-04   4.9126822E+05   -1.7845548E+00
   1.5634970E-04   4.8724606E+05   -1.7839897E+00
   1.5707174E-04   4.8325810E+05   -1.7834242E+00
   1.5779711E-04   4.7930402E+05   -1.7828583E+00
   1.5852584E-04   4.7538354E+05   -1.7822921E+00
   1.5925792E-04   4.7149635E+05   -1.7817256E+00
   1.5999339E-04   4.6764217E+05   -1.7811588E+00
   1.6073226E-04   4.6382071E+05   -1.7805916E+00
   1.6147454E-04   4.6003168E+05   -1.7800241E+00
   1.6222024E-04   4.5627480E+05   -1.7794563E+00
   1.6296939E-04   4.5254978E+05   -1.7788882E+00
   1.6372200E-04   4.4885634E+05   -1.7783198E+00
   1.6447809E-04   4.4519422E+05   -1.7777510E+00
   1.6523767E-04   4.4156313E+05   -1.7771820E+00
   1.6600075E-04   4.3796281E+05   -1.7766127E+00
   1.6676736E-04   4.3439298E+05   -1.7760432E+00
   1.6753751E-04   4.3085339E+05   -1.7754733E+00
   1.6831122E-04   4.2734375E+05   -1.7749032E+00
   1.6908849E-04   4.2386382E+05   -1.7743328E+00
   1.6986936E-04   4.2041333E+05   -1.7737622E+00
   1.7065384E-04   4.1699202E+05   -1.7731913E+00
   1.7144193E-04   4.1359965E+05   -1.7726202E+00
   1.7223367E-04   4.1023595E+05   -1.7720488E+00
   1.7302906E-04   4.0690068E+05   -1.7714772E+00
   1.7382813E-04   4.0359359E+05   -1.7709054E+00
   1.7463089E-04   4.0031444E+05   -1.7703333E+00
   1.7543735E-04   3.9706297E+05   -1.7697611E+00
   1.7624754E-04   3.9383896E+05   -1.7691886E+00
   1.7706147E-04   3.9064215E+05   -1.7686159E+00
   1.7787916E-04   3.8747231E+05   -1.7680431E+00
   1.7870062E-04   3.8432920E+05   -1.7674700E+00
   1.7952588E-04   3.8121260E+05   -1.7668968E+00
   1.8035495E-04   3.7812228E+05   -1.7663233E+00
   1.8118785E-04   3.7505799E+05   -1.7657497E+00
   1.8202459E-04   3.7201952E+05   -1.7651760E+00
   1.8286520E-04   3.6900664E+05   -1.7646021E+00
   1.8370969E-04   3.6601914E+05   -1.7640280E+00
   1.8455808E-04   3.6305678E+05   -1.7634538E+00
   1.8541039E-04   3.6011934E+05   -1.7628794E+00
   1.8626663E-04   3.5720662E+05   -1.7623049E+00
   1.8712683E-04   3.5431840E+05   -1.7617302E+00
   1.8799100E-04   3.5145446E+05   -1.7611555E+00
   1.8885917E-04   3.4861459E+05   -1.7605806E+00
   1.8973134E-04   3.4579858E+05   -1.7600056E+00
   1.9060754E-04   3.4300623E+05   -1.7594305E+00
   1.9148778E-04   3.4023734E+05   -1.7588553E+00
   1.9237209E-04   3.3749168E+05   -1.7582800E+00
   1.9326049E-04   3.3476907E+05   -1.7577047E+00
   1.9415299E-04   3.3206931E+05   -1.7571292E+00
   1.9504960E-04   3.2939219E+05   -1.7565537E+00
   1.9595036E-04   3.2673752E+05   -1.7559780E+00
   1.9685528E-04   3.2410510E+05   -1.7554024E+00
   1.9776438E-04   3.2149475E+05   -1.7548266E+00
   1.9867768E-04   3.1890627E+05   -1.7542509E+00
   1.9959519E-04   3.1633946E+05   -1.7536750E+00
   2.0051694E-04   3.1379415E+05   -1.7530992E+00
   2.0144295E-04   3.1127015E+05   -1.7525233E+00
   2.0237324E-04   3.0876726E+05   -1.7519474E+00
   2.0330782E-04   3.0628531E+05   -1.7513714E+00
   2.0424671E-04   3.0382412E+05   -1.7507954E+00
   2.0518995E-04   3.0138351E+05   -1.7502195E+00
   2.0613754E-04   2.9896330E+05   -1.7496435E+00
   2.0708950E-04   2.9656330E+05   -1.7490675E+00
   2.0804586E-04   2.9418336E+05   -1.7484916E+00
   2.0900664E-04   2.9182329E+05   -1.7479156E+00
   2.0997185E-04   2.8948292E+05   -1.7473397E+00
   2.1094152E-04   2.8716208E+05   -1.7467638E+00
   2.1191567E-04   2.8486061E+05   -1.7461880E+00
   2.1289432E-04   2.8257833E+05   -1.7456121E+00
   2.1387749E-04   2.8031507E+05   -1.7450364E+00
   2.1486520E-04   2.7807069E+05   -1.7444606E+00
   2.1585747E-04   2.7584500E+05   -1.7438850E+00
   2.1685432E-04   2.7363786E+05   -1.7433094E+00
   2.1785578E-04   2.7144909E+05   -1.7427339E+00
   2.1886186E-04   2.6927855E+05   -1.7421584E+00
   2.1987259E-04   2.6712607E+05   -1.7415830E+00
   2.2088798E-04   2.6499150E+05   -1.7410078E+00
   2.2190807E-04   2.6287468E+05   -1.7404326E+00
   2.2293286E-04   2.6077547E+05   -1.7398575E+00
   2.2396239E-04   2.5869370E+05   -1.7392825E+00
   2.2499667E-04   2.5662923E+05   -1.7387077E+00
   2.2603573E-04   2.5458191E+05   -1.7381329E+00
   2.2707958E-04   2.5255159E+05   -1.7375583E+00
   2.2812826E-04   2.5053813E+05   -1.7369838E+00
   2.2918178E-04   2.4854138E+05   -1.7364095E+00
   2.3024017E-04   2.4656119E+05   -1.7358353E+00
   2.3130344E-04   2.4459743E+05   -1.7352612E+00
   2.3237162E-04   2.4264995E+05   -1.7346873E+00
   2.3344474E-04   2.4071861E+05   -1.7341136E+00
   2.3452281E-04   2.3880327E+05   -1.7335400E+00
   2.3560586E-04   2.3690380E+05   -1.7329666E+00
   2.3669392E-04   2.3502006E+05   -1.7323934E+00
   2.3778699E-04   2.3315192E+05   -1.7318204E+00
   2.3888512E-04   2.3129923E+05   -1.7312475E+00
   2.3998831E-04   2.2946188E+05   -1.7306749E+00
   2.4109661E-04   2.2763971E+05   -1.7301025E+00
   2.4221001E-04   2.2583262E+05   -1.7295302E+00
   2.4332857E-04   2.2404046E+05   -1.7289582E+00
   2.4445228E-04   2.2226310E+05   -1.7283864E+00
   2.4558119E-04   2.2050043E+05   -1.7278149E+00
   2.4671531E-04   2.1875231E+05   -1.7272435E+00
   2.4785467E-04   2.1701863E+05   -1.7266724E+00
   2.4899928E-04   2.1529925E+05   -1.7261016E+00
   2.5014919E-04   2.1359405E+05   -1.7255310E+00
   2.5130440E-04   2.1190292E+05   -1.7249607E+00
   2.5246495E-04   2.1022573E+05   -1.7243906E+00
   2.5363086E-04   2.0856236E+05   -1.7238208E+00
   2.5480216E-04   2.0691269E+05   -1.7232512E+00
   2.5597886E-04   2.0527661E+05   -1.7226820E+00
   2.5716100E-04   2.0365400E+05   -1.7221130E+00
   2.5834859E-04   2.0204475E+05   -1.7215443E+00
   2.5954168E-04   2.0044874E+05   -1.7209760E+00
   2.6074027E-04   1.9886586E+05   -1.7204079E+00
   2.6194439E-04   1.9729599E+05   -1.7198401E+00
   2.6315408E-04   1.9573903E+05   -1.7192727E+00
   2.6436935E-04   1.9419486E+05   -1.7187056E+00
   2.6559024E-04   1.9266337E+05   -1.7181388E+00
   2.6681676E-04   1.9114447E+05   -1.7175723E+00
   2.6804895E-04   1.8963803E+05   -1.7170062E+00
   2.6928683E-04   1.8814396E+05   -1.7164404E+00
   2.7053042E-04   1.8666214E+05   -1.7158749E+00
   2.7177976E-04   1.8519248E+05   -1.7153099E+00
   2.7303487E-04   1.8373486E+05   -1.7147451E+00
   2.7429577E-04   1.8228919E+05   -1.7141808E+00
   2.7556250E-04   1.8085537E+05   -1.7136168E+00
   2.7683507E-04   1.7943329E+05   -1.7130532E+00
   2.7811353E-04   1.7802286E+05   -1.7124900E+00
   2.7939788E-04   1.7662397E+05   -1.7119271E+00
   2.8068817E-04   1.7523653E+05   -1.7113647E+00
   2.8198442E-04   1.7386043E+05   -1.7108027E+00
   2.8328665E-04   1.7249559E+05   -1.7102410E+00
   2.8459490E-04   1.7114191E+05   -1.7096798E+00
   2.8590919E-04   1.6979929E+05   -1.7091190E+00
   2.8722955E-04   1.6846763E+05   -1.7085586E+00
   2.8855600E-04   1.6714686E+05   -1.7079987E+00
   2.8988859E-04   1.6583686E+05   -1.7074391E+00
   2.9122732E-04   1.6453755E+05   -1.7068801E+00
   2.9257224E-04   1.6324885E+05   -1.7063214E+00
   2.9392337E-04   1.6197065E+05   -1.7057632E+00
   2.9528074E-04   1.6070288E+05   -1.7052055E+00
   2.9664438E-04   1.5944544E+05   -1.7046482E+00
   2.9801431E-04   1.5819824E+05   -1.7040914E+00
   2.9939057E-04   1.5696121E+05   -1.7035351E+00
   3.0077319E-04   1.5573424E+05   -1.7029792E+00
   3.0216219E-04   1.5451726E+05   -1.7024238E+00
   3.0355761E-04   1.5331018E+05   -1.7018689E+00
   3.0495947E-04   1.5211293E+05   -1.7013145E+00
   3.0636780E-04   1.5092540E+05   -1.7007606E+00
   3.0778264E-04   1.4974753E+05   -1.7002072E+00
   3.0920401E-04   1.4857923E+05   -1.6996543E+00
   3.1063195E-04   1.4742042E+05   -1.6991019E+00
   3.1206648E-04   1.4627103E+05   -1.6985500E+00
   3.1350764E-04   1.4513096E+05   -1.6979987E+00
   3.1495545E-04   1.4400014E+05   -1.6974479E+00
   3.1640994E-04   1.4287850E+05   -1.6968976E+00
   3.1787116E-04   1.4176595E+05   -1.6963478E+00
   3.1933912E-04   1.4066242E+05   -1.6957986E+00
   3.2081386E-04   1.3956783E+05   -1.6952500E+00
   3.2229541E-04   1.3848212E+05   -1.6947018E+00
   3.2378381E-04   1.3740519E+05   -1.6941543E+00
   3.2527908E-04   1.3633698E+05   -1.6936073E+00
   3.2678125E-04   1.3527742E+05   -1.6930609E+00
   3.2829036E-04   1.3422643E+05   -1.6925150E+00
   3.2980644E-04   1.3318394E+05   -1.6919698E+00
   3.3132952E-04   1.3214988E+05   -1.6914251E+00
   3.3285963E-04   1.3112418E+05   -1.6908810E+00
   3.3439681E-04   1.3010676E+05   -1.6903375E+00
   3.3594109E-04   1.2909757E+05   -1.6897946E+00
   3.3749250E-04   1.2809652E+05   -1.6892523E+00
   3.3905108E-04   1.2710355E+05   -1.6887106E+00
   3.4061685E-04   1.2611859E+05   -1.6881695E+00
   3.4218986E-04   1.2514157E+05   -1.6876290E+00
   3.4377013E-04   1.2417244E+05   -1.6870892E+00
   3.4535769E-04   1.2321111E+05   -1.6865499E+00
   3.4695259E-04   1.2225753E+05   -1.6860113E+00
   3.4855485E-04   1.2131164E+05   -1.6854734E+00
   3.5016452E-04   1.2037335E+05   -1.6849360E+00
   3.5178161E-04   1.1944263E+05   -1.6843993E+00
   3.5340618E-04   1.1851939E+05   -1.6838633E+00
   3.5503824E-04   1.1760357E+05   -1.6833279E+00
   3.5667785E-04   1.1669512E+05   -1.6827932E+00
   3.5832502E-04   1.1579398E+05   -1.6822591E+00
   3.5997981E-04   1.1490007E+05   -1.6817257E+00
   3.6164223E-04   1.1401335E+05   -1.6811930E+00
   3.6331233E-04   1.1313375E+05   -1.6806610E+00
   3.6499015E-04   1.1226121E+05   -1.6801296E+00
   3.6667571E-04   1.1139567E+05   -1.6795989E+00
   3.6836906E-04   1.1053707E+05   -1.6790689E+00
   3.7007022E-04   1.0968536E+05   -1.6785396E+00
   3.7177925E-04   1.0884048E+05   -1.6780110E+00
   3.7349616E-04   1.0800236E+05   -1.6774830E+00
   3.7522101E-04   1.0717096E+05   -1.6769558E+00
   3.7695382E-04   1.0634622E+05   -1.6764293E+00
   3.7869463E-04   1.0552809E+05   -1.6759035E+00
   3.8044348E-04   1.0471650E+05   -1.6753785E+00
   3.8220041E-04   1.0391140E+05   -1.6748541E+00
   3.8396545E-04   1.0311274E+05   -1.6743305E+00
   3.8573864E-04   1.0232047E+05   -1.6738076E+00
   3.8752002E-04   1.0153453E+05   -1.6732854E+00
   3.8930963E-04   1.0075487E+05   -1.6727640E+00
   3.9110750E-04   9.9981433E+04   -1.6722433E+00
   3.9291368E-04   9.9214174E+04   -1.6717234E+00
   3.9472820E-04   9.8453037E+04   -1.6712042E+00
   3.9655109E-04   9.7697974E+04   -1.6706857E+00
   3.9838241E-04   9.6948933E+04   -1.6701681E+00
   4.0022218E-04   9.6205863E+04   -1.6696511E+00
   4.0207045E-04   9.5468717E+04   -1.6691350E+00
   4.0392725E-04   9.4737444E+04   -1.6686196E+00
   4.0579263E-04   9.4011995E+04   -1.6681050E+00
   4.0766662E-04   9.3292322E+04   -1.6675911E+00
   4.0954927E-04   9.2578378E+04   -1.6670781E+00
   4.1144061E-04   9.1870114E+04   -1.6665658E+00
   4.1334068E-04   9.1167484E+04   -1.6660543E+00
   4.1524953E-04   9.0470440E+04   -1.6655436E+00
   4.1716720E-04   8.9778938E+04   -1.6650337E+00
   4.1909372E-04   8.9092929E+04   -1.6645246E+00
   4.2102914E-04   8.8412370E+04   -1.6640163E+00
   4.2297350E-04   8.7737214E+04   -1.6635088E+00
   4.2492683E-04   8.7067418E+04   -1.6630021E+00
   4.2688919E-04   8.6402937E+04   -1.6624962E+00
   4.2886061E-04   8.5743727E+04   -1.6619911E+00
   4.3084113E-04   8.5089744E+04   -1.6614868E+00
   4.3283080E-04   8.4440945E+04   -1.6609834E+00
   4.3482966E-04   8.3797287E+04   -1.6604808E+00
   4.3683775E-04   8.3158728E+04   -1.6599790E+00
   4.3885511E-04   8.2525226E+04   -1.6594781E+00
   4.4088179E-04   8.1896738E+04   -1.6589779E+00
   4.4291783E-04   8.1273224E+04   -1.6584787E+00
   4.4496327E-04   8.0654642E+04   -1.6579802E+00
   4.4701816E-04   8.0040953E+04   -1.6574826E+00
   4.4908253E-04   7.9432114E+04   -1.6569859E+00
   4.5115644E-04   7.8828087E+04   -1.6564900E+00
   4.5323993E-04   7.8228832E+04   -1.6559949E+00
   4.5533304E-04   7.7634309E+04   -1.6555007E+00
   4.5743582E-04   7.7044480E+04   -1.6550074E+00
   4.5954830E-04   7.6459306E+04   -1.6545150E+00
   4.6167054E-04   7.5878749E+04   -1.6540234E+00
   4.6380259E-04   7.5302770E+04   -1.6535326E+00
   4.6594448E-04   7.4731332E+04   -1.6530428E+00
   4.6809626E-04   7.4164397E+04   -1.6525538E+00
   4.7025797E-04   7.3601929E+04   -1.6520657E+00
   4.7242967E-04   7.3043891E+04   -1.6515784E+00
   4.7461140E-04   7.2490247E+04   -1.6510921E+00
   4.7680321E-04   7.1940960E+04   -1.6506066E+00
   4.7900514E-04   7.1395995E+04   -1.6501220E+00
   4.8121723E-04   7.0855316E+04   -1.6496383E+00
   4.8343954E-04   7.0318888E+04   -1.6491556E+00
   4.8567212E-04   6.9786676E+04   -1.6486737E+00
   4.8791500E-04   6.9258647E+04   -1.6481927E+00
   4.9016825E-04   6.8734764E+04   -1.6477126E+00
   4.9243189E-04   6.8214995E+04   -1.6472334E+00
   4.9470600E-04   6.7699306E+04   -1.6467551E+00
   4.9699060E-04   6.7187663E+04   -1.6462777E+00
   4.9928575E-04   6.6680034E+04   -1.6458012E+00
   5.0159151E-04   6.6176385E+04   -1.6453257E+00
   5.0390791E-04   6.5676684E+04   -1.6448510E+00
   5.0623501E-04   6.5180898E+04   -1.6443773E+00
   5.0857286E-04   6.4688997E+04   -1.6439045E+00
   5.1092150E-04   6.4200947E+04   -1.6434326E+00
   5.1328099E-04   6.3716718E+04   -1.6429617E+00
   5.1565137E-04   6.3236278E+04   -1.6424916E+00
   5.1803270E-04   6.2759597E+04   -1.6420225E+00
   5.2042503E-04   6.2286643E+04   -1.6415544E+00
   5.2282841E-04   6.1817387E+04   -1.6410871E+00
   5.2524289E-04   6.1351797E+04   -1.6406208E+00
   5.2766851E-04   6.0889846E+04   -1.6401555E+00
   5.3010534E-04   6.0431502E+04   -1.6396911E+00
   5.3255342E-04   5.9976736E+04   -1.6392276E+00
   5.3501281E-04   5.9525520E+04   -1.6387651E+00
   5.3748356E-04   5.9077824E+04   -1.6383035E+00
   5.3996571E-04   5.8633619E+04   -1.6378428E+00
   5.4245933E-04   5.8192878E+04   -1.6373832E+00
   5.4496446E-04   5.7755572E+04   -1.6369244E+00
   5.4748117E-04   5.7321674E+04   -1.6364667E+00
   5.5000949E-04   5.6891155E+04   -1.6360098E+00
   5.5254949E-04   5.6463988E+04   -1.6355540E+00
   5.5510123E-04   5.6040147E+04   -1.6350991E+00
   5.5766474E-04   5.5619603E+04   -1.6346451E+00
   5.6024010E-04   5.5202330E+04   -1.6341921E+00
   5.6282734E-04   5.4788302E+04   -1.6337401E+00
   5.6542654E-04   5.4377493E+04   -1.6332891E+00
   5.6803774E-04   5.3969876E+04   -1.6328390E+00
   5.7066099E-04   5.3565425E+04   -1.6323899E+00
   5.7329637E-04   5.3164115E+04   -1.6319417E+00
   5.7594391E-04   5.2765921E+04   -1.6314946E+00
   5.7860368E-04   5.2370817E+04   -1.6310484E+00
   5.8127573E-04   5.1978778E+04   -1.6306032E+00
   5.8396012E-04   5.1589780E+04   -1.6301589E+00
   5.8665691E-04   5.1203797E+04   -1.6297157E+00
   5.8936616E-04   5.0820806E+04   -1.6292734E+00
   5.9208791E-04   5.0440782E+04   -1.6288321E+00
   5.9482223E-04   5.0063702E+04   -1.6283918E+00
   5.9756919E-04   4.9689541E+04   -1.6279525E+00
   6.0032882E-04   4.9318277E+04   -1.6275141E+00
   6.0310120E-04   4.8949885E+04   -1.6270768E+00
   6.0588639E-04   4.8584342E+04   -1.6266404E+00
   6.0868443E-04   4.8221627E+04   -1.6262050E+00
   6.1149540E-04   4.7861715E+04   -1.6257706E+00
   6.1431935E-04   4.7504584E+04   -1.6253373E+00
   6.1715634E-04   4.7150212E+04   -1.6249049E+00
   6.2000644E-04   4.6798577E+04   -1.6244734E+00
   6.2286969E-04   4.6449657E+04   -1.6240430E+00
