#        a       HoverH0(a)       dlogHdloga_of_a(a)
   1.0000000E-04   1.0614245E+06   -1.8567360E+00
   1.0046181E-04   1.0523841E+06   -1.8562645E+00
   1.0092575E-04   1.0434229E+06   -1.8557922E+00
   1.0139184E-04   1.0345402E+06   -1.8553189E+00
   1.0186008E-04   1.0257355E+06   -1.8548447E+00
   1.0233048E-04   1.0170078E+06   -1.8543696E+00
   1.0280305E-04   1.0083567E+06   -1.8538936E+00
   1.0327781E-04   9.9978132E+05   -1.8534166E+00
   1.0375475E-04   9.9128106E+05   -1.8529388E+00
   1.0423390E-04   9.8285523E+05   -1.8524600E+00
   1.0471527E-04   9.7450318E+05   -1.8519804E+00
   1.0519885E-04   9.6622424E+05   -1.8514998E+00
   1.0568467E-04   9.5801775E+05   -1.8510183E+00
   1.0617274E-04   9.4988308E+05   -1.8505360E+00
   1.0666305E-04   9.4181957E+05   -1.8500527E+00
   1.0715563E-04   9.3382659E+05   -1.8495686E+00
   1.0765049E-04   9.2590352E+05   -1.8490835E+00
   1.0814763E-04   9.1804973E+05   -1.8485976E+00
   1.0864707E-04   9.1026459E+05   -1.8481108E+00
   1.0914881E-04   9.0254750E+05   -1.8476231E+00
   1.0965287E-04   8.9489784E+05   -1.8471345E+00
   1.1015926E-04   8.8731502E+05   -1.8466451E+00
   1.1066799E-04   8.7979843E+05   -1.8461548E+00
   1.1117906E-04   8.7234750E+05   -1.8456636E+00
   1.1169250E-04   8.6496162E+05   -1.8451716E+00
   1.1220831E-04   8.5764022E+05   -1.8446786E+00
   1.1272650E-04   8.5038273E+05   -1.8441849E+00
   1.1324708E-04   8.4318857E+05   -1.8436902E+00
   1.1377007E-04   8.3605718E+05   -1.8431947E+00
   1.1429547E-04   8.2898800E+05   -1.8426984E+00
   1.1482330E-04   8.2198048E+05   -1.8422012E+00
   1.1535356E-04   8.1503406E+05   -1.8417032E+00
   1.1588628E-04   8.0814819E+05   -1.8412043E+00
   1.1642145E-04   8.0132235E+05   -1.8407046E+00
   1.1695910E-04   7.9455599E+05   -1.8402040E+00
   1.1749923E-04   7.8784858E+05   -1.8397026E+00
   1.1804185E-04   7.8119960E+05   -1.8392004E+00
   1.1858698E-04   7.7460853E+05   -1.8386974E+00
   1.1913463E-04   7.6807485E+05   -1.8381935E+00
   1.1968481E-04   7.6159805E+05   -1.8376888E+00
   1.2023752E-04   7.5517762E+05   -1.8371833E+00
   1.2079279E-04   7.4881307E+05   -1.8366770E+00
   1.2135063E-04   7.4250389E+05   -1.8361699E+00
   1.2191104E-04   7.3624958E+05   -1.8356619E+00
   1.2247403E-04   7.3004967E+05   -1.8351532E+00
   1.2303963E-04   7.2390367E+05   -1.8346437E+00
   1.2360784E-04   7.1781109E+05   -1.8341333E+00
   1.2417868E-04   7.1177147E+05   -1.8336222E+00
   1.2475215E-04   7.0578433E+05   -1.8331103E+00
   1.2532826E-04   6.9984919E+05   -1.8325976E+00
   1.2590704E-04   6.9396561E+05   -1.8320841E+00
   1.2648850E-04   6.8813312E+05   -1.8315699E+00
   1.2707263E-04   6.8235127E+05   -1.8310549E+00
   1.2765947E-04   6.7661961E+05   -1.8305391E+00
   1.2824901E-04   6.7093769E+05   -1.8300225E+00
   1.2884128E-04   6.6530507E+05   -1.8295052E+00
   1.2943628E-04   6.5972130E+05   -1.8289871E+00
   1.3003403E-04   6.5418597E+05   -1.8284683E+00
   1.3063454E-04   6.4869863E+05   -1.8279487E+00
   1.3123783E-04   6.4325885E+05   -1.8274283E+00
   1.3184390E-04   6.3786623E+05   -1.8269073E+00
   1.3245277E-04   6.3252033E+05   -1.8263854E+00
   1.3306445E-04   6.2722074E+05   -1.8258629E+00
   1.3367895E-04   6.2196706E+05   -1.8253396E+00
   1.3429630E-04   6.1675887E+05   -1.8248156E+00
   1.3491649E-04   6.1159576E+05   -1.8242908E+00
   1.3553955E-04   6.0647735E+05   -1.8237654E+00
   1.3616548E-04   6.0140323E+05   -1.8232392E+00
   1.3679431E-04   5.9637301E+05   -1.8227123E+00
   1.3742604E-04   5.9138631E+05   -1.8221847E+00
   1.3806069E-04   5.8644272E+05   -1.8216565E+00
   1.3869827E-04   5.8154188E+05   -1.8211275E+00
   1.3933879E-04   5.7668340E+05   -1.8205978E+00
   1.3998227E-04   5.7186690E+05   -1.8200674E+00
   1.4062872E-04   5.6709202E+05   -1.8195363E+00
   1.4127816E-04   5.6235838E+05   -1.8190046E+00
   1.4193060E-04   5.5766563E+05   -1.8184722E+00
   1.4258605E-04   5.5301339E+05   -1.8179391E+00
   1.4324453E-04   5.4840131E+05   -1.8174053E+00
   1.4390605E-04   5.4382903E+05   -1.8168709E+00
   1.4457062E-04   5.3929620E+05   -1.8163358E+00
   1.4523826E-04   5.3480248E+05   -1.8158001E+00
   1.4590899E-04   5.3034751E+05   -1.8152637E+00
   1.4658281E-04   5.2593095E+05   -1.8147267E+00
   1.4725974E-04   5.2155246E+05   -1.8141890E+00
   1.4793981E-04   5.1721170E+05   -1.8136507E+00
   1.4862301E-04   5.1290834E+05   -1.8131118E+00
   1.4930936E-04   5.0864206E+05   -1.8125722E+00
   1.4999889E-04   5.0441251E+05   -1.8120320E+00
   1.5069160E-04   5.0021938E+05   -1.8114912E+00
   1.5138751E-04   4.9606234E+05   -1.8109498E+00
   1.5208663E-04   4.9194108E+05   -1.8104078E+00
   1.5278899E-04   4.8785527E+05   -1.8098651E+00
   1.5349458E-04   4.8380461E+05   -1.8093219E+00
   1.5420343E-04   4.7978879E+05   -1.8087781E+00
   1.5491556E-04   4.7580749E+05   -1.8082336E+00
   1.5563098E-04   4.7186042E+05   -1.8076886E+00
   1.5634970E-04   4.6794726E+05   -1.8071430E+00
   1.5707174E-04   4.6406772E+05   -1.8065969E+00
   1.5779711E-04   4.6022150E+05   -1.8060502E+00
   1.5852584E-04   4.5640831E+05   -1.8055029E+00
   1.5925792E-04   4.5262786E+05   -1.8049550E+00
   1.5999339E-04   4.4887985E+05   -1.8044066E+00
   1.6073226E-04   4.4516401E+05   -1.8038576E+00
   1.6147454E-04   4.4148004E+05   -1.8033081E+00
   1.6222024E-04   4.3782767E+05   -1.8027581E+00
   1.6296939E-04   4.3420661E+05   -1.8022075E+00
   1.6372200E-04   4.3061660E+05   -1.8016564E+00
   1.6447809E-04   4.2705735E+05   -1.8011048E+00
   1.6523767E-04   4.2352860E+05   -1.8005526E+00
   1.6600075E-04   4.2003008E+05   -1.7999999E+00
   1.6676736E-04   4.1656151E+05   -1.7994468E+00
   1.6753751E-04   4.1312265E+05   -1.7988931E+00
   1.6831122E-04   4.0971322E+05   -1.7983389E+00
   1.6908849E-04   4.0633296E+05   -1.7977842E+00
   1.6986936E-04   4.0298162E+05   -1.7972290E+00
   1.7065384E-04   3.9965894E+05   -1.7966734E+00
   1.7144193E-04   3.9636468E+05   -1.7961173E+00
   1.7223367E-04   3.9309858E+05   -1.7955607E+00
   1.7302906E-04   3.8986039E+05   -1.7950036E+00
   1.7382813E-04   3.8664987E+05   -1.7944461E+00
   1.7463089E-04   3.8346677E+05   -1.7938881E+00
   1.7543735E-04   3.8031086E+05   -1.7933296E+00
   1.7624754E-04   3.7718189E+05   -1.7927707E+00
   1.7706147E-04   3.7407963E+05   -1.7922114E+00
   1.7787916E-04   3.7100384E+05   -1.7916516E+00
   1.7870062E-04   3.6795429E+05   -1.7910914E+00
   1.7952588E-04   3.6493074E+05   -1.7905308E+00
   1.8035495E-04   3.6193298E+05   -1.7899698E+00
   1.8118785E-04   3.5896077E+05   -1.7894083E+00
   1.8202459E-04   3.5601389E+05   -1.7888465E+00
   1.8286520E-04   3.5309212E+05   -1.7882842E+00
   1.8370969E-04   3.5019523E+05   -1.7877215E+00
   1.8455808E-04   3.4732302E+05   -1.7871585E+00
   1.8541039E-04   3.4447525E+05   -1.7865951E+00
   1.8626663E-04   3.4165172E+05   -1.7860312E+00
   1.8712683E-04   3.3885221E+05   -1.7854670E+00
   1.8799100E-04   3.3607652E+05   -1.7849025E+00
   1.8885917E-04   3.3332443E+05   -1.7843376E+00
   1.8973134E-04   3.3059574E+05   -1.7837723E+00
   1.9060754E-04   3.2789024E+05   -1.7832066E+00
   1.9148778E-04   3.2520773E+05   -1.7826407E+00
   1.9237209E-04   3.2254800E+05   -1.7820743E+00
   1.9326049E-04   3.1991087E+05   -1.7815077E+00
   1.9415299E-04   3.1729612E+05   -1.7809407E+00
   1.9504960E-04   3.1470357E+05   -1.7803734E+00
   1.9595036E-04   3.1213301E+05   -1.7798057E+00
   1.9685528E-04   3.0958427E+05   -1.7792378E+00
   1.9776438E-04   3.0705714E+05   -1.7786696E+00
   1.9867768E-04   3.0455143E+05   -1.7781010E+00
   1.9959519E-04   3.0206697E+05   -1.7775322E+00
   2.0051694E-04   2.9960355E+05   -1.7769630E+00
   2.0144295E-04   2.9716101E+05   -1.7763936E+00
   2.0237324E-04   2.9473915E+05   -1.7758239E+00
   2.0330782E-04   2.9233780E+05   -1.7752540E+00
   2.0424671E-04   2.8995678E+05   -1.7746837E+00
   2.0518995E-04   2.8759590E+05   -1.7741132E+00
   2.0613754E-04   2.8525500E+05   -1.7735425E+00
   2.0708950E-04   2.8293389E+05   -1.7729715E+00
   2.0804586E-04   2.8063241E+05   -1.7724003E+00
   2.0900664E-04   2.7835038E+05   -1.7718288E+00
   2.0997185E-04   2.7608764E+05   -1.7712571E+00
   2.1094152E-04   2.7384401E+05   -1.7706852E+00
   2.1191567E-04   2.7161934E+05   -1.7701130E+00
   2.1289432E-04   2.6941344E+05   -1.7695407E+00
   2.1387749E-04   2.6722617E+05   -1.7689681E+00
   2.1486520E-04   2.6505735E+05   -1.7683954E+00
   2.1585747E-04   2.6290682E+05   -1.7678224E+00
   2.1685432E-04   2.6077444E+05   -1.7672493E+00
   2.1785578E-04   2.5866003E+05   -1.7666759E+00
   2.1886186E-04   2.5656345E+05   -1.7661024E+00
   2.1987259E-04   2.5448453E+05   -1.7655287E+00
   2.2088798E-04   2.5242312E+05   -1.7649549E+00
   2.2190807E-04   2.5037908E+05   -1.7643809E+00
   2.2293286E-04   2.4835224E+05   -1.7638068E+00
   2.2396239E-04   2.4634246E+05   -1.7632325E+00
   2.2499667E-04   2.4434959E+05   -1.7626580E+00
   2.2603573E-04   2.4237349E+05   -1.7620835E+00
   2.2707958E-04   2.4041400E+05   -1.7615088E+00
   2.2812826E-04   2.3847099E+05   -1.7609339E+00
   2.2918178E-04   2.3654431E+05   -1.7603590E+00
   2.3024017E-04   2.3463381E+05   -1.7597839E+00
   2.3130344E-04   2.3273937E+05   -1.7592088E+00
   2.3237162E-04   2.3086082E+05   -1.7586335E+00
   2.3344474E-04   2.2899805E+05   -1.7580582E+00
   2.3452281E-04   2.2715092E+05   -1.7574828E+00
   2.3560586E-04   2.2531928E+05   -1.7569073E+00
   2.3669392E-04   2.2350300E+05   -1.7563317E+00
   2.3778699E-04   2.2170195E+05   -1.7557560E+00
   2.3888512E-04   2.1991599E+05   -1.7551803E+00
   2.3998831E-04   2.1814500E+05   -1.7546046E+00
   2.4109661E-04   2.1638885E+05   -1.7540287E+00
   2.4221001E-04   2.1464741E+05   -1.7534529E+00
   2.4332857E-04   2.1292054E+05   -1.7528770E+00
   2.4445228E-04   2.1120813E+05   -1.7523011E+00
   2.4558119E-04   2.0951005E+05   -1.7517251E+00
   2.4671531E-04   2.0782617E+05   -1.7511491E+00
   2.4785467E-04   2.0615637E+05   -1.7505732E+00
   2.4899928E-04   2.0450053E+05   -1.7499972E+00
   2.5014919E-04   2.0285852E+05   -1.7494212E+00
   2.5130440E-04   2.0123024E+05   -1.7488452E+00
   2.5246495E-04   1.9961556E+05   -1.7482692E+00
   2.5363086E-04   1.9801435E+05   -1.7476933E+00
   2.5480216E-04   1.9642652E+05   -1.7471173E+00
   2.5597886E-04   1.9485193E+05   -1.7465414E+00
   2.5716100E-04   1.9329047E+05   -1.7459656E+00
   2.5834859E-04   1.9174204E+05   -1.7453898E+00
   2.5954168E-04   1.9020652E+05   -1.7448140E+00
   2.6074027E-04   1.8868379E+05   -1.7442383E+00
   2.6194439E-04   1.8717376E+05   -1.7436626E+00
   2.6315408E-04   1.8567629E+05   -1.7430870E+00
   2.6436935E-04   1.8419130E+05   -1.7425115E+00
   2.6559024E-04   1.8271867E+05   -1.7419361E+00
   2.6681676E-04   1.8125830E+05   -1.7413607E+00
   2.6804895E-04   1.7981007E+05   -1.7407855E+00
   2.6928683E-04   1.7837388E+05   -1.7402103E+00
   2.7053042E-04   1.7694964E+05   -1.7396352E+00
   2.7177976E-04   1.7553723E+05   -1.7390603E+00
   2.7303487E-04   1.7413656E+05   -1.7384854E+00
   2.7429577E-04   1.7274752E+05   -1.7379107E+00
   2.7556250E-04   1.7137002E+05   -1.7373361E+00
   2.7683507E-04   1.7000395E+05   -1.7367617E+00
   2.7811353E-04   1.6864921E+05   -1.7361874E+00
   2.7939788E-04   1.6730572E+05   -1.7356132E+00
   2.8068817E-04   1.6597336E+05   -1.7350392E+00
   2.8198442E-04   1.6465205E+05   -1.7344653E+00
   2.8328665E-04   1.6334170E+05   -1.7338916E+00
   2.8459490E-04   1.6204219E+05   -1.7333181E+00
   2.8590919E-04   1.6075346E+05   -1.7327448E+00
   2.8722955E-04   1.5947539E+05   -1.7321716E+00
   2.8855600E-04   1.5820790E+05   -1.7315986E+00
   2.8988859E-04   1.5695090E+05   -1.7310258E+00
   2.9122732E-04   1.5570430E+05   -1.7304532E+00
   2.9257224E-04   1.5446800E+05   -1.7298809E+00
   2.9392337E-04   1.5324193E+05   -1.7293087E+00
   2.9528074E-04   1.5202599E+05   -1.7287367E+00
   2.9664438E-04   1.5082009E+05   -1.7281650E+00
   2.9801431E-04   1.4962416E+05   -1.7275935E+00
   2.9939057E-04   1.4843810E+05   -1.7270223E+00
   3.0077319E-04   1.4726182E+05   -1.7264512E+00
   3.0216219E-04   1.4609526E+05   -1.7258805E+00
   3.0355761E-04   1.4493831E+05   -1.7253099E+00
   3.0495947E-04   1.4379091E+05   -1.7247397E+00
   3.0636780E-04   1.4265296E+05   -1.7241697E+00
   3.0778264E-04   1.4152439E+05   -1.7236000E+00
   3.0920401E-04   1.4040512E+05   -1.7230305E+00
   3.1063195E-04   1.3929506E+05   -1.7224614E+00
   3.1206648E-04   1.3819415E+05   -1.7218925E+00
   3.1350764E-04   1.3710229E+05   -1.7213239E+00
   3.1495545E-04   1.3601942E+05   -1.7207556E+00
   3.1640994E-04   1.3494545E+05   -1.7201876E+00
   3.1787116E-04   1.3388031E+05   -1.7196200E+00
   3.1933912E-04   1.3282393E+05   -1.7190526E+00
   3.2081386E-04   1.3177623E+05   -1.7184856E+00
   3.2229541E-04   1.3073713E+05   -1.7179189E+00
   3.2378381E-04   1.2970656E+05   -1.7173525E+00
   3.2527908E-04   1.2868446E+05   -1.7167865E+00
   3.2678125E-04   1.2767074E+05   -1.7162208E+00
   3.2829036E-04   1.2666534E+05   -1.7156555E+00
   3.2980644E-04   1.2566818E+05   -1.7150905E+00
   3.3132952E-04   1.2467919E+05   -1.7145259E+00
   3.3285963E-04   1.2369831E+05   -1.7139617E+00
   3.3439681E-04   1.2272547E+05   -1.7133978E+00
   3.3594109E-04   1.2176059E+05   -1.7128343E+00
   3.3749250E-04   1.2080362E+05   -1.7122712E+00
   3.3905108E-04   1.1985447E+05   -1.7117085E+00
   3.4061685E-04   1.1891309E+05   -1.7111462E+00
   3.4218986E-04   1.1797942E+05   -1.7105843E+00
   3.4377013E-04   1.1705337E+05   -1.7100228E+00
   3.4535769E-04   1.1613489E+05   -1.7094617E+00
   3.4695259E-04   1.1522392E+05   -1.7089011E+00
   3.4855485E-04   1.1432039E+05   -1.7083408E+00
   3.5016452E-04   1.1342424E+05   -1.7077810E+00
   3.5178161E-04   1.1253540E+05   -1.7072216E+00
   3.5340618E-04   1.1165382E+05   -1.7066627E+00
   3.5503824E-04   1.1077942E+05   -1.7061042E+00
   3.5667785E-04   1.0991216E+05   -1.7055461E+00
   3.5832502E-04   1.0905197E+05   -1.7049885E+00
   3.5997981E-04   1.0819878E+05   -1.7044314E+00
   3.6164223E-04   1.0735255E+05   -1.7038748E+00
   3.6331233E-04   1.0651321E+05   -1.7033186E+00
   3.6499015E-04   1.0568070E+05   -1.7027629E+00
   3.6667571E-04   1.0485497E+05   -1.7022076E+00
   3.6836906E-04   1.0403595E+05   -1.7016529E+00
   3.7007022E-04   1.0322360E+05   -1.7010986E+00
   3.7177925E-04   1.0241785E+05   -1.7005449E+00
   3.7349616E-04   1.0161865E+05   -1.6999917E+00
   3.7522101E-04   1.0082594E+05   -1.6994389E+00
   3.7695382E-04   1.0003967E+05   -1.6988867E+00
   3.7869463E-04   9.9259784E+04   -1.6983350E+00
   3.8044348E-04   9.8486229E+04   -1.6977838E+00
   3.8220041E-04   9.7718951E+04   -1.6972332E+00
   3.8396545E-04   9.6957896E+04   -1.6966831E+00
   3.8573864E-04   9.6203012E+04   -1.6961335E+00
   3.8752002E-04   9.5454247E+04   -1.6955845E+00
   3.8930963E-04   9.4711549E+04   -1.6950360E+00
   3.9110750E-04   9.3974867E+04   -1.6944881E+00
   3.9291368E-04   9.3244150E+04   -1.6939407E+00
   3.9472820E-04   9.2519348E+04   -1.6933939E+00
   3.9655109E-04   9.1800412E+04   -1.6928477E+00
   3.9838241E-04   9.1087291E+04   -1.6923020E+00
   4.0022218E-04   9.0379937E+04   -1.6917569E+00
   4.0207045E-04   8.9678301E+04   -1.6912125E+00
   4.0392725E-04   8.8982335E+04   -1.6906685E+00
   4.0579263E-04   8.8291992E+04   -1.6901252E+00
   4.0766662E-04   8.7607224E+04   -1.6895825E+00
   4.0954927E-04   8.6927984E+04   -1.6890404E+00
   4.1144061E-04   8.6254225E+04   -1.6884989E+00
   4.1334068E-04   8.5585902E+04   -1.6879580E+00
   4.1524953E-04   8.4922968E+04   -1.6874178E+00
   4.1716720E-04   8.4265380E+04   -1.6868781E+00
   4.1909372E-04   8.3613091E+04   -1.6863391E+00
   4.2102914E-04   8.2966057E+04   -1.6858007E+00
   4.2297350E-04   8.2324234E+04   -1.6852630E+00
   4.2492683E-04   8.1687579E+04   -1.6847258E+00
   4.2688919E-04   8.1056048E+04   -1.6841894E+00
   4.2886061E-04   8.0429598E+04   -1.6836536E+00
   4.3084113E-04   7.9808187E+04   -1.6831184E+00
   4.3283080E-04   7.9191771E+04   -1.6825839E+00
   4.3482966E-04   7.8580311E+04   -1.6820500E+00
   4.3683775E-04   7.7973763E+04   -1.6815169E+00
   4.3885511E-04   7.7372086E+04   -1.6809844E+00
   4.4088179E-04   7.6775241E+04   -1.6804525E+00
   4.4291783E-04   7.6183187E+04   -1.6799214E+00
   4.4496327E-04   7.5595883E+04   -1.6793909E+00
   4.4701816E-04   7.5013289E+04   -1.6788612E+00
   4.4908253E-04   7.4435367E+04   -1.6783321E+00
   4.5115644E-04   7.3862078E+04   -1.6778037E+00
   4.5323993E-04   7.3293382E+04   -1.6772760E+00
   4.5533304E-04   7.2729242E+04   -1.6767490E+00
   4.5743582E-04   7.2169619E+04   -1.6762228E+00
   4.5954830E-04   7.1614476E+04   -1.6756972E+00
   4.6167054E-04   7.1063775E+04   -1.6751724E+00
   4.6380259E-04   7.0517479E+04   -1.6746483E+00
   4.6594448E-04   6.9975551E+04   -1.6741249E+00
   4.6809626E-04   6.9437956E+04   -1.6736022E+00
   4.7025797E-04   6.8904656E+04   -1.6730803E+00
   4.7242967E-04   6.8375617E+04   -1.6725591E+00
   4.7461140E-04   6.7850802E+04   -1.6720387E+00
   4.7680321E-04   6.7330177E+04   -1.6715190E+00
   4.7900514E-04   6.6813706E+04   -1.6710001E+00
   4.8121723E-04   6.6301356E+04   -1.6704819E+00
   4.8343954E-04   6.5793091E+04   -1.6699645E+00
   4.8567212E-04   6.5288879E+04   -1.6694478E+00
   4.8791500E-04   6.4788684E+04   -1.6689319E+00
   4.9016825E-04   6.4292475E+04   -1.6684168E+00
   4.9243189E-04   6.3800217E+04   -1.6679024E+00
   4.9470600E-04   6.3311878E+04   -1.6673888E+00
   4.9699060E-04   6.2827425E+04   -1.6668760E+00
   4.9928575E-04   6.2346827E+04   -1.6663640E+00
   5.0159151E-04   6.1870051E+04   -1.6658528E+00
   5.0390791E-04   6.1397065E+04   -1.6653423E+00
   5.0623501E-04   6.0927838E+04   -1.6648327E+00
   5.0857286E-04   6.0462339E+04   -1.6643239E+00
   5.1092150E-04   6.0000538E+04   -1.6638158E+00
   5.1328099E-04   5.9542402E+04   -1.6633086E+00
   5.1565137E-04   5.9087903E+04   -1.6628021E+00
   5.1803270E-04   5.8637010E+04   -1.6622965E+00
   5.2042503E-04   5.8189693E+04   -1.6617917E+00
   5.2282841E-04   5.7745923E+04   -1.6612877E+00
   5.2524289E-04   5.7305670E+04   -1.6607846E+00
   5.2766851E-04   5.6868905E+04   -1.6602823E+00
   5.3010534E-04   5.6435599E+04   -1.6597807E+00
   5.3255342E-04   5.6005725E+04   -1.6592801E+00
   5.3501281E-04   5.5579252E+04   -1.6587802E+00
   5.3748356E-04   5.5156154E+04   -1.6582812E+00
   5.3996571E-04   5.4736403E+04   -1.6577831E+00
   5.4245933E-04   5.4319971E+04   -1.6572858E+00
   5.4496446E-04   5.3906830E+04   -1.6567893E+00
   5.4748117E-04   5.3496954E+04   -1.6562937E+00
   5.5000949E-04   5.3090316E+04   -1.6557989E+00
   5.5254949E-04   5.2686888E+04   -1.6553050E+00
   5.5510123E-04   5.2286645E+04   -1.6548120E+00
   5.5766474E-04   5.1889560E+04   -1.6543198E+00
   5.6024010E-04   5.1495607E+04   -1.6538285E+00
   5.6282734E-04   5.1104761E+04   -1.6533381E+00
   5.6542654E-04   5.0716996E+04   -1.6528485E+00
   5.6803774E-04   5.0332287E+04   -1.6523598E+00
   5.7066099E-04   4.9950608E+04   -1.6518720E+00
   5.7329637E-04   4.9571934E+04   -1.6513850E+00
   5.7594391E-04   4.9196242E+04   -1.6508990E+00
   5.7860368E-04   4.8823506E+04   -1.6504138E+00
   5.8127573E-04   4.8453703E+04   -1.6499295E+00
   5.8396012E-04   4.8086808E+04   -1.6494461E+00
   5.8665691E-04   4.7722797E+04   -1.6489637E+00
   5.8936616E-04   4.7361647E+04   -1.6484821E+00
   5.9208791E-04   4.7003334E+04   -1.6480014E+00
   5.9482223E-04   4.6647835E+04   -1.6475216E+00
   5.9756919E-04   4.6295127E+04   -1.6470427E+00
   6.0032882E-04   4.5945187E+04   -1.6465647E+00
   6.0310120E-04   4.5597993E+04   -1.6460876E+00
   6.0588639E-04   4.5253521E+04   -1.6456114E+00
   6.0868443E-04   4.4911751E+04   -1.6451362E+00
   6.1149540E-04   4.4572659E+04   -1.6446618E+00
   6.1431935E-04   4.4236224E+04   -1.6441884E+00
   6.1715634E-04   4.3902424E+04   -1.6437159E+00
   6.2000644E-04   4.3571237E+04   -1.6432444E+00
   6.2286969E-04   4.3242643E+04   -1.6427737E+00
