#        a       HoverH0(a)       dlogHdloga_of_a(a)
   1.0000000E-04   1.0809679E+06   -1.8656194E+00
   1.0046181E-04   1.0717171E+06   -1.8651661E+00
   1.0092575E-04   1.0625476E+06   -1.8647119E+00
   1.0139184E-04   1.0534589E+06   -1.8642567E+00
   1.0186008E-04   1.0444500E+06   -1.8638006E+00
   1.0233048E-04   1.0355204E+06   -1.8633435E+00
   1.0280305E-04   1.0266693E+06   -1.8628855E+00
   1.0327781E-04   1.0178959E+06   -1.8624265E+00
   1.0375475E-04   1.0091997E+06   -1.8619665E+00
   1.0423390E-04   1.0005799E+06   -1.8615056E+00
   1.0471527E-04   9.9203587E+05   -1.8610438E+00
   1.0519885E-04   9.8356687E+05   -1.8605810E+00
   1.0568467E-04   9.7517224E+05   -1.8601172E+00
   1.0617274E-04   9.6685133E+05   -1.8596526E+00
   1.0666305E-04   9.5860347E+05   -1.8591869E+00
   1.0715563E-04   9.5042802E+05   -1.8587204E+00
   1.0765049E-04   9.4232432E+05   -1.8582529E+00
   1.0814763E-04   9.3429173E+05   -1.8577845E+00
   1.0864707E-04   9.2632961E+05   -1.8573151E+00
   1.0914881E-04   9.1843733E+05   -1.8568448E+00
   1.0965287E-04   9.1061427E+05   -1.8563736E+00
   1.1015926E-04   9.0285981E+05   -1.8559015E+00
   1.1066799E-04   8.9517333E+05   -1.8554284E+00
   1.1117906E-04   8.8755422E+05   -1.8549544E+00
   1.1169250E-04   8.8000189E+05   -1.8544795E+00
   1.1220831E-04   8.7251573E+05   -1.8540037E+00
   1.1272650E-04   8.6509515E+05   -1.8535270E+00
   1.1324708E-04   8.5773957E+05   -1.8530493E+00
   1.1377007E-04   8.5044841E+05   -1.8525708E+00
   1.1429547E-04   8.4322109E+05   -1.8520913E+00
   1.1482330E-04   8.3605703E+05   -1.8516110E+00
   1.1535356E-04   8.2895568E+05   -1.8511297E+00
   1.1588628E-04   8.2191647E+05   -1.8506475E+00
   1.1642145E-04   8.1493885E+05   -1.8501645E+00
   1.1695910E-04   8.0802226E+05   -1.8496805E+00
   1.1749923E-04   8.0116616E+05   -1.8491957E+00
   1.1804185E-04   7.9437001E+05   -1.8487100E+00
   1.1858698E-04   7.8763328E+05   -1.8482234E+00
   1.1913463E-04   7.8095543E+05   -1.8477359E+00
   1.1968481E-04   7.7433594E+05   -1.8472475E+00
   1.2023752E-04   7.6777428E+05   -1.8467583E+00
   1.2079279E-04   7.6126995E+05   -1.8462682E+00
   1.2135063E-04   7.5482243E+05   -1.8457772E+00
   1.2191104E-04   7.4843121E+05   -1.8452853E+00
   1.2247403E-04   7.4209579E+05   -1.8447926E+00
   1.2303963E-04   7.3581566E+05   -1.8442990E+00
   1.2360784E-04   7.2959035E+05   -1.8438046E+00
   1.2417868E-04   7.2341935E+05   -1.8433093E+00
   1.2475215E-04   7.1730219E+05   -1.8428131E+00
   1.2532826E-04   7.1123838E+05   -1.8423161E+00
   1.2590704E-04   7.0522744E+05   -1.8418183E+00
   1.2648850E-04   6.9926891E+05   -1.8413196E+00
   1.2707263E-04   6.9336233E+05   -1.8408201E+00
   1.2765947E-04   6.8750721E+05   -1.8403197E+00
   1.2824901E-04   6.8170312E+05   -1.8398185E+00
   1.2884128E-04   6.7594958E+05   -1.8393165E+00
   1.2943628E-04   6.7024616E+05   -1.8388136E+00
   1.3003403E-04   6.6459240E+05   -1.8383100E+00
   1.3063454E-04   6.5898787E+05   -1.8378055E+00
   1.3123783E-04   6.5343211E+05   -1.8373001E+00
   1.3184390E-04   6.4792471E+05   -1.8367940E+00
   1.3245277E-04   6.4246522E+05   -1.8362871E+00
   1.3306445E-04   6.3705323E+05   -1.8357793E+00
   1.3367895E-04   6.3168830E+05   -1.8352708E+00
   1.3429630E-04   6.2637002E+05   -1.8347614E+00
   1.3491649E-04   6.2109798E+05   -1.8342513E+00
   1.3553955E-04   6.1587176E+05   -1.8337403E+00
   1.3616548E-04   6.1069095E+05   -1.8332286E+00
   1.3679431E-04   6.0555516E+05   -1.8327161E+00
   1.3742604E-04   6.0046397E+05   -1.8322028E+00
   1.3806069E-04   5.9541700E+05   -1.8316887E+00
   1.3869827E-04   5.9041385E+05   -1.8311738E+00
   1.3933879E-04   5.8545413E+05   -1.8306582E+00
   1.3998227E-04   5.8053745E+05   -1.8301418E+00
   1.4062872E-04   5.7566343E+05   -1.8296247E+00
   1.4127816E-04   5.7083170E+05   -1.8291068E+00
   1.4193060E-04   5.6604187E+05   -1.8285881E+00
   1.4258605E-04   5.6129357E+05   -1.8280687E+00
   1.4324453E-04   5.5658644E+05   -1.8275485E+00
   1.4390605E-04   5.5192011E+05   -1.8270276E+00
   1.4457062E-04   5.4729422E+05   -1.8265059E+00
   1.4523826E-04   5.4270840E+05   -1.8259835E+00
   1.4590899E-04   5.3816230E+05   -1.8254604E+00
   1.4658281E-04   5.3365557E+05   -1.8249366E+00
   1.4725974E-04   5.2918786E+05   -1.8244120E+00
   1.4793981E-04   5.2475883E+05   -1.8238867E+00
   1.4862301E-04   5.2036812E+05   -1.8233607E+00
   1.4930936E-04   5.1601540E+05   -1.8228340E+00
   1.4999889E-04   5.1170033E+05   -1.8223065E+00
   1.5069160E-04   5.0742258E+05   -1.8217784E+00
   1.5138751E-04   5.0318181E+05   -1.8212496E+00
   1.5208663E-04   4.9897771E+05   -1.8207200E+00
   1.5278899E-04   4.9480994E+05   -1.8201898E+00
   1.5349458E-04   4.9067818E+05   -1.8196589E+00
   1.5420343E-04   4.8658211E+05   -1.8191273E+00
   1.5491556E-04   4.8252142E+05   -1.8185951E+00
   1.5563098E-04   4.7849579E+05   -1.8180621E+00
   1.5634970E-04   4.7450491E+05   -1.8175285E+00
   1.5707174E-04   4.7054848E+05   -1.8169943E+00
   1.5779711E-04   4.6662618E+05   -1.8164593E+00
   1.5852584E-04   4.6273772E+05   -1.8159237E+00
   1.5925792E-04   4.5888279E+05   -1.8153875E+00
   1.5999339E-04   4.5506110E+05   -1.8148506E+00
   1.6073226E-04   4.5127236E+05   -1.8143131E+00
   1.6147454E-04   4.4751627E+05   -1.8137749E+00
   1.6222024E-04   4.4379255E+05   -1.8132361E+00
   1.6296939E-04   4.4010090E+05   -1.8126967E+00
   1.6372200E-04   4.3644105E+05   -1.8121566E+00
   1.6447809E-04   4.3281271E+05   -1.8116160E+00
   1.6523767E-04   4.2921561E+05   -1.8110747E+00
   1.6600075E-04   4.2564946E+05   -1.8105328E+00
   1.6676736E-04   4.2211400E+05   -1.8099903E+00
   1.6753751E-04   4.1860895E+05   -1.8094472E+00
   1.6831122E-04   4.1513404E+05   -1.8089035E+00
   1.6908849E-04   4.1168901E+05   -1.8083592E+00
   1.6986936E-04   4.0827359E+05   -1.8078143E+00
   1.7065384E-04   4.0488753E+05   -1.8072689E+00
   1.7144193E-04   4.0153055E+05   -1.8067228E+00
   1.7223367E-04   3.9820242E+05   -1.8061762E+00
   1.7302906E-04   3.9490286E+05   -1.8056290E+00
   1.7382813E-04   3.9163163E+05   -1.8050813E+00
   1.7463089E-04   3.8838848E+05   -1.8045330E+00
   1.7543735E-04   3.8517316E+05   -1.8039842E+00
   1.7624754E-04   3.8198543E+05   -1.8034348E+00
   1.7706147E-04   3.7882504E+05   -1.8028849E+00
   1.7787916E-04   3.7569174E+05   -1.8023344E+00
   1.7870062E-04   3.7258531E+05   -1.8017834E+00
   1.7952588E-04   3.6950550E+05   -1.8012319E+00
   1.8035495E-04   3.6645209E+05   -1.8006799E+00
   1.8118785E-04   3.6342482E+05   -1.8001273E+00
   1.8202459E-04   3.6042349E+05   -1.7995742E+00
   1.8286520E-04   3.5744785E+05   -1.7990207E+00
   1.8370969E-04   3.5449769E+05   -1.7984666E+00
   1.8455808E-04   3.5157277E+05   -1.7979120E+00
   1.8541039E-04   3.4867287E+05   -1.7973569E+00
   1.8626663E-04   3.4579778E+05   -1.7968014E+00
   1.8712683E-04   3.4294728E+05   -1.7962454E+00
   1.8799100E-04   3.4012114E+05   -1.7956889E+00
   1.8885917E-04   3.3731916E+05   -1.7951319E+00
   1.8973134E-04   3.3454112E+05   -1.7945745E+00
   1.9060754E-04   3.3178682E+05   -1.7940166E+00
   1.9148778E-04   3.2905603E+05   -1.7934582E+00
   1.9237209E-04   3.2634856E+05   -1.7928994E+00
   1.9326049E-04   3.2366420E+05   -1.7923402E+00
   1.9415299E-04   3.2100275E+05   -1.7917805E+00
   1.9504960E-04   3.1836401E+05   -1.7912204E+00
   1.9595036E-04   3.1574777E+05   -1.7906599E+00
   1.9685528E-04   3.1315384E+05   -1.7900990E+00
   1.9776438E-04   3.1058202E+05   -1.7895376E+00
   1.9867768E-04   3.0803212E+05   -1.7889758E+00
   1.9959519E-04   3.0550395E+05   -1.7884136E+00
   2.0051694E-04   3.0299731E+05   -1.7878511E+00
   2.0144295E-04   3.0051202E+05   -1.7872881E+00
   2.0237324E-04   2.9804789E+05   -1.7867247E+00
   2.0330782E-04   2.9560473E+05   -1.7861610E+00
   2.0424671E-04   2.9318236E+05   -1.7855969E+00
   2.0518995E-04   2.9078059E+05   -1.7850324E+00
   2.0613754E-04   2.8839925E+05   -1.7844676E+00
   2.0708950E-04   2.8603816E+05   -1.7839023E+00
   2.0804586E-04   2.8369713E+05   -1.7833368E+00
   2.0900664E-04   2.8137600E+05   -1.7827709E+00
   2.0997185E-04   2.7907459E+05   -1.7822046E+00
   2.1094152E-04   2.7679273E+05   -1.7816380E+00
   2.1191567E-04   2.7453024E+05   -1.7810711E+00
   2.1289432E-04   2.7228695E+05   -1.7805039E+00
   2.1387749E-04   2.7006270E+05   -1.7799363E+00
   2.1486520E-04   2.6785732E+05   -1.7793684E+00
   2.1585747E-04   2.6567065E+05   -1.7788002E+00
   2.1685432E-04   2.6350251E+05   -1.7782317E+00
   2.1785578E-04   2.6135276E+05   -1.7776630E+00
   2.1886186E-04   2.5922122E+05   -1.7770939E+00
   2.1987259E-04   2.5710774E+05   -1.7765245E+00
   2.2088798E-04   2.5501216E+05   -1.7759549E+00
   2.2190807E-04   2.5293433E+05   -1.7753850E+00
   2.2293286E-04   2.5087409E+05   -1.7748148E+00
   2.2396239E-04   2.4883128E+05   -1.7742444E+00
   2.2499667E-04   2.4680575E+05   -1.7736737E+00
   2.2603573E-04   2.4479736E+05   -1.7731027E+00
   2.2707958E-04   2.4280595E+05   -1.7725315E+00
   2.2812826E-04   2.4083137E+05   -1.7719601E+00
   2.2918178E-04   2.3887348E+05   -1.7713885E+00
   2.3024017E-04   2.3693213E+05   -1.7708166E+00
   2.3130344E-04   2.3500718E+05   -1.7702445E+00
   2.3237162E-04   2.3309848E+05   -1.7696722E+00
   2.3344474E-04   2.3120589E+05   -1.7690996E+00
   2.3452281E-04   2.2932928E+05   -1.7685269E+00
   2.3560586E-04   2.2746849E+05   -1.7679540E+00
   2.3669392E-04   2.2562340E+05   -1.7673809E+00
   2.3778699E-04   2.2379387E+05   -1.7668076E+00
   2.3888512E-04   2.2197976E+05   -1.7662341E+00
   2.3998831E-04   2.2018094E+05   -1.7656605E+00
   2.4109661E-04   2.1839727E+05   -1.7650867E+00
   2.4221001E-04   2.1662862E+05   -1.7645127E+00
   2.4332857E-04   2.1487487E+05   -1.7639386E+00
   2.4445228E-04   2.1313588E+05   -1.7633643E+00
   2.4558119E-04   2.1141151E+05   -1.7627899E+00
   2.4671531E-04   2.0970166E+05   -1.7622153E+00
   2.4785467E-04   2.0800619E+05   -1.7616406E+00
   2.4899928E-04   2.0632497E+05   -1.7610658E+00
   2.5014919E-04   2.0465788E+05   -1.7604909E+00
   2.5130440E-04   2.0300480E+05   -1.7599159E+00
   2.5246495E-04   2.0136560E+05   -1.7593407E+00
   2.5363086E-04   1.9974017E+05   -1.7587655E+00
   2.5480216E-04   1.9812838E+05   -1.7581902E+00
   2.5597886E-04   1.9653013E+05   -1.7576148E+00
   2.5716100E-04   1.9494528E+05   -1.7570393E+00
   2.5834859E-04   1.9337372E+05   -1.7564637E+00
   2.5954168E-04   1.9181535E+05   -1.7558880E+00
   2.6074027E-04   1.9027003E+05   -1.7553123E+00
   2.6194439E-04   1.8873767E+05   -1.7547366E+00
   2.6315408E-04   1.8721815E+05   -1.7541607E+00
   2.6436935E-04   1.8571135E+05   -1.7535849E+00
   2.6559024E-04   1.8421716E+05   -1.7530090E+00
   2.6681676E-04   1.8273549E+05   -1.7524331E+00
   2.6804895E-04   1.8126621E+05   -1.7518571E+00
   2.6928683E-04   1.7980922E+05   -1.7512811E+00
   2.7053042E-04   1.7836442E+05   -1.7507051E+00
   2.7177976E-04   1.7693170E+05   -1.7501291E+00
   2.7303487E-04   1.7551095E+05   -1.7495531E+00
   2.7429577E-04   1.7410207E+05   -1.7489771E+00
   2.7556250E-04   1.7270495E+05   -1.7484012E+00
   2.7683507E-04   1.7131951E+05   -1.7478252E+00
   2.7811353E-04   1.6994563E+05   -1.7472492E+00
   2.7939788E-04   1.6858321E+05   -1.7466733E+00
   2.8068817E-04   1.6723216E+05   -1.7460974E+00
   2.8198442E-04   1.6589238E+05   -1.7455216E+00
   2.8328665E-04   1.6456377E+05   -1.7449458E+00
   2.8459490E-04   1.6324623E+05   -1.7443701E+00
   2.8590919E-04   1.6193967E+05   -1.7437944E+00
   2.8722955E-04   1.6064400E+05   -1.7432188E+00
   2.8855600E-04   1.5935911E+05   -1.7426432E+00
   2.8988859E-04   1.5808492E+05   -1.7420677E+00
   2.9122732E-04   1.5682133E+05   -1.7414924E+00
   2.9257224E-04   1.5556826E+05   -1.7409171E+00
   2.9392337E-04   1.5432561E+05   -1.7403419E+00
   2.9528074E-04   1.5309328E+05   -1.7397668E+00
   2.9664438E-04   1.5187121E+05   -1.7391918E+00
   2.9801431E-04   1.5065928E+05   -1.7386169E+00
   2.9939057E-04   1.4945742E+05   -1.7380422E+00
   3.0077319E-04   1.4826555E+05   -1.7374675E+00
   3.0216219E-04   1.4708357E+05   -1.7368930E+00
   3.0355761E-04   1.4591139E+05   -1.7363187E+00
   3.0495947E-04   1.4474894E+05   -1.7357445E+00
   3.0636780E-04   1.4359613E+05   -1.7351704E+00
   3.0778264E-04   1.4245288E+05   -1.7345965E+00
   3.0920401E-04   1.4131911E+05   -1.7340227E+00
   3.1063195E-04   1.4019473E+05   -1.7334492E+00
   3.1206648E-04   1.3907966E+05   -1.7328758E+00
   3.1350764E-04   1.3797383E+05   -1.7323025E+00
   3.1495545E-04   1.3687715E+05   -1.7317295E+00
   3.1640994E-04   1.3578954E+05   -1.7311567E+00
   3.1787116E-04   1.3471094E+05   -1.7305840E+00
   3.1933912E-04   1.3364125E+05   -1.7300116E+00
   3.2081386E-04   1.3258041E+05   -1.7294393E+00
   3.2229541E-04   1.3152833E+05   -1.7288673E+00
   3.2378381E-04   1.3048495E+05   -1.7282955E+00
   3.2527908E-04   1.2945018E+05   -1.7277240E+00
   3.2678125E-04   1.2842396E+05   -1.7271526E+00
   3.2829036E-04   1.2740621E+05   -1.7265816E+00
   3.2980644E-04   1.2639686E+05   -1.7260107E+00
   3.3132952E-04   1.2539583E+05   -1.7254401E+00
   3.3285963E-04   1.2440306E+05   -1.7248698E+00
   3.3439681E-04   1.2341848E+05   -1.7242997E+00
   3.3594109E-04   1.2244200E+05   -1.7237299E+00
   3.3749250E-04   1.2147357E+05   -1.7231604E+00
   3.3905108E-04   1.2051312E+05   -1.7225911E+00
   3.4061685E-04   1.1956058E+05   -1.7220222E+00
   3.4218986E-04   1.1861587E+05   -1.7214535E+00
   3.4377013E-04   1.1767894E+05   -1.7208851E+00
   3.4535769E-04   1.1674971E+05   -1.7203171E+00
   3.4695259E-04   1.1582813E+05   -1.7197493E+00
   3.4855485E-04   1.1491412E+05   -1.7191819E+00
   3.5016452E-04   1.1400762E+05   -1.7186148E+00
   3.5178161E-04   1.1310856E+05   -1.7180480E+00
   3.5340618E-04   1.1221689E+05   -1.7174815E+00
   3.5503824E-04   1.1133254E+05   -1.7169154E+00
   3.5667785E-04   1.1045545E+05   -1.7163496E+00
   3.5832502E-04   1.0958555E+05   -1.7157842E+00
   3.5997981E-04   1.0872278E+05   -1.7152191E+00
   3.6164223E-04   1.0786709E+05   -1.7146544E+00
   3.6331233E-04   1.0701842E+05   -1.7140901E+00
   3.6499015E-04   1.0617669E+05   -1.7135261E+00
   3.6667571E-04   1.0534186E+05   -1.7129626E+00
   3.6836906E-04   1.0451386E+05   -1.7123994E+00
   3.7007022E-04   1.0369265E+05   -1.7118365E+00
   3.7177925E-04   1.0287815E+05   -1.7112741E+00
   3.7349616E-04   1.0207031E+05   -1.7107121E+00
   3.7522101E-04   1.0126908E+05   -1.7101505E+00
   3.7695382E-04   1.0047440E+05   -1.7095893E+00
   3.7869463E-04   9.9686210E+04   -1.7090285E+00
   3.8044348E-04   9.8904460E+04   -1.7084681E+00
   3.8220041E-04   9.8129095E+04   -1.7079082E+00
   3.8396545E-04   9.7360059E+04   -1.7073487E+00
   3.8573864E-04   9.6597299E+04   -1.7067897E+00
   3.8752002E-04   9.5840761E+04   -1.7062310E+00
   3.8930963E-04   9.5090393E+04   -1.7056729E+00
   3.9110750E-04   9.4346143E+04   -1.7051152E+00
   3.9291368E-04   9.3607958E+04   -1.7045579E+00
   3.9472820E-04   9.2875787E+04   -1.7040011E+00
   3.9655109E-04   9.2149579E+04   -1.7034448E+00
   3.9838241E-04   9.1429284E+04   -1.7028890E+00
   4.0022218E-04   9.0714851E+04   -1.7023336E+00
   4.0207045E-04   9.0006231E+04   -1.7017787E+00
   4.0392725E-04   8.9303375E+04   -1.7012244E+00
   4.0579263E-04   8.8606234E+04   -1.7006705E+00
   4.0766662E-04   8.7914759E+04   -1.7001171E+00
   4.0954927E-04   8.7228902E+04   -1.6995642E+00
   4.1144061E-04   8.6548616E+04   -1.6990119E+00
   4.1334068E-04   8.5873855E+04   -1.6984601E+00
   4.1524953E-04   8.5204570E+04   -1.6979087E+00
   4.1716720E-04   8.4540717E+04   -1.6973580E+00
   4.1909372E-04   8.3882248E+04   -1.6968077E+00
   4.2102914E-04   8.3229119E+04   -1.6962580E+00
   4.2297350E-04   8.2581285E+04   -1.6957088E+00
   4.2492683E-04   8.1938700E+04   -1.6951602E+00
   4.2688919E-04   8.1301321E+04   -1.6946121E+00
   4.2886061E-04   8.0669103E+04   -1.6940646E+00
   4.3084113E-04   8.0042004E+04   -1.6935177E+00
   4.3283080E-04   7.9419980E+04   -1.6929713E+00
   4.3482966E-04   7.8802987E+04   -1.6924255E+00
   4.3683775E-04   7.8190985E+04   -1.6918802E+00
   4.3885511E-04   7.7583930E+04   -1.6913356E+00
   4.4088179E-04   7.6981781E+04   -1.6907915E+00
   4.4291783E-04   7.6384497E+04   -1.6902481E+00
   4.4496327E-04   7.5792037E+04   -1.6897052E+00
   4.4701816E-04   7.5204360E+04   -1.6891629E+00
   4.4908253E-04   7.4621427E+04   -1.6886213E+00
   4.5115644E-04   7.4043196E+04   -1.6880802E+00
   4.5323993E-04   7.3469629E+04   -1.6875398E+00
   4.5533304E-04   7.2900687E+04   -1.6870000E+00
   4.5743582E-04   7.2336330E+04   -1.6864608E+00
   4.5954830E-04   7.1776521E+04   -1.6859223E+00
   4.6167054E-04   7.1221220E+04   -1.6853843E+00
   4.6380259E-04   7.0670391E+04   -1.6848471E+00
   4.6594448E-04   7.0123995E+04   -1.6843104E+00
   4.6809626E-04   6.9581996E+04   -1.6837744E+00
   4.7025797E-04   6.9044356E+04   -1.6832391E+00
   4.7242967E-04   6.8511039E+04   -1.6827044E+00
   4.7461140E-04   6.7982009E+04   -1.6821704E+00
   4.7680321E-04   6.7457231E+04   -1.6816370E+00
   4.7900514E-04   6.6936667E+04   -1.6811044E+00
   4.8121723E-04   6.6420283E+04   -1.6805724E+00
   4.8343954E-04   6.5908045E+04   -1.6800410E+00
   4.8567212E-04   6.5399917E+04   -1.6795104E+00
   4.8791500E-04   6.4895866E+04   -1.6789804E+00
   4.9016825E-04   6.4395856E+04   -1.6784512E+00
   4.9243189E-04   6.3899854E+04   -1.6779226E+00
   4.9470600E-04   6.3407827E+04   -1.6773948E+00
   4.9699060E-04   6.2919742E+04   -1.6768676E+00
   4.9928575E-04   6.2435565E+04   -1.6763411E+00
   5.0159151E-04   6.1955264E+04   -1.6758154E+00
   5.0390791E-04   6.1478807E+04   -1.6752904E+00
   5.0623501E-04   6.1006161E+04   -1.6747661E+00
   5.0857286E-04   6.0537295E+04   -1.6742425E+00
   5.1092150E-04   6.0072177E+04   -1.6737197E+00
   5.1328099E-04   5.9610777E+04   -1.6731976E+00
   5.1565137E-04   5.9153063E+04   -1.6726762E+00
   5.1803270E-04   5.8699004E+04   -1.6721556E+00
   5.2042503E-04   5.8248570E+04   -1.6716357E+00
   5.2282841E-04   5.7801731E+04   -1.6711165E+00
   5.2524289E-04   5.7358457E+04   -1.6705982E+00
   5.2766851E-04   5.6918718E+04   -1.6700805E+00
   5.3010534E-04   5.6482485E+04   -1.6695637E+00
   5.3255342E-04   5.6049728E+04   -1.6690476E+00
   5.3501281E-04   5.5620420E+04   -1.6685322E+00
   5.3748356E-04   5.5194531E+04   -1.6680177E+00
   5.3996571E-04   5.4772032E+04   -1.6675039E+00
   5.4245933E-04   5.4352896E+04   -1.6669909E+00
   5.4496446E-04   5.3937095E+04   -1.6664787E+00
   5.4748117E-04   5.3524601E+04   -1.6659672E+00
   5.5000949E-04   5.3115387E+04   -1.6654566E+00
   5.5254949E-04   5.2709426E+04   -1.6649467E+00
   5.5510123E-04   5.2306689E+04   -1.6644377E+00
   5.5766474E-04   5.1907152E+04   -1.6639294E+00
   5.6024010E-04   5.1510787E+04   -1.6634220E+00
   5.6282734E-04   5.1117568E+04   -1.6629153E+00
   5.6542654E-04   5.0727469E+04   -1.6624095E+00
   5.6803774E-04   5.0340465E+04   -1.6619045E+00
   5.7066099E-04   4.9956528E+04   -1.6614003E+00
   5.7329637E-04   4.9575636E+04   -1.6608969E+00
   5.7594391E-04   4.9197761E+04   -1.6603944E+00
   5.7860368E-04   4.8822880E+04   -1.6598927E+00
   5.8127573E-04   4.8450967E+04   -1.6593918E+00
   5.8396012E-04   4.8081998E+04   -1.6588917E+00
   5.8665691E-04   4.7715949E+04   -1.6583925E+00
   5.8936616E-04   4.7352795E+04   -1.6578941E+00
   5.9208791E-04   4.6992513E+04   -1.6573966E+00
   5.9482223E-04   4.6635079E+04   -1.6568999E+00
   5.9756919E-04   4.6280469E+04   -1.6564041E+00
   6.0032882E-04   4.5928661E+04   -1.6559091E+00
   6.0310120E-04   4.5579631E+04   -1.6554150E+00
   6.0588639E-04   4.5233356E+04   -1.6549217E+00
   6.0868443E-04   4.4889813E+04   -1.6544293E+00
   6.1149540E-04   4.4548981E+04   -1.6539378E+00
   6.1431935E-04   4.4210837E+04   -1.6534471E+00
   6.1715634E-04   4.3875359E+04   -1.6529573E+00
   6.2000644E-04   4.3542524E+04   -1.6524684E+00
   6.2286969E-04   4.3212312E+04   -1.6519803E+00
