#        a       HoverH0(a)       dlogHdloga_of_a(a)
   1.0000000E-04   1.1438720E+06   -1.8954416E+00
   1.0046181E-04   1.1339268E+06   -1.8950601E+00
   1.0092575E-04   1.1240701E+06   -1.8946775E+00
   1.0139184E-04   1.1143010E+06   -1.8942939E+00
   1.0186008E-04   1.1046188E+06   -1.8939093E+00
   1.0233048E-04   1.0950227E+06   -1.8935237E+00
   1.0280305E-04   1.0855118E+06   -1.8931371E+00
   1.0327781E-04   1.0760855E+06   -1.8927494E+00
   1.0375475E-04   1.0667429E+06   -1.8923607E+00
   1.0423390E-04   1.0574834E+06   -1.8919710E+00
   1.0471527E-04   1.0483061E+06   -1.8915803E+00
   1.0519885E-04   1.0392103E+06   -1.8911885E+00
   1.0568467E-04   1.0301953E+06   -1.8907958E+00
   1.0617274E-04   1.0212604E+06   -1.8904020E+00
   1.0666305E-04   1.0124047E+06   -1.8900072E+00
   1.0715563E-04   1.0036278E+06   -1.8896113E+00
   1.0765049E-04   9.9492868E+05   -1.8892145E+00
   1.0814763E-04   9.8630680E+05   -1.8888166E+00
   1.0864707E-04   9.7776144E+05   -1.8884177E+00
   1.0914881E-04   9.6929189E+05   -1.8880178E+00
   1.0965287E-04   9.6089748E+05   -1.8876169E+00
   1.1015926E-04   9.5257754E+05   -1.8872150E+00
   1.1066799E-04   9.4433138E+05   -1.8868120E+00
   1.1117906E-04   9.3615834E+05   -1.8864080E+00
   1.1169250E-04   9.2805778E+05   -1.8860030E+00
   1.1220831E-04   9.2002902E+05   -1.8855970E+00
   1.1272650E-04   9.1207143E+05   -1.8851900E+00
   1.1324708E-04   9.0418437E+05   -1.8847819E+00
   1.1377007E-04   8.9636720E+05   -1.8843729E+00
   1.1429547E-04   8.8861928E+05   -1.8839628E+00
   1.1482330E-04   8.8094001E+05   -1.8835517E+00
   1.1535356E-04   8.7332875E+05   -1.8831396E+00
   1.1588628E-04   8.6578491E+05   -1.8827265E+00
   1.1642145E-04   8.5830786E+05   -1.8823124E+00
   1.1695910E-04   8.5089700E+05   -1.8818972E+00
   1.1749923E-04   8.4355176E+05   -1.8814811E+00
   1.1804185E-04   8.3627152E+05   -1.8810639E+00
   1.1858698E-04   8.2905571E+05   -1.8806458E+00
   1.1913463E-04   8.2190374E+05   -1.8802266E+00
   1.1968481E-04   8.1481505E+05   -1.8798064E+00
   1.2023752E-04   8.0778907E+05   -1.8793852E+00
   1.2079279E-04   8.0082522E+05   -1.8789630E+00
   1.2135063E-04   7.9392296E+05   -1.8785398E+00
   1.2191104E-04   7.8708172E+05   -1.8781156E+00
   1.2247403E-04   7.8030096E+05   -1.8776904E+00
   1.2303963E-04   7.7358014E+05   -1.8772642E+00
   1.2360784E-04   7.6691871E+05   -1.8768370E+00
   1.2417868E-04   7.6031614E+05   -1.8764088E+00
   1.2475215E-04   7.5377190E+05   -1.8759796E+00
   1.2532826E-04   7.4728547E+05   -1.8755494E+00
   1.2590704E-04   7.4085632E+05   -1.8751182E+00
   1.2648850E-04   7.3448395E+05   -1.8746860E+00
   1.2707263E-04   7.2816784E+05   -1.8742528E+00
   1.2765947E-04   7.2190749E+05   -1.8738186E+00
   1.2824901E-04   7.1570240E+05   -1.8733834E+00
   1.2884128E-04   7.0955206E+05   -1.8729473E+00
   1.2943628E-04   7.0345600E+05   -1.8725101E+00
   1.3003403E-04   6.9741371E+05   -1.8720720E+00
   1.3063454E-04   6.9142472E+05   -1.8716328E+00
   1.3123783E-04   6.8548855E+05   -1.8711927E+00
   1.3184390E-04   6.7960473E+05   -1.8707516E+00
   1.3245277E-04   6.7377277E+05   -1.8703095E+00
   1.3306445E-04   6.6799223E+05   -1.8698665E+00
   1.3367895E-04   6.6226263E+05   -1.8694224E+00
   1.3429630E-04   6.5658352E+05   -1.8689774E+00
   1.3491649E-04   6.5095445E+05   -1.8685314E+00
   1.3553955E-04   6.4537497E+05   -1.8680844E+00
   1.3616548E-04   6.3984463E+05   -1.8676365E+00
   1.3679431E-04   6.3436299E+05   -1.8671875E+00
   1.3742604E-04   6.2892961E+05   -1.8667376E+00
   1.3806069E-04   6.2354407E+05   -1.8662868E+00
   1.3869827E-04   6.1820592E+05   -1.8658349E+00
   1.3933879E-04   6.1291476E+05   -1.8653821E+00
   1.3998227E-04   6.0767015E+05   -1.8649284E+00
   1.4062872E-04   6.0247167E+05   -1.8644737E+00
   1.4127816E-04   5.9731893E+05   -1.8640180E+00
   1.4193060E-04   5.9221149E+05   -1.8635613E+00
   1.4258605E-04   5.8714897E+05   -1.8631037E+00
   1.4324453E-04   5.8213095E+05   -1.8626452E+00
   1.4390605E-04   5.7715703E+05   -1.8621857E+00
   1.4457062E-04   5.7222683E+05   -1.8617252E+00
   1.4523826E-04   5.6733995E+05   -1.8612638E+00
   1.4590899E-04   5.6249601E+05   -1.8608014E+00
   1.4658281E-04   5.5769460E+05   -1.8603381E+00
   1.4725974E-04   5.5293537E+05   -1.8598739E+00
   1.4793981E-04   5.4821792E+05   -1.8594087E+00
   1.4862301E-04   5.4354188E+05   -1.8589426E+00
   1.4930936E-04   5.3890689E+05   -1.8584755E+00
   1.4999889E-04   5.3431257E+05   -1.8580075E+00
   1.5069160E-04   5.2975857E+05   -1.8575386E+00
   1.5138751E-04   5.2524451E+05   -1.8570687E+00
   1.5208663E-04   5.2077005E+05   -1.8565979E+00
   1.5278899E-04   5.1633482E+05   -1.8561262E+00
   1.5349458E-04   5.1193849E+05   -1.8556536E+00
   1.5420343E-04   5.0758069E+05   -1.8551800E+00
   1.5491556E-04   5.0326108E+05   -1.8547055E+00
   1.5563098E-04   4.9897933E+05   -1.8542301E+00
   1.5634970E-04   4.9473510E+05   -1.8537538E+00
   1.5707174E-04   4.9052804E+05   -1.8532766E+00
   1.5779711E-04   4.8635782E+05   -1.8527985E+00
   1.5852584E-04   4.8222413E+05   -1.8523194E+00
   1.5925792E-04   4.7812662E+05   -1.8518395E+00
   1.5999339E-04   4.7406498E+05   -1.8513586E+00
   1.6073226E-04   4.7003888E+05   -1.8508769E+00
   1.6147454E-04   4.6604801E+05   -1.8503942E+00
   1.6222024E-04   4.6209206E+05   -1.8499107E+00
   1.6296939E-04   4.5817070E+05   -1.8494263E+00
   1.6372200E-04   4.5428364E+05   -1.8489410E+00
   1.6447809E-04   4.5043057E+05   -1.8484548E+00
   1.6523767E-04   4.4661117E+05   -1.8479677E+00
   1.6600075E-04   4.4282516E+05   -1.8474797E+00
   1.6676736E-04   4.3907223E+05   -1.8469909E+00
   1.6753751E-04   4.3535208E+05   -1.8465011E+00
   1.6831122E-04   4.3166444E+05   -1.8460106E+00
   1.6908849E-04   4.2800899E+05   -1.8455191E+00
   1.6986936E-04   4.2438546E+05   -1.8450268E+00
   1.7065384E-04   4.2079357E+05   -1.8445336E+00
   1.7144193E-04   4.1723302E+05   -1.8440395E+00
   1.7223367E-04   4.1370355E+05   -1.8435446E+00
   1.7302906E-04   4.1020487E+05   -1.8430489E+00
   1.7382813E-04   4.0673670E+05   -1.8425522E+00
   1.7463089E-04   4.0329878E+05   -1.8420548E+00
   1.7543735E-04   3.9989084E+05   -1.8415565E+00
   1.7624754E-04   3.9651261E+05   -1.8410573E+00
   1.7706147E-04   3.9316382E+05   -1.8405573E+00
   1.7787916E-04   3.8984421E+05   -1.8400565E+00
   1.7870062E-04   3.8655353E+05   -1.8395549E+00
   1.7952588E-04   3.8329150E+05   -1.8390524E+00
   1.8035495E-04   3.8005789E+05   -1.8385491E+00
   1.8118785E-04   3.7685243E+05   -1.8380450E+00
   1.8202459E-04   3.7367487E+05   -1.8375400E+00
   1.8286520E-04   3.7052497E+05   -1.8370342E+00
   1.8370969E-04   3.6740248E+05   -1.8365277E+00
   1.8455808E-04   3.6430715E+05   -1.8360203E+00
   1.8541039E-04   3.6123875E+05   -1.8355121E+00
   1.8626663E-04   3.5819703E+05   -1.8350031E+00
   1.8712683E-04   3.5518175E+05   -1.8344933E+00
   1.8799100E-04   3.5219269E+05   -1.8339827E+00
   1.8885917E-04   3.4922960E+05   -1.8334713E+00
   1.8973134E-04   3.4629226E+05   -1.8329592E+00
   1.9060754E-04   3.4338043E+05   -1.8324462E+00
   1.9148778E-04   3.4049389E+05   -1.8319325E+00
   1.9237209E-04   3.3763242E+05   -1.8314180E+00
   1.9326049E-04   3.3479579E+05   -1.8309027E+00
   1.9415299E-04   3.3198378E+05   -1.8303867E+00
   1.9504960E-04   3.2919618E+05   -1.8298698E+00
   1.9595036E-04   3.2643275E+05   -1.8293523E+00
   1.9685528E-04   3.2369330E+05   -1.8288339E+00
   1.9776438E-04   3.2097761E+05   -1.8283148E+00
   1.9867768E-04   3.1828546E+05   -1.8277950E+00
   1.9959519E-04   3.1561665E+05   -1.8272744E+00
   2.0051694E-04   3.1297096E+05   -1.8267531E+00
   2.0144295E-04   3.1034820E+05   -1.8262310E+00
   2.0237324E-04   3.0774816E+05   -1.8257082E+00
   2.0330782E-04   3.0517064E+05   -1.8251847E+00
   2.0424671E-04   3.0261543E+05   -1.8246604E+00
   2.0518995E-04   3.0008235E+05   -1.8241355E+00
   2.0613754E-04   2.9757119E+05   -1.8236098E+00
   2.0708950E-04   2.9508176E+05   -1.8230834E+00
   2.0804586E-04   2.9261387E+05   -1.8225562E+00
   2.0900664E-04   2.9016732E+05   -1.8220284E+00
   2.0997185E-04   2.8774193E+05   -1.8214999E+00
   2.1094152E-04   2.8533750E+05   -1.8209707E+00
   2.1191567E-04   2.8295386E+05   -1.8204407E+00
   2.1289432E-04   2.8059081E+05   -1.8199101E+00
   2.1387749E-04   2.7824818E+05   -1.8193789E+00
   2.1486520E-04   2.7592579E+05   -1.8188469E+00
   2.1585747E-04   2.7362345E+05   -1.8183142E+00
   2.1685432E-04   2.7134098E+05   -1.8177809E+00
   2.1785578E-04   2.6907822E+05   -1.8172469E+00
   2.1886186E-04   2.6683499E+05   -1.8167123E+00
   2.1987259E-04   2.6461110E+05   -1.8161770E+00
   2.2088798E-04   2.6240640E+05   -1.8156410E+00
   2.2190807E-04   2.6022072E+05   -1.8151044E+00
   2.2293286E-04   2.5805387E+05   -1.8145672E+00
   2.2396239E-04   2.5590571E+05   -1.8140293E+00
   2.2499667E-04   2.5377605E+05   -1.8134907E+00
   2.2603573E-04   2.5166474E+05   -1.8129516E+00
   2.2707958E-04   2.4957162E+05   -1.8124118E+00
   2.2812826E-04   2.4749653E+05   -1.8118714E+00
   2.2918178E-04   2.4543929E+05   -1.8113304E+00
   2.3024017E-04   2.4339977E+05   -1.8107887E+00
   2.3130344E-04   2.4137779E+05   -1.8102465E+00
   2.3237162E-04   2.3937321E+05   -1.8097036E+00
   2.3344474E-04   2.3738588E+05   -1.8091602E+00
   2.3452281E-04   2.3541563E+05   -1.8086161E+00
   2.3560586E-04   2.3346232E+05   -1.8080715E+00
   2.3669392E-04   2.3152580E+05   -1.8075263E+00
   2.3778699E-04   2.2960592E+05   -1.8069805E+00
   2.3888512E-04   2.2770253E+05   -1.8064341E+00
   2.3998831E-04   2.2581549E+05   -1.8058872E+00
   2.4109661E-04   2.2394465E+05   -1.8053397E+00
   2.4221001E-04   2.2208987E+05   -1.8047917E+00
   2.4332857E-04   2.2025101E+05   -1.8042431E+00
   2.4445228E-04   2.1842793E+05   -1.8036939E+00
   2.4558119E-04   2.1662049E+05   -1.8031442E+00
   2.4671531E-04   2.1482854E+05   -1.8025939E+00
   2.4785467E-04   2.1305197E+05   -1.8020432E+00
   2.4899928E-04   2.1129062E+05   -1.8014919E+00
   2.5014919E-04   2.0954436E+05   -1.8009400E+00
   2.5130440E-04   2.0781306E+05   -1.8003877E+00
   2.5246495E-04   2.0609660E+05   -1.7998348E+00
   2.5363086E-04   2.0439483E+05   -1.7992815E+00
   2.5480216E-04   2.0270763E+05   -1.7987276E+00
   2.5597886E-04   2.0103487E+05   -1.7981732E+00
   2.5716100E-04   1.9937643E+05   -1.7976183E+00
   2.5834859E-04   1.9773217E+05   -1.7970630E+00
   2.5954168E-04   1.9610197E+05   -1.7965072E+00
   2.6074027E-04   1.9448571E+05   -1.7959508E+00
   2.6194439E-04   1.9288327E+05   -1.7953941E+00
   2.6315408E-04   1.9129452E+05   -1.7948368E+00
   2.6436935E-04   1.8971935E+05   -1.7942791E+00
   2.6559024E-04   1.8815763E+05   -1.7937209E+00
   2.6681676E-04   1.8660924E+05   -1.7931623E+00
   2.6804895E-04   1.8507408E+05   -1.7926032E+00
   2.6928683E-04   1.8355201E+05   -1.7920437E+00
   2.7053042E-04   1.8204294E+05   -1.7914838E+00
   2.7177976E-04   1.8054673E+05   -1.7909234E+00
   2.7303487E-04   1.7906329E+05   -1.7903626E+00
   2.7429577E-04   1.7759249E+05   -1.7898014E+00
   2.7556250E-04   1.7613423E+05   -1.7892398E+00
   2.7683507E-04   1.7468840E+05   -1.7886778E+00
   2.7811353E-04   1.7325488E+05   -1.7881154E+00
   2.7939788E-04   1.7183357E+05   -1.7875525E+00
   2.8068817E-04   1.7042437E+05   -1.7869893E+00
   2.8198442E-04   1.6902716E+05   -1.7864257E+00
   2.8328665E-04   1.6764184E+05   -1.7858617E+00
   2.8459490E-04   1.6626830E+05   -1.7852974E+00
   2.8590919E-04   1.6490645E+05   -1.7847327E+00
   2.8722955E-04   1.6355618E+05   -1.7841676E+00
   2.8855600E-04   1.6221739E+05   -1.7836022E+00
   2.8988859E-04   1.6088998E+05   -1.7830364E+00
   2.9122732E-04   1.5957384E+05   -1.7824702E+00
   2.9257224E-04   1.5826888E+05   -1.7819038E+00
   2.9392337E-04   1.5697501E+05   -1.7813370E+00
   2.9528074E-04   1.5569212E+05   -1.7807698E+00
   2.9664438E-04   1.5442012E+05   -1.7802024E+00
   2.9801431E-04   1.5315891E+05   -1.7796346E+00
   2.9939057E-04   1.5190840E+05   -1.7790665E+00
   3.0077319E-04   1.5066849E+05   -1.7784981E+00
   3.0216219E-04   1.4943909E+05   -1.7779294E+00
   3.0355761E-04   1.4822012E+05   -1.7773604E+00
   3.0495947E-04   1.4701147E+05   -1.7767912E+00
   3.0636780E-04   1.4581306E+05   -1.7762216E+00
   3.0778264E-04   1.4462481E+05   -1.7756518E+00
   3.0920401E-04   1.4344661E+05   -1.7750817E+00
   3.1063195E-04   1.4227838E+05   -1.7745113E+00
   3.1206648E-04   1.4112004E+05   -1.7739407E+00
   3.1350764E-04   1.3997149E+05   -1.7733698E+00
   3.1495545E-04   1.3883266E+05   -1.7727987E+00
   3.1640994E-04   1.3770346E+05   -1.7722274E+00
   3.1787116E-04   1.3658380E+05   -1.7716558E+00
   3.1933912E-04   1.3547361E+05   -1.7710839E+00
   3.2081386E-04   1.3437279E+05   -1.7705119E+00
   3.2229541E-04   1.3328126E+05   -1.7699396E+00
   3.2378381E-04   1.3219895E+05   -1.7693671E+00
   3.2527908E-04   1.3112578E+05   -1.7687945E+00
   3.2678125E-04   1.3006166E+05   -1.7682216E+00
   3.2829036E-04   1.2900652E+05   -1.7676485E+00
   3.2980644E-04   1.2796028E+05   -1.7670753E+00
   3.3132952E-04   1.2692285E+05   -1.7665018E+00
   3.3285963E-04   1.2589417E+05   -1.7659282E+00
   3.3439681E-04   1.2487416E+05   -1.7653544E+00
   3.3594109E-04   1.2386274E+05   -1.7647805E+00
   3.3749250E-04   1.2285984E+05   -1.7642064E+00
   3.3905108E-04   1.2186537E+05   -1.7636321E+00
   3.4061685E-04   1.2087928E+05   -1.7630577E+00
   3.4218986E-04   1.1990149E+05   -1.7624832E+00
   3.4377013E-04   1.1893192E+05   -1.7619085E+00
   3.4535769E-04   1.1797050E+05   -1.7613337E+00
   3.4695259E-04   1.1701716E+05   -1.7607588E+00
   3.4855485E-04   1.1607183E+05   -1.7601837E+00
   3.5016452E-04   1.1513445E+05   -1.7596086E+00
   3.5178161E-04   1.1420494E+05   -1.7590333E+00
   3.5340618E-04   1.1328323E+05   -1.7584580E+00
   3.5503824E-04   1.1236927E+05   -1.7578825E+00
   3.5667785E-04   1.1146297E+05   -1.7573070E+00
   3.5832502E-04   1.1056427E+05   -1.7567314E+00
   3.5997981E-04   1.0967311E+05   -1.7561558E+00
   3.6164223E-04   1.0878942E+05   -1.7555800E+00
   3.6331233E-04   1.0791314E+05   -1.7550042E+00
   3.6499015E-04   1.0704420E+05   -1.7544284E+00
   3.6667571E-04   1.0618254E+05   -1.7538525E+00
   3.6836906E-04   1.0532809E+05   -1.7532765E+00
   3.7007022E-04   1.0448080E+05   -1.7527006E+00
   3.7177925E-04   1.0364060E+05   -1.7521246E+00
   3.7349616E-04   1.0280742E+05   -1.7515485E+00
   3.7522101E-04   1.0198122E+05   -1.7509725E+00
   3.7695382E-04   1.0116193E+05   -1.7503964E+00
   3.7869463E-04   1.0034948E+05   -1.7498204E+00
   3.8044348E-04   9.9543820E+04   -1.7492443E+00
   3.8220041E-04   9.8744893E+04   -1.7486683E+00
   3.8396545E-04   9.7952637E+04   -1.7480922E+00
   3.8573864E-04   9.7166996E+04   -1.7475162E+00
   3.8752002E-04   9.6387912E+04   -1.7469402E+00
   3.8930963E-04   9.5615328E+04   -1.7463642E+00
   3.9110750E-04   9.4849189E+04   -1.7457883E+00
   3.9291368E-04   9.4089438E+04   -1.7452124E+00
   3.9472820E-04   9.3336020E+04   -1.7446366E+00
   3.9655109E-04   9.2588881E+04   -1.7440608E+00
   3.9838241E-04   9.1847966E+04   -1.7434851E+00
   4.0022218E-04   9.1113222E+04   -1.7429095E+00
   4.0207045E-04   9.0384595E+04   -1.7423339E+00
   4.0392725E-04   8.9662033E+04   -1.7417584E+00
   4.0579263E-04   8.8945484E+04   -1.7411830E+00
   4.0766662E-04   8.8234894E+04   -1.7406077E+00
   4.0954927E-04   8.7530213E+04   -1.7400325E+00
   4.1144061E-04   8.6831391E+04   -1.7394574E+00
   4.1334068E-04   8.6138376E+04   -1.7388824E+00
   4.1524953E-04   8.5451118E+04   -1.7383075E+00
   4.1716720E-04   8.4769568E+04   -1.7377327E+00
   4.1909372E-04   8.4093676E+04   -1.7371581E+00
   4.2102914E-04   8.3423395E+04   -1.7365836E+00
   4.2297350E-04   8.2758675E+04   -1.7360092E+00
   4.2492683E-04   8.2099469E+04   -1.7354350E+00
   4.2688919E-04   8.1445729E+04   -1.7348610E+00
   4.2886061E-04   8.0797409E+04   -1.7342871E+00
   4.3084113E-04   8.0154461E+04   -1.7337133E+00
   4.3283080E-04   7.9516840E+04   -1.7331398E+00
   4.3482966E-04   7.8884499E+04   -1.7325664E+00
   4.3683775E-04   7.8257394E+04   -1.7319932E+00
   4.3885511E-04   7.7635478E+04   -1.7314202E+00
   4.4088179E-04   7.7018709E+04   -1.7308474E+00
   4.4291783E-04   7.6407041E+04   -1.7302748E+00
   4.4496327E-04   7.5800430E+04   -1.7297024E+00
   4.4701816E-04   7.5198834E+04   -1.7291302E+00
   4.4908253E-04   7.4602209E+04   -1.7285582E+00
   4.5115644E-04   7.4010513E+04   -1.7279865E+00
   4.5323993E-04   7.3423704E+04   -1.7274149E+00
   4.5533304E-04   7.2841738E+04   -1.7268437E+00
   4.5743582E-04   7.2264576E+04   -1.7262726E+00
   4.5954830E-04   7.1692175E+04   -1.7257018E+00
   4.6167054E-04   7.1124495E+04   -1.7251313E+00
   4.6380259E-04   7.0561496E+04   -1.7245610E+00
   4.6594448E-04   7.0003137E+04   -1.7239910E+00
   4.6809626E-04   6.9449379E+04   -1.7234213E+00
   4.7025797E-04   6.8900182E+04   -1.7228518E+00
   4.7242967E-04   6.8355507E+04   -1.7222826E+00
   4.7461140E-04   6.7815316E+04   -1.7217137E+00
   4.7680321E-04   6.7279570E+04   -1.7211452E+00
   4.7900514E-04   6.6748232E+04   -1.7205769E+00
   4.8121723E-04   6.6221263E+04   -1.7200089E+00
   4.8343954E-04   6.5698626E+04   -1.7194412E+00
   4.8567212E-04   6.5180285E+04   -1.7188739E+00
   4.8791500E-04   6.4666202E+04   -1.7183068E+00
   4.9016825E-04   6.4156341E+04   -1.7177401E+00
   4.9243189E-04   6.3650667E+04   -1.7171738E+00
   4.9470600E-04   6.3149143E+04   -1.7166078E+00
   4.9699060E-04   6.2651733E+04   -1.7160421E+00
   4.9928575E-04   6.2158404E+04   -1.7154768E+00
   5.0159151E-04   6.1669120E+04   -1.7149118E+00
   5.0390791E-04   6.1183846E+04   -1.7143472E+00
   5.0623501E-04   6.0702549E+04   -1.7137830E+00
   5.0857286E-04   6.0225195E+04   -1.7132191E+00
   5.1092150E-04   5.9751750E+04   -1.7126556E+00
   5.1328099E-04   5.9282180E+04   -1.7120926E+00
   5.1565137E-04   5.8816453E+04   -1.7115299E+00
   5.1803270E-04   5.8354536E+04   -1.7109676E+00
   5.2042503E-04   5.7896397E+04   -1.7104057E+00
   5.2282841E-04   5.7442003E+04   -1.7098442E+00
   5.2524289E-04   5.6991323E+04   -1.7092831E+00
   5.2766851E-04   5.6544325E+04   -1.7087225E+00
   5.3010534E-04   5.6100978E+04   -1.7081622E+00
   5.3255342E-04   5.5661250E+04   -1.7076024E+00
   5.3501281E-04   5.5225112E+04   -1.7070431E+00
   5.3748356E-04   5.4792532E+04   -1.7064842E+00
   5.3996571E-04   5.4363480E+04   -1.7059257E+00
   5.4245933E-04   5.3937927E+04   -1.7053677E+00
   5.4496446E-04   5.3515843E+04   -1.7048101E+00
   5.4748117E-04   5.3097197E+04   -1.7042530E+00
   5.5000949E-04   5.2681963E+04   -1.7036964E+00
   5.5254949E-04   5.2270109E+04   -1.7031402E+00
   5.5510123E-04   5.1861608E+04   -1.7025845E+00
   5.5766474E-04   5.1456431E+04   -1.7020293E+00
   5.6024010E-04   5.1054550E+04   -1.7014746E+00
   5.6282734E-04   5.0655937E+04   -1.7009204E+00
   5.6542654E-04   5.0260565E+04   -1.7003667E+00
   5.6803774E-04   4.9868406E+04   -1.6998135E+00
   5.7066099E-04   4.9479433E+04   -1.6992608E+00
   5.7329637E-04   4.9093618E+04   -1.6987086E+00
   5.7594391E-04   4.8710936E+04   -1.6981569E+00
   5.7860368E-04   4.8331360E+04   -1.6976058E+00
   5.8127573E-04   4.7954863E+04   -1.6970552E+00
   5.8396012E-04   4.7581420E+04   -1.6965051E+00
   5.8665691E-04   4.7211005E+04   -1.6959556E+00
   5.8936616E-04   4.6843591E+04   -1.6954066E+00
   5.9208791E-04   4.6479155E+04   -1.6948582E+00
   5.9482223E-04   4.6117670E+04   -1.6943103E+00
   5.9756919E-04   4.5759112E+04   -1.6937630E+00
   6.0032882E-04   4.5403457E+04   -1.6932162E+00
   6.0310120E-04   4.5050679E+04   -1.6926700E+00
   6.0588639E-04   4.4700754E+04   -1.6921244E+00
   6.0868443E-04   4.4353659E+04   -1.6915794E+00
   6.1149540E-04   4.4009370E+04   -1.6910350E+00
   6.1431935E-04   4.3667862E+04   -1.6904911E+00
   6.1715634E-04   4.3329113E+04   -1.6899478E+00
   6.2000644E-04   4.2993100E+04   -1.6894052E+00
   6.2286969E-04   4.2659799E+04   -1.6888631E+00
