#        a       HoverH0(a)       dlogHdloga_of_a(a)
   1.0000000E-04   1.1131127E+06   -1.8787950E+00
   1.0046181E-04   1.1035197E+06   -1.8783714E+00
   1.0092575E-04   1.0940115E+06   -1.8779468E+00
   1.0139184E-04   1.0845873E+06   -1.8775212E+00
   1.0186008E-04   1.0752465E+06   -1.8770946E+00
   1.0233048E-04   1.0659882E+06   -1.8766670E+00
   1.0280305E-04   1.0568117E+06   -1.8762384E+00
   1.0327781E-04   1.0477163E+06   -1.8758088E+00
   1.0375475E-04   1.0387012E+06   -1.8753782E+00
   1.0423390E-04   1.0297657E+06   -1.8749466E+00
   1.0471527E-04   1.0209091E+06   -1.8745140E+00
   1.0519885E-04   1.0121307E+06   -1.8740804E+00
   1.0568467E-04   1.0034299E+06   -1.8736459E+00
   1.0617274E-04   9.9480575E+05   -1.8732103E+00
   1.0666305E-04   9.8625775E+05   -1.8727737E+00
   1.0715563E-04   9.7778517E+05   -1.8723362E+00
   1.0765049E-04   9.6938733E+05   -1.8718977E+00
   1.0814763E-04   9.6106356E+05   -1.8714581E+00
   1.0864707E-04   9.5281319E+05   -1.8710176E+00
   1.0914881E-04   9.4463557E+05   -1.8705762E+00
   1.0965287E-04   9.3653005E+05   -1.8701337E+00
   1.1015926E-04   9.2849597E+05   -1.8696902E+00
   1.1066799E-04   9.2053269E+05   -1.8692458E+00
   1.1117906E-04   9.1263958E+05   -1.8688004E+00
   1.1169250E-04   9.0481600E+05   -1.8683540E+00
   1.1220831E-04   8.9706134E+05   -1.8679067E+00
   1.1272650E-04   8.8937498E+05   -1.8674583E+00
   1.1324708E-04   8.8175630E+05   -1.8670090E+00
   1.1377007E-04   8.7420470E+05   -1.8665588E+00
   1.1429547E-04   8.6671957E+05   -1.8661075E+00
   1.1482330E-04   8.5930032E+05   -1.8656553E+00
   1.1535356E-04   8.5194636E+05   -1.8652021E+00
   1.1588628E-04   8.4465710E+05   -1.8647480E+00
   1.1642145E-04   8.3743196E+05   -1.8642929E+00
   1.1695910E-04   8.3027036E+05   -1.8638368E+00
   1.1749923E-04   8.2317174E+05   -1.8633798E+00
   1.1804185E-04   8.1613553E+05   -1.8629219E+00
   1.1858698E-04   8.0916118E+05   -1.8624629E+00
   1.1913463E-04   8.0224812E+05   -1.8620030E+00
   1.1968481E-04   7.9539581E+05   -1.8615422E+00
   1.2023752E-04   7.8860371E+05   -1.8610804E+00
   1.2079279E-04   7.8187127E+05   -1.8606177E+00
   1.2135063E-04   7.7519796E+05   -1.8601540E+00
   1.2191104E-04   7.6858326E+05   -1.8596894E+00
   1.2247403E-04   7.6202662E+05   -1.8592239E+00
   1.2303963E-04   7.5552755E+05   -1.8587574E+00
   1.2360784E-04   7.4908551E+05   -1.8582900E+00
   1.2417868E-04   7.4270000E+05   -1.8578216E+00
   1.2475215E-04   7.3637052E+05   -1.8573523E+00
   1.2532826E-04   7.3009656E+05   -1.8568821E+00
   1.2590704E-04   7.2387762E+05   -1.8564109E+00
   1.2648850E-04   7.1771321E+05   -1.8559389E+00
   1.2707263E-04   7.1160285E+05   -1.8554659E+00
   1.2765947E-04   7.0554605E+05   -1.8549920E+00
   1.2824901E-04   6.9954233E+05   -1.8545171E+00
   1.2884128E-04   6.9359122E+05   -1.8540414E+00
   1.2943628E-04   6.8769225E+05   -1.8535647E+00
   1.3003403E-04   6.8184494E+05   -1.8530871E+00
   1.3063454E-04   6.7604884E+05   -1.8526087E+00
   1.3123783E-04   6.7030349E+05   -1.8521293E+00
   1.3184390E-04   6.6460844E+05   -1.8516490E+00
   1.3245277E-04   6.5896323E+05   -1.8511678E+00
   1.3306445E-04   6.5336742E+05   -1.8506857E+00
   1.3367895E-04   6.4782057E+05   -1.8502027E+00
   1.3429630E-04   6.4232224E+05   -1.8497188E+00
   1.3491649E-04   6.3687200E+05   -1.8492341E+00
   1.3553955E-04   6.3146942E+05   -1.8487484E+00
   1.3616548E-04   6.2611407E+05   -1.8482619E+00
   1.3679431E-04   6.2080554E+05   -1.8477744E+00
   1.3742604E-04   6.1554339E+05   -1.8472861E+00
   1.3806069E-04   6.1032722E+05   -1.8467970E+00
   1.3869827E-04   6.0515662E+05   -1.8463069E+00
   1.3933879E-04   6.0003118E+05   -1.8458160E+00
   1.3998227E-04   5.9495050E+05   -1.8453242E+00
   1.4062872E-04   5.8991418E+05   -1.8448315E+00
   1.4127816E-04   5.8492181E+05   -1.8443380E+00
   1.4193060E-04   5.7997302E+05   -1.8438436E+00
   1.4258605E-04   5.7506741E+05   -1.8433484E+00
   1.4324453E-04   5.7020459E+05   -1.8428523E+00
   1.4390605E-04   5.6538418E+05   -1.8423554E+00
   1.4457062E-04   5.6060582E+05   -1.8418576E+00
   1.4523826E-04   5.5586911E+05   -1.8413590E+00
   1.4590899E-04   5.5117369E+05   -1.8408595E+00
   1.4658281E-04   5.4651920E+05   -1.8403592E+00
   1.4725974E-04   5.4190526E+05   -1.8398580E+00
   1.4793981E-04   5.3733151E+05   -1.8393561E+00
   1.4862301E-04   5.3279760E+05   -1.8388533E+00
   1.4930936E-04   5.2830317E+05   -1.8383497E+00
   1.4999889E-04   5.2384787E+05   -1.8378452E+00
   1.5069160E-04   5.1943135E+05   -1.8373400E+00
   1.5138751E-04   5.1505327E+05   -1.8368339E+00
   1.5208663E-04   5.1071328E+05   -1.8363270E+00
   1.5278899E-04   5.0641104E+05   -1.8358193E+00
   1.5349458E-04   5.0214622E+05   -1.8353108E+00
   1.5420343E-04   4.9791848E+05   -1.8348015E+00
   1.5491556E-04   4.9372750E+05   -1.8342914E+00
   1.5563098E-04   4.8957295E+05   -1.8337805E+00
   1.5634970E-04   4.8545450E+05   -1.8332689E+00
   1.5707174E-04   4.8137183E+05   -1.8327564E+00
   1.5779711E-04   4.7732462E+05   -1.8322431E+00
   1.5852584E-04   4.7331256E+05   -1.8317291E+00
   1.5925792E-04   4.6933534E+05   -1.8312143E+00
   1.5999339E-04   4.6539264E+05   -1.8306988E+00
   1.6073226E-04   4.6148416E+05   -1.8301824E+00
   1.6147454E-04   4.5760959E+05   -1.8296653E+00
   1.6222024E-04   4.5376864E+05   -1.8291475E+00
   1.6296939E-04   4.4996100E+05   -1.8286288E+00
   1.6372200E-04   4.4618637E+05   -1.8281095E+00
   1.6447809E-04   4.4244447E+05   -1.8275893E+00
   1.6523767E-04   4.3873501E+05   -1.8270685E+00
   1.6600075E-04   4.3505769E+05   -1.8265469E+00
   1.6676736E-04   4.3141223E+05   -1.8260245E+00
   1.6753751E-04   4.2779834E+05   -1.8255015E+00
   1.6831122E-04   4.2421575E+05   -1.8249777E+00
   1.6908849E-04   4.2066418E+05   -1.8244531E+00
   1.6986936E-04   4.1714335E+05   -1.8239279E+00
   1.7065384E-04   4.1365299E+05   -1.8234019E+00
   1.7144193E-04   4.1019284E+05   -1.8228753E+00
   1.7223367E-04   4.0676261E+05   -1.8223479E+00
   1.7302906E-04   4.0336205E+05   -1.8218198E+00
   1.7382813E-04   3.9999089E+05   -1.8212910E+00
   1.7463089E-04   3.9664887E+05   -1.8207615E+00
   1.7543735E-04   3.9333574E+05   -1.8202313E+00
   1.7624754E-04   3.9005124E+05   -1.8197005E+00
   1.7706147E-04   3.8679511E+05   -1.8191689E+00
   1.7787916E-04   3.8356710E+05   -1.8186367E+00
   1.7870062E-04   3.8036696E+05   -1.8181038E+00
   1.7952588E-04   3.7719445E+05   -1.8175703E+00
   1.8035495E-04   3.7404932E+05   -1.8170360E+00
   1.8118785E-04   3.7093133E+05   -1.8165011E+00
   1.8202459E-04   3.6784023E+05   -1.8159656E+00
   1.8286520E-04   3.6477580E+05   -1.8154294E+00
   1.8370969E-04   3.6173779E+05   -1.8148926E+00
   1.8455808E-04   3.5872597E+05   -1.8143551E+00
   1.8541039E-04   3.5574010E+05   -1.8138169E+00
   1.8626663E-04   3.5277997E+05   -1.8132782E+00
   1.8712683E-04   3.4984534E+05   -1.8127388E+00
   1.8799100E-04   3.4693598E+05   -1.8121988E+00
   1.8885917E-04   3.4405167E+05   -1.8116581E+00
   1.8973134E-04   3.4119219E+05   -1.8111169E+00
   1.9060754E-04   3.3835732E+05   -1.8105750E+00
   1.9148778E-04   3.3554684E+05   -1.8100326E+00
   1.9237209E-04   3.3276054E+05   -1.8094895E+00
   1.9326049E-04   3.2999820E+05   -1.8089458E+00
   1.9415299E-04   3.2725962E+05   -1.8084016E+00
   1.9504960E-04   3.2454457E+05   -1.8078568E+00
   1.9595036E-04   3.2185286E+05   -1.8073113E+00
   1.9685528E-04   3.1918428E+05   -1.8067653E+00
   1.9776438E-04   3.1653862E+05   -1.8062188E+00
   1.9867768E-04   3.1391568E+05   -1.8056716E+00
   1.9959519E-04   3.1131526E+05   -1.8051239E+00
   2.0051694E-04   3.0873715E+05   -1.8045757E+00
   2.0144295E-04   3.0618118E+05   -1.8040269E+00
   2.0237324E-04   3.0364713E+05   -1.8034775E+00
   2.0330782E-04   3.0113482E+05   -1.8029276E+00
   2.0424671E-04   2.9864405E+05   -1.8023772E+00
   2.0518995E-04   2.9617463E+05   -1.8018262E+00
   2.0613754E-04   2.9372638E+05   -1.8012747E+00
   2.0708950E-04   2.9129911E+05   -1.8007227E+00
   2.0804586E-04   2.8889263E+05   -1.8001702E+00
   2.0900664E-04   2.8650676E+05   -1.7996171E+00
   2.0997185E-04   2.8414132E+05   -1.7990636E+00
   2.1094152E-04   2.8179613E+05   -1.7985096E+00
   2.1191567E-04   2.7947100E+05   -1.7979550E+00
   2.1289432E-04   2.7716577E+05   -1.7974000E+00
   2.1387749E-04   2.7488026E+05   -1.7968445E+00
   2.1486520E-04   2.7261430E+05   -1.7962885E+00
   2.1585747E-04   2.7036770E+05   -1.7957320E+00
   2.1685432E-04   2.6814031E+05   -1.7951750E+00
   2.1785578E-04   2.6593195E+05   -1.7946176E+00
   2.1886186E-04   2.6374245E+05   -1.7940598E+00
   2.1987259E-04   2.6157166E+05   -1.7935014E+00
   2.2088798E-04   2.5941940E+05   -1.7929427E+00
   2.2190807E-04   2.5728551E+05   -1.7923834E+00
   2.2293286E-04   2.5516983E+05   -1.7918238E+00
   2.2396239E-04   2.5307221E+05   -1.7912637E+00
   2.2499667E-04   2.5099247E+05   -1.7907032E+00
   2.2603573E-04   2.4893047E+05   -1.7901423E+00
   2.2707958E-04   2.4688604E+05   -1.7895809E+00
   2.2812826E-04   2.4485905E+05   -1.7890192E+00
   2.2918178E-04   2.4284932E+05   -1.7884570E+00
   2.3024017E-04   2.4085671E+05   -1.7878945E+00
   2.3130344E-04   2.3888107E+05   -1.7873315E+00
   2.3237162E-04   2.3692225E+05   -1.7867682E+00
   2.3344474E-04   2.3498010E+05   -1.7862044E+00
   2.3452281E-04   2.3305448E+05   -1.7856403E+00
   2.3560586E-04   2.3114524E+05   -1.7850759E+00
   2.3669392E-04   2.2925223E+05   -1.7845110E+00
   2.3778699E-04   2.2737533E+05   -1.7839458E+00
   2.3888512E-04   2.2551437E+05   -1.7833803E+00
   2.3998831E-04   2.2366923E+05   -1.7828144E+00
   2.4109661E-04   2.2183977E+05   -1.7822482E+00
   2.4221001E-04   2.2002584E+05   -1.7816816E+00
   2.4332857E-04   2.1822731E+05   -1.7811147E+00
   2.4445228E-04   2.1644406E+05   -1.7805474E+00
   2.4558119E-04   2.1467593E+05   -1.7799799E+00
   2.4671531E-04   2.1292281E+05   -1.7794120E+00
   2.4785467E-04   2.1118455E+05   -1.7788438E+00
   2.4899928E-04   2.0946104E+05   -1.7782753E+00
   2.5014919E-04   2.0775213E+05   -1.7777066E+00
   2.5130440E-04   2.0605771E+05   -1.7771375E+00
   2.5246495E-04   2.0437764E+05   -1.7765682E+00
   2.5363086E-04   2.0271180E+05   -1.7759985E+00
   2.5480216E-04   2.0106007E+05   -1.7754286E+00
   2.5597886E-04   1.9942232E+05   -1.7748584E+00
   2.5716100E-04   1.9779843E+05   -1.7742880E+00
   2.5834859E-04   1.9618828E+05   -1.7737173E+00
   2.5954168E-04   1.9459175E+05   -1.7731464E+00
   2.6074027E-04   1.9300872E+05   -1.7725752E+00
   2.6194439E-04   1.9143907E+05   -1.7720038E+00
   2.6315408E-04   1.8988269E+05   -1.7714321E+00
   2.6436935E-04   1.8833946E+05   -1.7708602E+00
   2.6559024E-04   1.8680926E+05   -1.7702881E+00
   2.6681676E-04   1.8529198E+05   -1.7697158E+00
   2.6804895E-04   1.8378751E+05   -1.7691433E+00
   2.6928683E-04   1.8229573E+05   -1.7685706E+00
   2.7053042E-04   1.8081655E+05   -1.7679976E+00
   2.7177976E-04   1.7934983E+05   -1.7674245E+00
   2.7303487E-04   1.7789549E+05   -1.7668512E+00
   2.7429577E-04   1.7645340E+05   -1.7662778E+00
   2.7556250E-04   1.7502347E+05   -1.7657041E+00
   2.7683507E-04   1.7360558E+05   -1.7651303E+00
   2.7811353E-04   1.7219964E+05   -1.7645563E+00
   2.7939788E-04   1.7080553E+05   -1.7639822E+00
   2.8068817E-04   1.6942316E+05   -1.7634079E+00
   2.8198442E-04   1.6805242E+05   -1.7628335E+00
   2.8328665E-04   1.6669321E+05   -1.7622589E+00
   2.8459490E-04   1.6534543E+05   -1.7616842E+00
   2.8590919E-04   1.6400899E+05   -1.7611094E+00
   2.8722955E-04   1.6268378E+05   -1.7605345E+00
   2.8855600E-04   1.6136970E+05   -1.7599594E+00
   2.8988859E-04   1.6006666E+05   -1.7593843E+00
   2.9122732E-04   1.5877457E+05   -1.7588090E+00
   2.9257224E-04   1.5749332E+05   -1.7582337E+00
   2.9392337E-04   1.5622282E+05   -1.7576583E+00
   2.9528074E-04   1.5496299E+05   -1.7570828E+00
   2.9664438E-04   1.5371372E+05   -1.7565072E+00
   2.9801431E-04   1.5247493E+05   -1.7559315E+00
   2.9939057E-04   1.5124652E+05   -1.7553558E+00
   3.0077319E-04   1.5002841E+05   -1.7547800E+00
   3.0216219E-04   1.4882050E+05   -1.7542042E+00
   3.0355761E-04   1.4762271E+05   -1.7536283E+00
   3.0495947E-04   1.4643495E+05   -1.7530524E+00
   3.0636780E-04   1.4525713E+05   -1.7524764E+00
   3.0778264E-04   1.4408917E+05   -1.7519005E+00
   3.0920401E-04   1.4293097E+05   -1.7513245E+00
   3.1063195E-04   1.4178247E+05   -1.7507484E+00
   3.1206648E-04   1.4064356E+05   -1.7501724E+00
   3.1350764E-04   1.3951417E+05   -1.7495964E+00
   3.1495545E-04   1.3839422E+05   -1.7490204E+00
   3.1640994E-04   1.3728363E+05   -1.7484444E+00
   3.1787116E-04   1.3618231E+05   -1.7478684E+00
   3.1933912E-04   1.3509018E+05   -1.7472924E+00
   3.2081386E-04   1.3400717E+05   -1.7467165E+00
   3.2229541E-04   1.3293319E+05   -1.7461406E+00
   3.2378381E-04   1.3186817E+05   -1.7455647E+00
   3.2527908E-04   1.3081203E+05   -1.7449889E+00
   3.2678125E-04   1.2976469E+05   -1.7444131E+00
   3.2829036E-04   1.2872608E+05   -1.7438374E+00
   3.2980644E-04   1.2769611E+05   -1.7432618E+00
   3.3132952E-04   1.2667473E+05   -1.7426862E+00
   3.3285963E-04   1.2566185E+05   -1.7421107E+00
   3.3439681E-04   1.2465740E+05   -1.7415353E+00
   3.3594109E-04   1.2366131E+05   -1.7409599E+00
   3.3749250E-04   1.2267350E+05   -1.7403847E+00
   3.3905108E-04   1.2169390E+05   -1.7398096E+00
   3.4061685E-04   1.2072244E+05   -1.7392346E+00
   3.4218986E-04   1.1975906E+05   -1.7386597E+00
   3.4377013E-04   1.1880368E+05   -1.7380849E+00
   3.4535769E-04   1.1785624E+05   -1.7375102E+00
   3.4695259E-04   1.1691666E+05   -1.7369357E+00
   3.4855485E-04   1.1598487E+05   -1.7363613E+00
   3.5016452E-04   1.1506082E+05   -1.7357870E+00
   3.5178161E-04   1.1414443E+05   -1.7352129E+00
   3.5340618E-04   1.1323564E+05   -1.7346390E+00
   3.5503824E-04   1.1233438E+05   -1.7340652E+00
   3.5667785E-04   1.1144059E+05   -1.7334916E+00
   3.5832502E-04   1.1055421E+05   -1.7329181E+00
   3.5997981E-04   1.0967516E+05   -1.7323449E+00
   3.6164223E-04   1.0880339E+05   -1.7317718E+00
   3.6331233E-04   1.0793883E+05   -1.7311989E+00
   3.6499015E-04   1.0708143E+05   -1.7306262E+00
   3.6667571E-04   1.0623112E+05   -1.7300538E+00
   3.6836906E-04   1.0538784E+05   -1.7294815E+00
   3.7007022E-04   1.0455152E+05   -1.7289094E+00
   3.7177925E-04   1.0372212E+05   -1.7283376E+00
   3.7349616E-04   1.0289957E+05   -1.7277660E+00
   3.7522101E-04   1.0208381E+05   -1.7271946E+00
   3.7695382E-04   1.0127478E+05   -1.7266235E+00
   3.7869463E-04   1.0047243E+05   -1.7260526E+00
   3.8044348E-04   9.9676701E+04   -1.7254819E+00
   3.8220041E-04   9.8887532E+04   -1.7249116E+00
   3.8396545E-04   9.8104868E+04   -1.7243414E+00
   3.8573864E-04   9.7328655E+04   -1.7237716E+00
   3.8752002E-04   9.6558837E+04   -1.7232020E+00
   3.8930963E-04   9.5795358E+04   -1.7226327E+00
   3.9110750E-04   9.5038166E+04   -1.7220637E+00
   3.9291368E-04   9.4287206E+04   -1.7214950E+00
   3.9472820E-04   9.3542424E+04   -1.7209266E+00
   3.9655109E-04   9.2803769E+04   -1.7203585E+00
   3.9838241E-04   9.2071187E+04   -1.7197907E+00
   4.0022218E-04   9.1344627E+04   -1.7192232E+00
   4.0207045E-04   9.0624038E+04   -1.7186560E+00
   4.0392725E-04   8.9909368E+04   -1.7180891E+00
   4.0579263E-04   8.9200567E+04   -1.7175226E+00
   4.0766662E-04   8.8497585E+04   -1.7169565E+00
   4.0954927E-04   8.7800372E+04   -1.7163906E+00
   4.1144061E-04   8.7108879E+04   -1.7158252E+00
   4.1334068E-04   8.6423057E+04   -1.7152600E+00
   4.1524953E-04   8.5742857E+04   -1.7146953E+00
   4.1716720E-04   8.5068233E+04   -1.7141309E+00
   4.1909372E-04   8.4399135E+04   -1.7135668E+00
   4.2102914E-04   8.3735518E+04   -1.7130032E+00
   4.2297350E-04   8.3077335E+04   -1.7124399E+00
   4.2492683E-04   8.2424539E+04   -1.7118771E+00
   4.2688919E-04   8.1777084E+04   -1.7113146E+00
   4.2886061E-04   8.1134926E+04   -1.7107525E+00
   4.3084113E-04   8.0498018E+04   -1.7101908E+00
   4.3283080E-04   7.9866317E+04   -1.7096296E+00
   4.3482966E-04   7.9239778E+04   -1.7090687E+00
   4.3683775E-04   7.8618357E+04   -1.7085083E+00
   4.3885511E-04   7.8002011E+04   -1.7079483E+00
   4.4088179E-04   7.7390696E+04   -1.7073887E+00
   4.4291783E-04   7.6784370E+04   -1.7068296E+00
   4.4496327E-04   7.6182991E+04   -1.7062709E+00
   4.4701816E-04   7.5586516E+04   -1.7057127E+00
   4.4908253E-04   7.4994904E+04   -1.7051549E+00
   4.5115644E-04   7.4408114E+04   -1.7045976E+00
   4.5323993E-04   7.3826104E+04   -1.7040407E+00
   4.5533304E-04   7.3248835E+04   -1.7034844E+00
   4.5743582E-04   7.2676266E+04   -1.7029284E+00
   4.5954830E-04   7.2108357E+04   -1.7023730E+00
   4.6167054E-04   7.1545069E+04   -1.7018181E+00
   4.6380259E-04   7.0986363E+04   -1.7012636E+00
   4.6594448E-04   7.0432199E+04   -1.7007097E+00
   4.6809626E-04   6.9882540E+04   -1.7001562E+00
   4.7025797E-04   6.9337347E+04   -1.6996033E+00
   4.7242967E-04   6.8796583E+04   -1.6990509E+00
   4.7461140E-04   6.8260210E+04   -1.6984989E+00
   4.7680321E-04   6.7728190E+04   -1.6979475E+00
   4.7900514E-04   6.7200488E+04   -1.6973967E+00
   4.8121723E-04   6.6677067E+04   -1.6968464E+00
   4.8343954E-04   6.6157890E+04   -1.6962966E+00
   4.8567212E-04   6.5642923E+04   -1.6957473E+00
   4.8791500E-04   6.5132128E+04   -1.6951986E+00
   4.9016825E-04   6.4625471E+04   -1.6946505E+00
   4.9243189E-04   6.4122918E+04   -1.6941029E+00
   4.9470600E-04   6.3624432E+04   -1.6935558E+00
   4.9699060E-04   6.3129981E+04   -1.6930094E+00
   4.9928575E-04   6.2639531E+04   -1.6924635E+00
   5.0159151E-04   6.2153046E+04   -1.6919182E+00
   5.0390791E-04   6.1670495E+04   -1.6913735E+00
   5.0623501E-04   6.1191844E+04   -1.6908293E+00
   5.0857286E-04   6.0717060E+04   -1.6902858E+00
   5.1092150E-04   6.0246111E+04   -1.6897428E+00
   5.1328099E-04   5.9778964E+04   -1.6892005E+00
   5.1565137E-04   5.9315587E+04   -1.6886587E+00
   5.1803270E-04   5.8855949E+04   -1.6881176E+00
   5.2042503E-04   5.8400019E+04   -1.6875771E+00
   5.2282841E-04   5.7947764E+04   -1.6870372E+00
   5.2524289E-04   5.7499155E+04   -1.6864979E+00
   5.2766851E-04   5.7054160E+04   -1.6859593E+00
   5.3010534E-04   5.6612750E+04   -1.6854213E+00
   5.3255342E-04   5.6174894E+04   -1.6848839E+00
   5.3501281E-04   5.5740562E+04   -1.6843472E+00
   5.3748356E-04   5.5309725E+04   -1.6838111E+00
   5.3996571E-04   5.4882353E+04   -1.6832757E+00
   5.4245933E-04   5.4458419E+04   -1.6827409E+00
   5.4496446E-04   5.4037892E+04   -1.6822068E+00
   5.4748117E-04   5.3620744E+04   -1.6816733E+00
   5.5000949E-04   5.3206947E+04   -1.6811406E+00
   5.5254949E-04   5.2796473E+04   -1.6806085E+00
   5.5510123E-04   5.2389294E+04   -1.6800770E+00
   5.5766474E-04   5.1985382E+04   -1.6795463E+00
   5.6024010E-04   5.1584710E+04   -1.6790163E+00
   5.6282734E-04   5.1187252E+04   -1.6784869E+00
   5.6542654E-04   5.0792979E+04   -1.6779582E+00
   5.6803774E-04   5.0401867E+04   -1.6774303E+00
   5.7066099E-04   5.0013887E+04   -1.6769030E+00
   5.7329637E-04   4.9629015E+04   -1.6763765E+00
   5.7594391E-04   4.9247223E+04   -1.6758506E+00
   5.7860368E-04   4.8868487E+04   -1.6753255E+00
   5.8127573E-04   4.8492781E+04   -1.6748011E+00
   5.8396012E-04   4.8120080E+04   -1.6742775E+00
   5.8665691E-04   4.7750358E+04   -1.6737545E+00
   5.8936616E-04   4.7383591E+04   -1.6732323E+00
   5.9208791E-04   4.7019754E+04   -1.6727108E+00
   5.9482223E-04   4.6658823E+04   -1.6721901E+00
   5.9756919E-04   4.6300774E+04   -1.6716701E+00
   6.0032882E-04   4.5945582E+04   -1.6711509E+00
   6.0310120E-04   4.5593224E+04   -1.6706324E+00
   6.0588639E-04   4.5243676E+04   -1.6701147E+00
   6.0868443E-04   4.4896915E+04   -1.6695977E+00
   6.1149540E-04   4.4552918E+04   -1.6690815E+00
   6.1431935E-04   4.4211661E+04   -1.6685661E+00
   6.1715634E-04   4.3873123E+04   -1.6680514E+00
   6.2000644E-04   4.3537280E+04   -1.6675375E+00
   6.2286969E-04   4.3204110E+04   -1.6670244E+00
