#        a       HoverH0(a)       dlogHdloga_of_a(a)
   1.0000000E-04   1.0996146E+06   -1.8859198E+00
   1.0046181E-04   1.0901021E+06   -1.8855136E+00
   1.0092575E-04   1.0806739E+06   -1.8851063E+00
   1.0139184E-04   1.0713293E+06   -1.8846981E+00
   1.0186008E-04   1.0620675E+06   -1.8842888E+00
   1.0233048E-04   1.0528877E+06   -1.8838785E+00
   1.0280305E-04   1.0437893E+06   -1.8834672E+00
   1.0327781E-04   1.0347714E+06   -1.8830549E+00
   1.0375475E-04   1.0258334E+06   -1.8826416E+00
   1.0423390E-04   1.0169745E+06   -1.8822273E+00
   1.0471527E-04   1.0081941E+06   -1.8818119E+00
   1.0519885E-04   9.9949142E+05   -1.8813956E+00
   1.0568467E-04   9.9086574E+05   -1.8809782E+00
   1.0617274E-04   9.8231639E+05   -1.8805599E+00
   1.0666305E-04   9.7384269E+05   -1.8801405E+00
   1.0715563E-04   9.6544396E+05   -1.8797201E+00
   1.0765049E-04   9.5711951E+05   -1.8792987E+00
   1.0814763E-04   9.4886869E+05   -1.8788763E+00
   1.0864707E-04   9.4069082E+05   -1.8784529E+00
   1.0914881E-04   9.3258526E+05   -1.8780285E+00
   1.0965287E-04   9.2455135E+05   -1.8776031E+00
   1.1015926E-04   9.1658845E+05   -1.8771767E+00
   1.1066799E-04   9.0869591E+05   -1.8767493E+00
   1.1117906E-04   9.0087311E+05   -1.8763209E+00
   1.1169250E-04   8.9311943E+05   -1.8758915E+00
   1.1220831E-04   8.8543423E+05   -1.8754611E+00
   1.1272650E-04   8.7781690E+05   -1.8750297E+00
   1.1324708E-04   8.7026684E+05   -1.8745973E+00
   1.1377007E-04   8.6278344E+05   -1.8741639E+00
   1.1429547E-04   8.5536610E+05   -1.8737295E+00
   1.1482330E-04   8.4801422E+05   -1.8732941E+00
   1.1535356E-04   8.4072722E+05   -1.8728578E+00
   1.1588628E-04   8.3350452E+05   -1.8724204E+00
   1.1642145E-04   8.2634553E+05   -1.8719821E+00
   1.1695910E-04   8.1924969E+05   -1.8715427E+00
   1.1749923E-04   8.1221642E+05   -1.8711024E+00
   1.1804185E-04   8.0524517E+05   -1.8706611E+00
   1.1858698E-04   7.9833538E+05   -1.8702188E+00
   1.1913463E-04   7.9148650E+05   -1.8697756E+00
   1.1968481E-04   7.8469798E+05   -1.8693313E+00
   1.2023752E-04   7.7796928E+05   -1.8688861E+00
   1.2079279E-04   7.7129986E+05   -1.8684399E+00
   1.2135063E-04   7.6468919E+05   -1.8679927E+00
   1.2191104E-04   7.5813674E+05   -1.8675446E+00
   1.2247403E-04   7.5164200E+05   -1.8670955E+00
   1.2303963E-04   7.4520443E+05   -1.8666454E+00
   1.2360784E-04   7.3882353E+05   -1.8661943E+00
   1.2417868E-04   7.3249880E+05   -1.8657423E+00
   1.2475215E-04   7.2622972E+05   -1.8652893E+00
   1.2532826E-04   7.2001580E+05   -1.8648353E+00
   1.2590704E-04   7.1385655E+05   -1.8643804E+00
   1.2648850E-04   7.0775146E+05   -1.8639245E+00
   1.2707263E-04   7.0170007E+05   -1.8634677E+00
   1.2765947E-04   6.9570188E+05   -1.8630099E+00
   1.2824901E-04   6.8975642E+05   -1.8625512E+00
   1.2884128E-04   6.8386322E+05   -1.8620915E+00
   1.2943628E-04   6.7802181E+05   -1.8616308E+00
   1.3003403E-04   6.7223172E+05   -1.8611692E+00
   1.3063454E-04   6.6649249E+05   -1.8607067E+00
   1.3123783E-04   6.6080368E+05   -1.8602432E+00
   1.3184390E-04   6.5516482E+05   -1.8597788E+00
   1.3245277E-04   6.4957547E+05   -1.8593134E+00
   1.3306445E-04   6.4403518E+05   -1.8588471E+00
   1.3367895E-04   6.3854353E+05   -1.8583798E+00
   1.3429630E-04   6.3310006E+05   -1.8579116E+00
   1.3491649E-04   6.2770436E+05   -1.8574425E+00
   1.3553955E-04   6.2235598E+05   -1.8569725E+00
   1.3616548E-04   6.1705452E+05   -1.8565015E+00
   1.3679431E-04   6.1179955E+05   -1.8560296E+00
   1.3742604E-04   6.0659064E+05   -1.8555568E+00
   1.3806069E-04   6.0142740E+05   -1.8550830E+00
   1.3869827E-04   5.9630941E+05   -1.8546084E+00
   1.3933879E-04   5.9123627E+05   -1.8541328E+00
   1.3998227E-04   5.8620757E+05   -1.8536563E+00
   1.4062872E-04   5.8122292E+05   -1.8531789E+00
   1.4127816E-04   5.7628193E+05   -1.8527006E+00
   1.4193060E-04   5.7138420E+05   -1.8522214E+00
   1.4258605E-04   5.6652934E+05   -1.8517412E+00
   1.4324453E-04   5.6171698E+05   -1.8512602E+00
   1.4390605E-04   5.5694674E+05   -1.8507783E+00
   1.4457062E-04   5.5221823E+05   -1.8502955E+00
   1.4523826E-04   5.4753109E+05   -1.8498118E+00
   1.4590899E-04   5.4288494E+05   -1.8493272E+00
   1.4658281E-04   5.3827942E+05   -1.8488417E+00
   1.4725974E-04   5.3371416E+05   -1.8483553E+00
   1.4793981E-04   5.2918881E+05   -1.8478680E+00
   1.4862301E-04   5.2470301E+05   -1.8473799E+00
   1.4930936E-04   5.2025641E+05   -1.8468909E+00
   1.4999889E-04   5.1584865E+05   -1.8464010E+00
   1.5069160E-04   5.1147939E+05   -1.8459102E+00
   1.5138751E-04   5.0714829E+05   -1.8454186E+00
   1.5208663E-04   5.0285500E+05   -1.8449261E+00
   1.5278899E-04   4.9859919E+05   -1.8444327E+00
   1.5349458E-04   4.9438052E+05   -1.8439385E+00
   1.5420343E-04   4.9019867E+05   -1.8434435E+00
   1.5491556E-04   4.8605329E+05   -1.8429475E+00
   1.5563098E-04   4.8194408E+05   -1.8424507E+00
   1.5634970E-04   4.7787070E+05   -1.8419531E+00
   1.5707174E-04   4.7383284E+05   -1.8414546E+00
   1.5779711E-04   4.6983017E+05   -1.8409553E+00
   1.5852584E-04   4.6586239E+05   -1.8404552E+00
   1.5925792E-04   4.6192918E+05   -1.8399542E+00
   1.5999339E-04   4.5803024E+05   -1.8394524E+00
   1.6073226E-04   4.5416526E+05   -1.8389497E+00
   1.6147454E-04   4.5033393E+05   -1.8384463E+00
   1.6222024E-04   4.4653596E+05   -1.8379420E+00
   1.6296939E-04   4.4277106E+05   -1.8374369E+00
   1.6372200E-04   4.3903892E+05   -1.8369310E+00
   1.6447809E-04   4.3533925E+05   -1.8364242E+00
   1.6523767E-04   4.3167177E+05   -1.8359167E+00
   1.6600075E-04   4.2803619E+05   -1.8354083E+00
   1.6676736E-04   4.2443222E+05   -1.8348992E+00
   1.6753751E-04   4.2085958E+05   -1.8343892E+00
   1.6831122E-04   4.1731800E+05   -1.8338785E+00
   1.6908849E-04   4.1380720E+05   -1.8333670E+00
   1.6986936E-04   4.1032689E+05   -1.8328546E+00
   1.7065384E-04   4.0687682E+05   -1.8323415E+00
   1.7144193E-04   4.0345672E+05   -1.8318277E+00
   1.7223367E-04   4.0006630E+05   -1.8313130E+00
   1.7302906E-04   3.9670533E+05   -1.8307976E+00
   1.7382813E-04   3.9337352E+05   -1.8302814E+00
   1.7463089E-04   3.9007063E+05   -1.8297644E+00
   1.7543735E-04   3.8679638E+05   -1.8292467E+00
   1.7624754E-04   3.8355054E+05   -1.8287282E+00
   1.7706147E-04   3.8033285E+05   -1.8282090E+00
   1.7787916E-04   3.7714305E+05   -1.8276890E+00
   1.7870062E-04   3.7398090E+05   -1.8271683E+00
   1.7952588E-04   3.7084615E+05   -1.8266468E+00
   1.8035495E-04   3.6773857E+05   -1.8261246E+00
   1.8118785E-04   3.6465790E+05   -1.8256017E+00
   1.8202459E-04   3.6160391E+05   -1.8250780E+00
   1.8286520E-04   3.5857636E+05   -1.8245536E+00
   1.8370969E-04   3.5557503E+05   -1.8240285E+00
   1.8455808E-04   3.5259967E+05   -1.8235027E+00
   1.8541039E-04   3.4965005E+05   -1.8229761E+00
   1.8626663E-04   3.4672595E+05   -1.8224489E+00
   1.8712683E-04   3.4382714E+05   -1.8219209E+00
   1.8799100E-04   3.4095340E+05   -1.8213923E+00
   1.8885917E-04   3.3810449E+05   -1.8208629E+00
   1.8973134E-04   3.3528021E+05   -1.8203329E+00
   1.9060754E-04   3.3248034E+05   -1.8198021E+00
   1.9148778E-04   3.2970465E+05   -1.8192707E+00
   1.9237209E-04   3.2695294E+05   -1.8187386E+00
   1.9326049E-04   3.2422499E+05   -1.8182058E+00
   1.9415299E-04   3.2152058E+05   -1.8176724E+00
   1.9504960E-04   3.1883953E+05   -1.8171383E+00
   1.9595036E-04   3.1618160E+05   -1.8166035E+00
   1.9685528E-04   3.1354661E+05   -1.8160681E+00
   1.9776438E-04   3.1093434E+05   -1.8155320E+00
   1.9867768E-04   3.0834460E+05   -1.8149953E+00
   1.9959519E-04   3.0577719E+05   -1.8144579E+00
   2.0051694E-04   3.0323190E+05   -1.8139199E+00
   2.0144295E-04   3.0070855E+05   -1.8133812E+00
   2.0237324E-04   2.9820693E+05   -1.8128420E+00
   2.0330782E-04   2.9572686E+05   -1.8123021E+00
   2.0424671E-04   2.9326815E+05   -1.8117615E+00
   2.0518995E-04   2.9083060E+05   -1.8112204E+00
   2.0613754E-04   2.8841403E+05   -1.8106787E+00
   2.0708950E-04   2.8601826E+05   -1.8101363E+00
   2.0804586E-04   2.8364310E+05   -1.8095933E+00
   2.0900664E-04   2.8128837E+05   -1.8090498E+00
   2.0997185E-04   2.7895388E+05   -1.8085056E+00
   2.1094152E-04   2.7663946E+05   -1.8079609E+00
   2.1191567E-04   2.7434494E+05   -1.8074156E+00
   2.1289432E-04   2.7207012E+05   -1.8068697E+00
   2.1387749E-04   2.6981485E+05   -1.8063232E+00
   2.1486520E-04   2.6757895E+05   -1.8057762E+00
   2.1585747E-04   2.6536225E+05   -1.8052286E+00
   2.1685432E-04   2.6316457E+05   -1.8046804E+00
   2.1785578E-04   2.6098575E+05   -1.8041317E+00
   2.1886186E-04   2.5882563E+05   -1.8035825E+00
   2.1987259E-04   2.5668404E+05   -1.8030327E+00
   2.2088798E-04   2.5456081E+05   -1.8024823E+00
   2.2190807E-04   2.5245579E+05   -1.8019315E+00
   2.2293286E-04   2.5036880E+05   -1.8013801E+00
   2.2396239E-04   2.4829971E+05   -1.8008281E+00
   2.2499667E-04   2.4624833E+05   -1.8002757E+00
   2.2603573E-04   2.4421453E+05   -1.7997227E+00
   2.2707958E-04   2.4219814E+05   -1.7991693E+00
   2.2812826E-04   2.4019902E+05   -1.7986153E+00
   2.2918178E-04   2.3821700E+05   -1.7980609E+00
   2.3024017E-04   2.3625194E+05   -1.7975059E+00
   2.3130344E-04   2.3430369E+05   -1.7969505E+00
   2.3237162E-04   2.3237210E+05   -1.7963946E+00
   2.3344474E-04   2.3045703E+05   -1.7958382E+00
   2.3452281E-04   2.2855832E+05   -1.7952813E+00
   2.3560586E-04   2.2667584E+05   -1.7947240E+00
   2.3669392E-04   2.2480944E+05   -1.7941662E+00
   2.3778699E-04   2.2295899E+05   -1.7936079E+00
   2.3888512E-04   2.2112433E+05   -1.7930492E+00
   2.3998831E-04   2.1930534E+05   -1.7924901E+00
   2.4109661E-04   2.1750187E+05   -1.7919305E+00
   2.4221001E-04   2.1571378E+05   -1.7913705E+00
   2.4332857E-04   2.1394095E+05   -1.7908101E+00
   2.4445228E-04   2.1218324E+05   -1.7902492E+00
   2.4558119E-04   2.1044051E+05   -1.7896879E+00
   2.4671531E-04   2.0871263E+05   -1.7891263E+00
   2.4785467E-04   2.0699948E+05   -1.7885642E+00
   2.4899928E-04   2.0530092E+05   -1.7880017E+00
   2.5014919E-04   2.0361683E+05   -1.7874388E+00
   2.5130440E-04   2.0194708E+05   -1.7868755E+00
   2.5246495E-04   2.0029153E+05   -1.7863119E+00
   2.5363086E-04   1.9865008E+05   -1.7857478E+00
   2.5480216E-04   1.9702259E+05   -1.7851834E+00
   2.5597886E-04   1.9540895E+05   -1.7846186E+00
   2.5716100E-04   1.9380902E+05   -1.7840535E+00
   2.5834859E-04   1.9222269E+05   -1.7834880E+00
   2.5954168E-04   1.9064985E+05   -1.7829222E+00
   2.6074027E-04   1.8909037E+05   -1.7823560E+00
   2.6194439E-04   1.8754413E+05   -1.7817895E+00
   2.6315408E-04   1.8601102E+05   -1.7812226E+00
   2.6436935E-04   1.8449093E+05   -1.7806554E+00
   2.6559024E-04   1.8298374E+05   -1.7800879E+00
   2.6681676E-04   1.8148933E+05   -1.7795201E+00
   2.6804895E-04   1.8000761E+05   -1.7789520E+00
   2.6928683E-04   1.7853844E+05   -1.7783835E+00
   2.7053042E-04   1.7708173E+05   -1.7778148E+00
   2.7177976E-04   1.7563737E+05   -1.7772458E+00
   2.7303487E-04   1.7420524E+05   -1.7766765E+00
   2.7429577E-04   1.7278525E+05   -1.7761069E+00
   2.7556250E-04   1.7137728E+05   -1.7755370E+00
   2.7683507E-04   1.6998123E+05   -1.7749669E+00
   2.7811353E-04   1.6859699E+05   -1.7743965E+00
   2.7939788E-04   1.6722447E+05   -1.7738258E+00
   2.8068817E-04   1.6586356E+05   -1.7732549E+00
   2.8198442E-04   1.6451415E+05   -1.7726838E+00
   2.8328665E-04   1.6317615E+05   -1.7721124E+00
   2.8459490E-04   1.6184946E+05   -1.7715408E+00
   2.8590919E-04   1.6053398E+05   -1.7709689E+00
   2.8722955E-04   1.5922961E+05   -1.7703968E+00
   2.8855600E-04   1.5793626E+05   -1.7698245E+00
   2.8988859E-04   1.5665383E+05   -1.7692521E+00
   2.9122732E-04   1.5538221E+05   -1.7686793E+00
   2.9257224E-04   1.5412133E+05   -1.7681065E+00
   2.9392337E-04   1.5287108E+05   -1.7675334E+00
   2.9528074E-04   1.5163138E+05   -1.7669601E+00
   2.9664438E-04   1.5040212E+05   -1.7663866E+00
   2.9801431E-04   1.4918323E+05   -1.7658130E+00
   2.9939057E-04   1.4797460E+05   -1.7652392E+00
   3.0077319E-04   1.4677616E+05   -1.7646652E+00
   3.0216219E-04   1.4558780E+05   -1.7640911E+00
   3.0355761E-04   1.4440945E+05   -1.7635169E+00
   3.0495947E-04   1.4324102E+05   -1.7629425E+00
   3.0636780E-04   1.4208241E+05   -1.7623679E+00
   3.0778264E-04   1.4093355E+05   -1.7617932E+00
   3.0920401E-04   1.3979435E+05   -1.7612184E+00
   3.1063195E-04   1.3866473E+05   -1.7606435E+00
   3.1206648E-04   1.3754459E+05   -1.7600685E+00
   3.1350764E-04   1.3643387E+05   -1.7594933E+00
   3.1495545E-04   1.3533248E+05   -1.7589181E+00
   3.1640994E-04   1.3424033E+05   -1.7583427E+00
   3.1787116E-04   1.3315735E+05   -1.7577673E+00
   3.1933912E-04   1.3208346E+05   -1.7571918E+00
   3.2081386E-04   1.3101857E+05   -1.7566162E+00
   3.2229541E-04   1.2996262E+05   -1.7560405E+00
   3.2378381E-04   1.2891551E+05   -1.7554648E+00
   3.2527908E-04   1.2787719E+05   -1.7548890E+00
   3.2678125E-04   1.2684756E+05   -1.7543132E+00
   3.2829036E-04   1.2582656E+05   -1.7537373E+00
   3.2980644E-04   1.2481410E+05   -1.7531614E+00
   3.3132952E-04   1.2381012E+05   -1.7525854E+00
   3.3285963E-04   1.2281455E+05   -1.7520095E+00
   3.3439681E-04   1.2182730E+05   -1.7514334E+00
   3.3594109E-04   1.2084831E+05   -1.7508574E+00
   3.3749250E-04   1.1987750E+05   -1.7502814E+00
   3.3905108E-04   1.1891481E+05   -1.7497054E+00
   3.4061685E-04   1.1796016E+05   -1.7491293E+00
   3.4218986E-04   1.1701349E+05   -1.7485533E+00
   3.4377013E-04   1.1607472E+05   -1.7479773E+00
   3.4535769E-04   1.1514379E+05   -1.7474013E+00
   3.4695259E-04   1.1422063E+05   -1.7468253E+00
   3.4855485E-04   1.1330517E+05   -1.7462494E+00
   3.5016452E-04   1.1239734E+05   -1.7456735E+00
   3.5178161E-04   1.1149709E+05   -1.7450977E+00
   3.5340618E-04   1.1060434E+05   -1.7445219E+00
   3.5503824E-04   1.0971903E+05   -1.7439461E+00
   3.5667785E-04   1.0884109E+05   -1.7433705E+00
   3.5832502E-04   1.0797047E+05   -1.7427949E+00
   3.5997981E-04   1.0710709E+05   -1.7422193E+00
   3.6164223E-04   1.0625090E+05   -1.7416439E+00
   3.6331233E-04   1.0540183E+05   -1.7410685E+00
   3.6499015E-04   1.0455983E+05   -1.7404933E+00
   3.6667571E-04   1.0372483E+05   -1.7399181E+00
   3.6836906E-04   1.0289676E+05   -1.7393430E+00
   3.7007022E-04   1.0207558E+05   -1.7387681E+00
   3.7177925E-04   1.0126122E+05   -1.7381933E+00
   3.7349616E-04   1.0045362E+05   -1.7376186E+00
   3.7522101E-04   9.9652731E+04   -1.7370440E+00
   3.7695382E-04   9.8858486E+04   -1.7364695E+00
   3.7869463E-04   9.8070830E+04   -1.7358952E+00
   3.8044348E-04   9.7289708E+04   -1.7353211E+00
   3.8220041E-04   9.6515063E+04   -1.7347471E+00
   3.8396545E-04   9.5746838E+04   -1.7341733E+00
   3.8573864E-04   9.4984980E+04   -1.7335996E+00
   3.8752002E-04   9.4229432E+04   -1.7330261E+00
   3.8930963E-04   9.3480142E+04   -1.7324528E+00
   3.9110750E-04   9.2737054E+04   -1.7318797E+00
   3.9291368E-04   9.2000116E+04   -1.7313067E+00
   3.9472820E-04   9.1269276E+04   -1.7307340E+00
   3.9655109E-04   9.0544480E+04   -1.7301614E+00
   3.9838241E-04   8.9825676E+04   -1.7295891E+00
   4.0022218E-04   8.9112814E+04   -1.7290170E+00
   4.0207045E-04   8.8405843E+04   -1.7284451E+00
   4.0392725E-04   8.7704711E+04   -1.7278734E+00
   4.0579263E-04   8.7009369E+04   -1.7273020E+00
   4.0766662E-04   8.6319767E+04   -1.7267308E+00
   4.0954927E-04   8.5635855E+04   -1.7261598E+00
   4.1144061E-04   8.4957586E+04   -1.7255891E+00
   4.1334068E-04   8.4284911E+04   -1.7250187E+00
   4.1524953E-04   8.3617781E+04   -1.7244485E+00
   4.1716720E-04   8.2956149E+04   -1.7238786E+00
   4.1909372E-04   8.2299969E+04   -1.7233089E+00
   4.2102914E-04   8.1649194E+04   -1.7227395E+00
   4.2297350E-04   8.1003776E+04   -1.7221705E+00
   4.2492683E-04   8.0363672E+04   -1.7216017E+00
   4.2688919E-04   7.9728834E+04   -1.7210332E+00
   4.2886061E-04   7.9099219E+04   -1.7204650E+00
   4.3084113E-04   7.8474781E+04   -1.7198971E+00
   4.3283080E-04   7.7855476E+04   -1.7193295E+00
   4.3482966E-04   7.7241261E+04   -1.7187623E+00
   4.3683775E-04   7.6632091E+04   -1.7181953E+00
   4.3885511E-04   7.6027925E+04   -1.7176288E+00
   4.4088179E-04   7.5428718E+04   -1.7170625E+00
   4.4291783E-04   7.4834429E+04   -1.7164966E+00
   4.4496327E-04   7.4245016E+04   -1.7159310E+00
   4.4701816E-04   7.3660437E+04   -1.7153658E+00
   4.4908253E-04   7.3080651E+04   -1.7148009E+00
   4.5115644E-04   7.2505617E+04   -1.7142365E+00
   4.5323993E-04   7.1935295E+04   -1.7136723E+00
   4.5533304E-04   7.1369645E+04   -1.7131086E+00
   4.5743582E-04   7.0808626E+04   -1.7125452E+00
   4.5954830E-04   7.0252200E+04   -1.7119823E+00
   4.6167054E-04   6.9700327E+04   -1.7114197E+00
   4.6380259E-04   6.9152968E+04   -1.7108575E+00
   4.6594448E-04   6.8610086E+04   -1.7102957E+00
   4.6809626E-04   6.8071641E+04   -1.7097344E+00
   4.7025797E-04   6.7537597E+04   -1.7091734E+00
   4.7242967E-04   6.7007915E+04   -1.7086129E+00
   4.7461140E-04   6.6482560E+04   -1.7080528E+00
   4.7680321E-04   6.5961493E+04   -1.7074931E+00
   4.7900514E-04   6.5444679E+04   -1.7069339E+00
   4.8121723E-04   6.4932082E+04   -1.7063751E+00
   4.8343954E-04   6.4423665E+04   -1.7058168E+00
   4.8567212E-04   6.3919394E+04   -1.7052589E+00
   4.8791500E-04   6.3419232E+04   -1.7047014E+00
   4.9016825E-04   6.2923146E+04   -1.7041445E+00
   4.9243189E-04   6.2431101E+04   -1.7035880E+00
   4.9470600E-04   6.1943062E+04   -1.7030319E+00
   4.9699060E-04   6.1458995E+04   -1.7024764E+00
   4.9928575E-04   6.0978868E+04   -1.7019213E+00
   5.0159151E-04   6.0502646E+04   -1.7013668E+00
   5.0390791E-04   6.0030296E+04   -1.7008127E+00
   5.0623501E-04   5.9561786E+04   -1.7002591E+00
   5.0857286E-04   5.9097083E+04   -1.6997061E+00
   5.1092150E-04   5.8636155E+04   -1.6991535E+00
   5.1328099E-04   5.8178970E+04   -1.6986015E+00
   5.1565137E-04   5.7725497E+04   -1.6980500E+00
   5.1803270E-04   5.7275704E+04   -1.6974990E+00
   5.2042503E-04   5.6829559E+04   -1.6969485E+00
   5.2282841E-04   5.6387033E+04   -1.6963986E+00
   5.2524289E-04   5.5948094E+04   -1.6958492E+00
   5.2766851E-04   5.5512713E+04   -1.6953004E+00
   5.3010534E-04   5.5080859E+04   -1.6947521E+00
   5.3255342E-04   5.4652502E+04   -1.6942044E+00
   5.3501281E-04   5.4227614E+04   -1.6936572E+00
   5.3748356E-04   5.3806164E+04   -1.6931106E+00
   5.3996571E-04   5.3388124E+04   -1.6925646E+00
   5.4245933E-04   5.2973466E+04   -1.6920192E+00
   5.4496446E-04   5.2562160E+04   -1.6914743E+00
   5.4748117E-04   5.2154178E+04   -1.6909300E+00
   5.5000949E-04   5.1749493E+04   -1.6903863E+00
   5.5254949E-04   5.1348076E+04   -1.6898432E+00
   5.5510123E-04   5.0949901E+04   -1.6893007E+00
   5.5766474E-04   5.0554940E+04   -1.6887589E+00
   5.6024010E-04   5.0163165E+04   -1.6882176E+00
   5.6282734E-04   4.9774550E+04   -1.6876769E+00
   5.6542654E-04   4.9389070E+04   -1.6871369E+00
   5.6803774E-04   4.9006696E+04   -1.6865975E+00
   5.7066099E-04   4.8627403E+04   -1.6860587E+00
   5.7329637E-04   4.8251166E+04   -1.6855205E+00
   5.7594391E-04   4.7877958E+04   -1.6849830E+00
   5.7860368E-04   4.7507755E+04   -1.6844461E+00
   5.8127573E-04   4.7140531E+04   -1.6839099E+00
   5.8396012E-04   4.6776261E+04   -1.6833743E+00
   5.8665691E-04   4.6414920E+04   -1.6828394E+00
   5.8936616E-04   4.6056483E+04   -1.6823051E+00
   5.9208791E-04   4.5700928E+04   -1.6817715E+00
   5.9482223E-04   4.5348228E+04   -1.6812386E+00
   5.9756919E-04   4.4998361E+04   -1.6807063E+00
   6.0032882E-04   4.4651303E+04   -1.6801748E+00
   6.0310120E-04   4.4307030E+04   -1.6796439E+00
   6.0588639E-04   4.3965518E+04   -1.6791137E+00
   6.0868443E-04   4.3626746E+04   -1.6785841E+00
   6.1149540E-04   4.3290689E+04   -1.6780553E+00
   6.1431935E-04   4.2957326E+04   -1.6775272E+00
   6.1715634E-04   4.2626634E+04   -1.6769998E+00
   6.2000644E-04   4.2298590E+04   -1.6764731E+00
   6.2286969E-04   4.1973172E+04   -1.6759471E+00
