#        a       HoverH0(a)       dlogHdloga_of_a(a)
   1.0000000E-04   1.0394811E+06   -1.8723182E+00
   1.0046181E-04   1.0305534E+06   -1.8718796E+00
   1.0092575E-04   1.0217045E+06   -1.8714400E+00
   1.0139184E-04   1.0129337E+06   -1.8709995E+00
   1.0186008E-04   1.0042401E+06   -1.8705580E+00
   1.0233048E-04   9.9562326E+05   -1.8701155E+00
   1.0280305E-04   9.8708233E+05   -1.8696720E+00
   1.0327781E-04   9.7861667E+05   -1.8692275E+00
   1.0375475E-04   9.7022560E+05   -1.8687821E+00
   1.0423390E-04   9.6190845E+05   -1.8683357E+00
   1.0471527E-04   9.5366457E+05   -1.8678883E+00
   1.0519885E-04   9.4549329E+05   -1.8674399E+00
   1.0568467E-04   9.3739396E+05   -1.8669905E+00
   1.0617274E-04   9.2936594E+05   -1.8665402E+00
   1.0666305E-04   9.2140858E+05   -1.8660890E+00
   1.0715563E-04   9.1352127E+05   -1.8656367E+00
   1.0765049E-04   9.0570335E+05   -1.8651835E+00
   1.0814763E-04   8.9795422E+05   -1.8647293E+00
   1.0864707E-04   8.9027326E+05   -1.8642742E+00
   1.0914881E-04   8.8265985E+05   -1.8638181E+00
   1.0965287E-04   8.7511339E+05   -1.8633610E+00
   1.1015926E-04   8.6763328E+05   -1.8629030E+00
   1.1066799E-04   8.6021892E+05   -1.8624441E+00
   1.1117906E-04   8.5286972E+05   -1.8619842E+00
   1.1169250E-04   8.4558511E+05   -1.8615233E+00
   1.1220831E-04   8.3836450E+05   -1.8610615E+00
   1.1272650E-04   8.3120732E+05   -1.8605987E+00
   1.1324708E-04   8.2411299E+05   -1.8601350E+00
   1.1377007E-04   8.1708097E+05   -1.8596704E+00
   1.1429547E-04   8.1011069E+05   -1.8592048E+00
   1.1482330E-04   8.0320159E+05   -1.8587383E+00
   1.1535356E-04   7.9635313E+05   -1.8582708E+00
   1.1588628E-04   7.8956476E+05   -1.8578024E+00
   1.1642145E-04   7.8283595E+05   -1.8573331E+00
   1.1695910E-04   7.7616617E+05   -1.8568628E+00
   1.1749923E-04   7.6955488E+05   -1.8563916E+00
   1.1804185E-04   7.6300157E+05   -1.8559195E+00
   1.1858698E-04   7.5650570E+05   -1.8554465E+00
   1.1913463E-04   7.5006678E+05   -1.8549725E+00
   1.1968481E-04   7.4368428E+05   -1.8544977E+00
   1.2023752E-04   7.3735771E+05   -1.8540219E+00
   1.2079279E-04   7.3108657E+05   -1.8535452E+00
   1.2135063E-04   7.2487036E+05   -1.8530676E+00
   1.2191104E-04   7.1870858E+05   -1.8525891E+00
   1.2247403E-04   7.1260076E+05   -1.8521096E+00
   1.2303963E-04   7.0654640E+05   -1.8516293E+00
   1.2360784E-04   7.0054503E+05   -1.8511481E+00
   1.2417868E-04   6.9459618E+05   -1.8506660E+00
   1.2475215E-04   6.8869938E+05   -1.8501829E+00
   1.2532826E-04   6.8285416E+05   -1.8496990E+00
   1.2590704E-04   6.7706006E+05   -1.8492142E+00
   1.2648850E-04   6.7131662E+05   -1.8487285E+00
   1.2707263E-04   6.6562340E+05   -1.8482420E+00
   1.2765947E-04   6.5997994E+05   -1.8477545E+00
   1.2824901E-04   6.5438580E+05   -1.8472662E+00
   1.2884128E-04   6.4884054E+05   -1.8467770E+00
   1.2943628E-04   6.4334372E+05   -1.8462869E+00
   1.3003403E-04   6.3789491E+05   -1.8457959E+00
   1.3063454E-04   6.3249368E+05   -1.8453041E+00
   1.3123783E-04   6.2713960E+05   -1.8448114E+00
   1.3184390E-04   6.2183226E+05   -1.8443178E+00
   1.3245277E-04   6.1657124E+05   -1.8438234E+00
   1.3306445E-04   6.1135613E+05   -1.8433282E+00
   1.3367895E-04   6.0618651E+05   -1.8428321E+00
   1.3429630E-04   6.0106197E+05   -1.8423351E+00
   1.3491649E-04   5.9598213E+05   -1.8418373E+00
   1.3553955E-04   5.9094657E+05   -1.8413386E+00
   1.3616548E-04   5.8595491E+05   -1.8408391E+00
   1.3679431E-04   5.8100675E+05   -1.8403388E+00
   1.3742604E-04   5.7610171E+05   -1.8398376E+00
   1.3806069E-04   5.7123939E+05   -1.8393356E+00
   1.3869827E-04   5.6641943E+05   -1.8388328E+00
   1.3933879E-04   5.6164144E+05   -1.8383291E+00
   1.3998227E-04   5.5690504E+05   -1.8378247E+00
   1.4062872E-04   5.5220987E+05   -1.8373194E+00
   1.4127816E-04   5.4755556E+05   -1.8368133E+00
   1.4193060E-04   5.4294175E+05   -1.8363063E+00
   1.4258605E-04   5.3836807E+05   -1.8357986E+00
   1.4324453E-04   5.3383417E+05   -1.8352901E+00
   1.4390605E-04   5.2933969E+05   -1.8347808E+00
   1.4457062E-04   5.2488429E+05   -1.8342707E+00
   1.4523826E-04   5.2046761E+05   -1.8337597E+00
   1.4590899E-04   5.1608932E+05   -1.8332480E+00
   1.4658281E-04   5.1174906E+05   -1.8327355E+00
   1.4725974E-04   5.0744650E+05   -1.8322223E+00
   1.4793981E-04   5.0318130E+05   -1.8317082E+00
   1.4862301E-04   4.9895314E+05   -1.8311934E+00
   1.4930936E-04   4.9476168E+05   -1.8306778E+00
   1.4999889E-04   4.9060660E+05   -1.8301614E+00
   1.5069160E-04   4.8648757E+05   -1.8296443E+00
   1.5138751E-04   4.8240428E+05   -1.8291264E+00
   1.5208663E-04   4.7835640E+05   -1.8286078E+00
   1.5278899E-04   4.7434361E+05   -1.8280884E+00
   1.5349458E-04   4.7036562E+05   -1.8275682E+00
   1.5420343E-04   4.6642211E+05   -1.8270473E+00
   1.5491556E-04   4.6251277E+05   -1.8265257E+00
   1.5563098E-04   4.5863730E+05   -1.8260033E+00
   1.5634970E-04   4.5479540E+05   -1.8254802E+00
   1.5707174E-04   4.5098677E+05   -1.8249564E+00
   1.5779711E-04   4.4721111E+05   -1.8244319E+00
   1.5852584E-04   4.4346814E+05   -1.8239066E+00
   1.5925792E-04   4.3975756E+05   -1.8233806E+00
   1.5999339E-04   4.3607908E+05   -1.8228539E+00
   1.6073226E-04   4.3243242E+05   -1.8223265E+00
   1.6147454E-04   4.2881730E+05   -1.8217984E+00
   1.6222024E-04   4.2523344E+05   -1.8212696E+00
   1.6296939E-04   4.2168056E+05   -1.8207401E+00
   1.6372200E-04   4.1815838E+05   -1.8202099E+00
   1.6447809E-04   4.1466664E+05   -1.8196790E+00
   1.6523767E-04   4.1120506E+05   -1.8191474E+00
   1.6600075E-04   4.0777338E+05   -1.8186152E+00
   1.6676736E-04   4.0437133E+05   -1.8180823E+00
   1.6753751E-04   4.0099864E+05   -1.8175487E+00
   1.6831122E-04   3.9765507E+05   -1.8170144E+00
   1.6908849E-04   3.9434034E+05   -1.8164795E+00
   1.6986936E-04   3.9105421E+05   -1.8159440E+00
   1.7065384E-04   3.8779642E+05   -1.8154077E+00
   1.7144193E-04   3.8456673E+05   -1.8148709E+00
   1.7223367E-04   3.8136487E+05   -1.8143334E+00
   1.7302906E-04   3.7819061E+05   -1.8137952E+00
   1.7382813E-04   3.7504370E+05   -1.8132564E+00
   1.7463089E-04   3.7192390E+05   -1.8127170E+00
   1.7543735E-04   3.6883097E+05   -1.8121770E+00
   1.7624754E-04   3.6576467E+05   -1.8116363E+00
   1.7706147E-04   3.6272477E+05   -1.8110951E+00
   1.7787916E-04   3.5971103E+05   -1.8105532E+00
   1.7870062E-04   3.5672322E+05   -1.8100107E+00
   1.7952588E-04   3.5376111E+05   -1.8094676E+00
   1.8035495E-04   3.5082448E+05   -1.8089239E+00
   1.8118785E-04   3.4791309E+05   -1.8083797E+00
   1.8202459E-04   3.4502673E+05   -1.8078348E+00
   1.8286520E-04   3.4216518E+05   -1.8072894E+00
   1.8370969E-04   3.3932822E+05   -1.8067434E+00
   1.8455808E-04   3.3651562E+05   -1.8061968E+00
   1.8541039E-04   3.3372718E+05   -1.8056496E+00
   1.8626663E-04   3.3096267E+05   -1.8051019E+00
   1.8712683E-04   3.2822190E+05   -1.8045536E+00
   1.8799100E-04   3.2550465E+05   -1.8040048E+00
   1.8885917E-04   3.2281070E+05   -1.8034554E+00
   1.8973134E-04   3.2013987E+05   -1.8029055E+00
   1.9060754E-04   3.1749194E+05   -1.8023551E+00
   1.9148778E-04   3.1486670E+05   -1.8018041E+00
   1.9237209E-04   3.1226397E+05   -1.8012526E+00
   1.9326049E-04   3.0968354E+05   -1.8007006E+00
   1.9415299E-04   3.0712521E+05   -1.8001480E+00
   1.9504960E-04   3.0458880E+05   -1.7995950E+00
   1.9595036E-04   3.0207410E+05   -1.7990414E+00
   1.9685528E-04   2.9958093E+05   -1.7984873E+00
   1.9776438E-04   2.9710909E+05   -1.7979328E+00
   1.9867768E-04   2.9465841E+05   -1.7973777E+00
   1.9959519E-04   2.9222868E+05   -1.7968222E+00
   2.0051694E-04   2.8981973E+05   -1.7962662E+00
   2.0144295E-04   2.8743138E+05   -1.7957097E+00
   2.0237324E-04   2.8506344E+05   -1.7951527E+00
   2.0330782E-04   2.8271573E+05   -1.7945953E+00
   2.0424671E-04   2.8038808E+05   -1.7940374E+00
   2.0518995E-04   2.7808031E+05   -1.7934791E+00
   2.0613754E-04   2.7579224E+05   -1.7929203E+00
   2.0708950E-04   2.7352370E+05   -1.7923611E+00
   2.0804586E-04   2.7127452E+05   -1.7918014E+00
   2.0900664E-04   2.6904454E+05   -1.7912413E+00
   2.0997185E-04   2.6683357E+05   -1.7906808E+00
   2.1094152E-04   2.6464145E+05   -1.7901199E+00
   2.1191567E-04   2.6246802E+05   -1.7895585E+00
   2.1289432E-04   2.6031312E+05   -1.7889968E+00
   2.1387749E-04   2.5817658E+05   -1.7884346E+00
   2.1486520E-04   2.5605823E+05   -1.7878720E+00
   2.1585747E-04   2.5395792E+05   -1.7873091E+00
   2.1685432E-04   2.5187550E+05   -1.7867457E+00
   2.1785578E-04   2.4981080E+05   -1.7861820E+00
   2.1886186E-04   2.4776367E+05   -1.7856179E+00
   2.1987259E-04   2.4573395E+05   -1.7850534E+00
   2.2088798E-04   2.4372150E+05   -1.7844886E+00
   2.2190807E-04   2.4172615E+05   -1.7839234E+00
   2.2293286E-04   2.3974777E+05   -1.7833578E+00
   2.2396239E-04   2.3778620E+05   -1.7827919E+00
   2.2499667E-04   2.3584129E+05   -1.7822257E+00
   2.2603573E-04   2.3391290E+05   -1.7816591E+00
   2.2707958E-04   2.3200089E+05   -1.7810922E+00
   2.2812826E-04   2.3010510E+05   -1.7805249E+00
   2.2918178E-04   2.2822540E+05   -1.7799574E+00
   2.3024017E-04   2.2636165E+05   -1.7793895E+00
   2.3130344E-04   2.2451371E+05   -1.7788213E+00
   2.3237162E-04   2.2268143E+05   -1.7782528E+00
   2.3344474E-04   2.2086469E+05   -1.7776840E+00
   2.3452281E-04   2.1906334E+05   -1.7771150E+00
   2.3560586E-04   2.1727726E+05   -1.7765456E+00
   2.3669392E-04   2.1550630E+05   -1.7759760E+00
   2.3778699E-04   2.1375034E+05   -1.7754061E+00
   2.3888512E-04   2.1200925E+05   -1.7748359E+00
   2.3998831E-04   2.1028288E+05   -1.7742655E+00
   2.4109661E-04   2.0857113E+05   -1.7736948E+00
   2.4221001E-04   2.0687385E+05   -1.7731238E+00
   2.4332857E-04   2.0519092E+05   -1.7725526E+00
   2.4445228E-04   2.0352222E+05   -1.7719812E+00
   2.4558119E-04   2.0186763E+05   -1.7714096E+00
   2.4671531E-04   2.0022701E+05   -1.7708377E+00
   2.4785467E-04   1.9860025E+05   -1.7702656E+00
   2.4899928E-04   1.9698722E+05   -1.7696933E+00
   2.5014919E-04   1.9538781E+05   -1.7691207E+00
   2.5130440E-04   1.9380190E+05   -1.7685480E+00
   2.5246495E-04   1.9222937E+05   -1.7679751E+00
   2.5363086E-04   1.9067010E+05   -1.7674020E+00
   2.5480216E-04   1.8912398E+05   -1.7668287E+00
   2.5597886E-04   1.8759089E+05   -1.7662552E+00
   2.5716100E-04   1.8607072E+05   -1.7656816E+00
   2.5834859E-04   1.8456336E+05   -1.7651078E+00
   2.5954168E-04   1.8306869E+05   -1.7645338E+00
   2.6074027E-04   1.8158661E+05   -1.7639597E+00
   2.6194439E-04   1.8011700E+05   -1.7633854E+00
   2.6315408E-04   1.7865976E+05   -1.7628110E+00
   2.6436935E-04   1.7721478E+05   -1.7622364E+00
   2.6559024E-04   1.7578195E+05   -1.7616617E+00
   2.6681676E-04   1.7436117E+05   -1.7610869E+00
   2.6804895E-04   1.7295233E+05   -1.7605120E+00
   2.6928683E-04   1.7155532E+05   -1.7599369E+00
   2.7053042E-04   1.7017005E+05   -1.7593618E+00
   2.7177976E-04   1.6879642E+05   -1.7587866E+00
   2.7303487E-04   1.6743432E+05   -1.7582112E+00
   2.7429577E-04   1.6608364E+05   -1.7576358E+00
   2.7556250E-04   1.6474430E+05   -1.7570603E+00
   2.7683507E-04   1.6341620E+05   -1.7564847E+00
   2.7811353E-04   1.6209923E+05   -1.7559091E+00
   2.7939788E-04   1.6079330E+05   -1.7553333E+00
   2.8068817E-04   1.5949832E+05   -1.7547576E+00
   2.8198442E-04   1.5821418E+05   -1.7541817E+00
   2.8328665E-04   1.5694080E+05   -1.7536059E+00
   2.8459490E-04   1.5567809E+05   -1.7530300E+00
   2.8590919E-04   1.5442594E+05   -1.7524540E+00
   2.8722955E-04   1.5318427E+05   -1.7518781E+00
   2.8855600E-04   1.5195298E+05   -1.7513021E+00
   2.8988859E-04   1.5073200E+05   -1.7507261E+00
   2.9122732E-04   1.4952122E+05   -1.7501501E+00
   2.9257224E-04   1.4832056E+05   -1.7495741E+00
   2.9392337E-04   1.4712993E+05   -1.7489981E+00
   2.9528074E-04   1.4594925E+05   -1.7484221E+00
   2.9664438E-04   1.4477842E+05   -1.7478461E+00
   2.9801431E-04   1.4361737E+05   -1.7472701E+00
   2.9939057E-04   1.4246601E+05   -1.7466942E+00
   3.0077319E-04   1.4132425E+05   -1.7461183E+00
   3.0216219E-04   1.4019202E+05   -1.7455425E+00
   3.0355761E-04   1.3906923E+05   -1.7449666E+00
   3.0495947E-04   1.3795579E+05   -1.7443909E+00
   3.0636780E-04   1.3685163E+05   -1.7438152E+00
   3.0778264E-04   1.3575667E+05   -1.7432396E+00
   3.0920401E-04   1.3467083E+05   -1.7426640E+00
   3.1063195E-04   1.3359403E+05   -1.7420885E+00
   3.1206648E-04   1.3252619E+05   -1.7415131E+00
   3.1350764E-04   1.3146723E+05   -1.7409378E+00
   3.1495545E-04   1.3041708E+05   -1.7403626E+00
   3.1640994E-04   1.2937566E+05   -1.7397875E+00
   3.1787116E-04   1.2834290E+05   -1.7392125E+00
   3.1933912E-04   1.2731871E+05   -1.7386376E+00
   3.2081386E-04   1.2630304E+05   -1.7380628E+00
   3.2229541E-04   1.2529580E+05   -1.7374882E+00
   3.2378381E-04   1.2429692E+05   -1.7369137E+00
   3.2527908E-04   1.2330633E+05   -1.7363393E+00
   3.2678125E-04   1.2232396E+05   -1.7357651E+00
   3.2829036E-04   1.2134974E+05   -1.7351910E+00
   3.2980644E-04   1.2038359E+05   -1.7346171E+00
   3.3132952E-04   1.1942546E+05   -1.7340433E+00
   3.3285963E-04   1.1847526E+05   -1.7334697E+00
   3.3439681E-04   1.1753293E+05   -1.7328963E+00
   3.3594109E-04   1.1659840E+05   -1.7323230E+00
   3.3749250E-04   1.1567162E+05   -1.7317500E+00
   3.3905108E-04   1.1475250E+05   -1.7311771E+00
   3.4061685E-04   1.1384098E+05   -1.7306045E+00
   3.4218986E-04   1.1293700E+05   -1.7300320E+00
   3.4377013E-04   1.1204050E+05   -1.7294597E+00
   3.4535769E-04   1.1115141E+05   -1.7288877E+00
   3.4695259E-04   1.1026966E+05   -1.7283159E+00
   3.4855485E-04   1.0939519E+05   -1.7277443E+00
   3.5016452E-04   1.0852795E+05   -1.7271730E+00
   3.5178161E-04   1.0766786E+05   -1.7266018E+00
   3.5340618E-04   1.0681487E+05   -1.7260310E+00
   3.5503824E-04   1.0596892E+05   -1.7254604E+00
   3.5667785E-04   1.0512995E+05   -1.7248900E+00
   3.5832502E-04   1.0429789E+05   -1.7243199E+00
   3.5997981E-04   1.0347268E+05   -1.7237501E+00
   3.6164223E-04   1.0265428E+05   -1.7231805E+00
   3.6331233E-04   1.0184261E+05   -1.7226113E+00
   3.6499015E-04   1.0103763E+05   -1.7220423E+00
   3.6667571E-04   1.0023928E+05   -1.7214736E+00
   3.6836906E-04   9.9447490E+04   -1.7209052E+00
   3.7007022E-04   9.8662215E+04   -1.7203371E+00
   3.7177925E-04   9.7883397E+04   -1.7197693E+00
   3.7349616E-04   9.7110981E+04   -1.7192019E+00
   3.7522101E-04   9.6344912E+04   -1.7186347E+00
   3.7695382E-04   9.5585136E+04   -1.7180679E+00
   3.7869463E-04   9.4831599E+04   -1.7175014E+00
   3.8044348E-04   9.4084249E+04   -1.7169353E+00
   3.8220041E-04   9.3343031E+04   -1.7163695E+00
   3.8396545E-04   9.2607894E+04   -1.7158040E+00
   3.8573864E-04   9.1878786E+04   -1.7152390E+00
   3.8752002E-04   9.1155656E+04   -1.7146742E+00
   3.8930963E-04   9.0438452E+04   -1.7141099E+00
   3.9110750E-04   8.9727125E+04   -1.7135459E+00
   3.9291368E-04   8.9021623E+04   -1.7129822E+00
   3.9472820E-04   8.8321898E+04   -1.7124190E+00
   3.9655109E-04   8.7627900E+04   -1.7118562E+00
   3.9838241E-04   8.6939581E+04   -1.7112937E+00
   4.0022218E-04   8.6256892E+04   -1.7107317E+00
   4.0207045E-04   8.5579785E+04   -1.7101700E+00
   4.0392725E-04   8.4908214E+04   -1.7096088E+00
   4.0579263E-04   8.4242130E+04   -1.7090480E+00
   4.0766662E-04   8.3581487E+04   -1.7084876E+00
   4.0954927E-04   8.2926239E+04   -1.7079276E+00
   4.1144061E-04   8.2276340E+04   -1.7073681E+00
   4.1334068E-04   8.1631745E+04   -1.7068090E+00
   4.1524953E-04   8.0992408E+04   -1.7062504E+00
   4.1716720E-04   8.0358286E+04   -1.7056922E+00
   4.1909372E-04   7.9729333E+04   -1.7051344E+00
   4.2102914E-04   7.9105506E+04   -1.7045771E+00
   4.2297350E-04   7.8486762E+04   -1.7040203E+00
   4.2492683E-04   7.7873056E+04   -1.7034640E+00
   4.2688919E-04   7.7264348E+04   -1.7029081E+00
   4.2886061E-04   7.6660594E+04   -1.7023527E+00
   4.3084113E-04   7.6061753E+04   -1.7017978E+00
   4.3283080E-04   7.5467782E+04   -1.7012434E+00
   4.3482966E-04   7.4878641E+04   -1.7006895E+00
   4.3683775E-04   7.4294288E+04   -1.7001361E+00
   4.3885511E-04   7.3714684E+04   -1.6995832E+00
   4.4088179E-04   7.3139787E+04   -1.6990308E+00
   4.4291783E-04   7.2569559E+04   -1.6984789E+00
   4.4496327E-04   7.2003959E+04   -1.6979276E+00
   4.4701816E-04   7.1442949E+04   -1.6973767E+00
   4.4908253E-04   7.0886490E+04   -1.6968264E+00
   4.5115644E-04   7.0334543E+04   -1.6962767E+00
   4.5323993E-04   6.9787071E+04   -1.6957275E+00
   4.5533304E-04   6.9244035E+04   -1.6951788E+00
   4.5743582E-04   6.8705399E+04   -1.6946307E+00
   4.5954830E-04   6.8171124E+04   -1.6940832E+00
   4.6167054E-04   6.7641175E+04   -1.6935362E+00
   4.6380259E-04   6.7115514E+04   -1.6929898E+00
   4.6594448E-04   6.6594106E+04   -1.6924439E+00
   4.6809626E-04   6.6076915E+04   -1.6918987E+00
   4.7025797E-04   6.5563905E+04   -1.6913540E+00
   4.7242967E-04   6.5055041E+04   -1.6908099E+00
   4.7461140E-04   6.4550289E+04   -1.6902664E+00
   4.7680321E-04   6.4049613E+04   -1.6897235E+00
   4.7900514E-04   6.3552979E+04   -1.6891812E+00
   4.8121723E-04   6.3060354E+04   -1.6886395E+00
   4.8343954E-04   6.2571703E+04   -1.6880984E+00
   4.8567212E-04   6.2086994E+04   -1.6875579E+00
   4.8791500E-04   6.1606193E+04   -1.6870180E+00
   4.9016825E-04   6.1129267E+04   -1.6864788E+00
   4.9243189E-04   6.0656183E+04   -1.6859402E+00
   4.9470600E-04   6.0186911E+04   -1.6854023E+00
   4.9699060E-04   5.9721416E+04   -1.6848649E+00
   4.9928575E-04   5.9259669E+04   -1.6843283E+00
   5.0159151E-04   5.8801637E+04   -1.6837922E+00
   5.0390791E-04   5.8347289E+04   -1.6832568E+00
   5.0623501E-04   5.7896594E+04   -1.6827221E+00
   5.0857286E-04   5.7449522E+04   -1.6821881E+00
   5.1092150E-04   5.7006043E+04   -1.6816547E+00
   5.1328099E-04   5.6566126E+04   -1.6811219E+00
   5.1565137E-04   5.6129742E+04   -1.6805899E+00
   5.1803270E-04   5.5696861E+04   -1.6800585E+00
   5.2042503E-04   5.5267453E+04   -1.6795278E+00
   5.2282841E-04   5.4841490E+04   -1.6789978E+00
   5.2524289E-04   5.4418943E+04   -1.6784685E+00
   5.2766851E-04   5.3999783E+04   -1.6779399E+00
   5.3010534E-04   5.3583982E+04   -1.6774120E+00
   5.3255342E-04   5.3171512E+04   -1.6768848E+00
   5.3501281E-04   5.2762345E+04   -1.6763583E+00
   5.3748356E-04   5.2356453E+04   -1.6758325E+00
   5.3996571E-04   5.1953810E+04   -1.6753075E+00
   5.4245933E-04   5.1554388E+04   -1.6747831E+00
   5.4496446E-04   5.1158160E+04   -1.6742595E+00
   5.4748117E-04   5.0765100E+04   -1.6737366E+00
   5.5000949E-04   5.0375181E+04   -1.6732144E+00
   5.5254949E-04   4.9988378E+04   -1.6726930E+00
   5.5510123E-04   4.9604663E+04   -1.6721723E+00
   5.5766474E-04   4.9224012E+04   -1.6716524E+00
   5.6024010E-04   4.8846399E+04   -1.6711332E+00
   5.6282734E-04   4.8471798E+04   -1.6706148E+00
   5.6542654E-04   4.8100185E+04   -1.6700971E+00
   5.6803774E-04   4.7731535E+04   -1.6695802E+00
   5.7066099E-04   4.7365823E+04   -1.6690641E+00
   5.7329637E-04   4.7003024E+04   -1.6685487E+00
   5.7594391E-04   4.6643115E+04   -1.6680341E+00
   5.7860368E-04   4.6286072E+04   -1.6675202E+00
   5.8127573E-04   4.5931871E+04   -1.6670072E+00
   5.8396012E-04   4.5580487E+04   -1.6664949E+00
   5.8665691E-04   4.5231899E+04   -1.6659834E+00
   5.8936616E-04   4.4886082E+04   -1.6654727E+00
   5.9208791E-04   4.4543013E+04   -1.6649628E+00
   5.9482223E-04   4.4202671E+04   -1.6644537E+00
   5.9756919E-04   4.3865032E+04   -1.6639454E+00
   6.0032882E-04   4.3530073E+04   -1.6634379E+00
   6.0310120E-04   4.3197774E+04   -1.6629312E+00
   6.0588639E-04   4.2868111E+04   -1.6624253E+00
   6.0868443E-04   4.2541063E+04   -1.6619203E+00
   6.1149540E-04   4.2216608E+04   -1.6614160E+00
   6.1431935E-04   4.1894725E+04   -1.6609126E+00
   6.1715634E-04   4.1575393E+04   -1.6604100E+00
   6.2000644E-04   4.1258590E+04   -1.6599082E+00
   6.2286969E-04   4.0944296E+04   -1.6594073E+00
