#        a       HoverH0(a)       dlogHdloga_of_a(a)
   1.0000000E-04   1.1824653E+06   -1.8738619E+00
   1.0046181E-04   1.1723013E+06   -1.8734268E+00
   1.0092575E-04   1.1622270E+06   -1.8729908E+00
   1.0139184E-04   1.1522415E+06   -1.8725537E+00
   1.0186008E-04   1.1423442E+06   -1.8721157E+00
   1.0233048E-04   1.1325342E+06   -1.8716767E+00
   1.0280305E-04   1.1228107E+06   -1.8712367E+00
   1.0327781E-04   1.1131729E+06   -1.8707957E+00
   1.0375475E-04   1.1036201E+06   -1.8703537E+00
   1.0423390E-04   1.0941515E+06   -1.8699107E+00
   1.0471527E-04   1.0847664E+06   -1.8694668E+00
   1.0519885E-04   1.0754640E+06   -1.8690219E+00
   1.0568467E-04   1.0662435E+06   -1.8685760E+00
   1.0617274E-04   1.0571043E+06   -1.8681291E+00
   1.0666305E-04   1.0480455E+06   -1.8676812E+00
   1.0715563E-04   1.0390665E+06   -1.8672324E+00
   1.0765049E-04   1.0301666E+06   -1.8667826E+00
   1.0814763E-04   1.0213451E+06   -1.8663319E+00
   1.0864707E-04   1.0126011E+06   -1.8658801E+00
   1.0914881E-04   1.0039342E+06   -1.8654275E+00
   1.0965287E-04   9.9534348E+05   -1.8649738E+00
   1.1015926E-04   9.8682835E+05   -1.8645192E+00
   1.1066799E-04   9.7838811E+05   -1.8640636E+00
   1.1117906E-04   9.7002211E+05   -1.8636071E+00
   1.1169250E-04   9.6172966E+05   -1.8631496E+00
   1.1220831E-04   9.5351012E+05   -1.8626911E+00
   1.1272650E-04   9.4536282E+05   -1.8622317E+00
   1.1324708E-04   9.3728712E+05   -1.8617714E+00
   1.1377007E-04   9.2928239E+05   -1.8613101E+00
   1.1429547E-04   9.2134798E+05   -1.8608478E+00
   1.1482330E-04   9.1348326E+05   -1.8603846E+00
   1.1535356E-04   9.0568762E+05   -1.8599205E+00
   1.1588628E-04   8.9796042E+05   -1.8594554E+00
   1.1642145E-04   8.9030106E+05   -1.8589894E+00
   1.1695910E-04   8.8270892E+05   -1.8585224E+00
   1.1749923E-04   8.7518342E+05   -1.8580545E+00
   1.1804185E-04   8.6772394E+05   -1.8575857E+00
   1.1858698E-04   8.6032991E+05   -1.8571159E+00
   1.1913463E-04   8.5300073E+05   -1.8566452E+00
   1.1968481E-04   8.4573582E+05   -1.8561736E+00
   1.2023752E-04   8.3853461E+05   -1.8557011E+00
   1.2079279E-04   8.3139653E+05   -1.8552276E+00
   1.2135063E-04   8.2432101E+05   -1.8547533E+00
   1.2191104E-04   8.1730750E+05   -1.8542780E+00
   1.2247403E-04   8.1035544E+05   -1.8538018E+00
   1.2303963E-04   8.0346427E+05   -1.8533246E+00
   1.2360784E-04   7.9663346E+05   -1.8528466E+00
   1.2417868E-04   7.8986247E+05   -1.8523677E+00
   1.2475215E-04   7.8315075E+05   -1.8518878E+00
   1.2532826E-04   7.7649778E+05   -1.8514071E+00
   1.2590704E-04   7.6990304E+05   -1.8509254E+00
   1.2648850E-04   7.6336600E+05   -1.8504429E+00
   1.2707263E-04   7.5688615E+05   -1.8499595E+00
   1.2765947E-04   7.5046298E+05   -1.8494751E+00
   1.2824901E-04   7.4409598E+05   -1.8489899E+00
   1.2884128E-04   7.3778465E+05   -1.8485038E+00
   1.2943628E-04   7.3152849E+05   -1.8480168E+00
   1.3003403E-04   7.2532701E+05   -1.8475290E+00
   1.3063454E-04   7.1917973E+05   -1.8470402E+00
   1.3123783E-04   7.1308614E+05   -1.8465506E+00
   1.3184390E-04   7.0704579E+05   -1.8460601E+00
   1.3245277E-04   7.0105818E+05   -1.8455688E+00
   1.3306445E-04   6.9512286E+05   -1.8450765E+00
   1.3367895E-04   6.8923935E+05   -1.8445835E+00
   1.3429630E-04   6.8340719E+05   -1.8440895E+00
   1.3491649E-04   6.7762593E+05   -1.8435947E+00
   1.3553955E-04   6.7189511E+05   -1.8430990E+00
   1.3616548E-04   6.6621427E+05   -1.8426025E+00
   1.3679431E-04   6.6058298E+05   -1.8421052E+00
   1.3742604E-04   6.5500080E+05   -1.8416070E+00
   1.3806069E-04   6.4946727E+05   -1.8411079E+00
   1.3869827E-04   6.4398198E+05   -1.8406080E+00
   1.3933879E-04   6.3854448E+05   -1.8401073E+00
   1.3998227E-04   6.3315436E+05   -1.8396058E+00
   1.4062872E-04   6.2781119E+05   -1.8391034E+00
   1.4127816E-04   6.2251456E+05   -1.8386002E+00
   1.4193060E-04   6.1726404E+05   -1.8380961E+00
   1.4258605E-04   6.1205922E+05   -1.8375913E+00
   1.4324453E-04   6.0689971E+05   -1.8370856E+00
   1.4390605E-04   6.0178510E+05   -1.8365791E+00
   1.4457062E-04   5.9671498E+05   -1.8360718E+00
   1.4523826E-04   5.9168896E+05   -1.8355637E+00
   1.4590899E-04   5.8670666E+05   -1.8350549E+00
   1.4658281E-04   5.8176767E+05   -1.8345452E+00
   1.4725974E-04   5.7687161E+05   -1.8340347E+00
   1.4793981E-04   5.7201810E+05   -1.8335234E+00
   1.4862301E-04   5.6720677E+05   -1.8330113E+00
   1.4930936E-04   5.6243723E+05   -1.8324985E+00
   1.4999889E-04   5.5770911E+05   -1.8319848E+00
   1.5069160E-04   5.5302206E+05   -1.8314704E+00
   1.5138751E-04   5.4837569E+05   -1.8309552E+00
   1.5208663E-04   5.4376966E+05   -1.8304393E+00
   1.5278899E-04   5.3920359E+05   -1.8299226E+00
   1.5349458E-04   5.3467714E+05   -1.8294051E+00
   1.5420343E-04   5.3018996E+05   -1.8288868E+00
   1.5491556E-04   5.2574168E+05   -1.8283679E+00
   1.5563098E-04   5.2133198E+05   -1.8278481E+00
   1.5634970E-04   5.1696050E+05   -1.8273276E+00
   1.5707174E-04   5.1262691E+05   -1.8268064E+00
   1.5779711E-04   5.0833087E+05   -1.8262844E+00
   1.5852584E-04   5.0407204E+05   -1.8257617E+00
   1.5925792E-04   4.9985010E+05   -1.8252383E+00
   1.5999339E-04   4.9566472E+05   -1.8247141E+00
   1.6073226E-04   4.9151557E+05   -1.8241892E+00
   1.6147454E-04   4.8740233E+05   -1.8236636E+00
   1.6222024E-04   4.8332468E+05   -1.8231373E+00
   1.6296939E-04   4.7928231E+05   -1.8226103E+00
   1.6372200E-04   4.7527491E+05   -1.8220825E+00
   1.6447809E-04   4.7130216E+05   -1.8215541E+00
   1.6523767E-04   4.6736375E+05   -1.8210250E+00
   1.6600075E-04   4.6345939E+05   -1.8204951E+00
   1.6676736E-04   4.5958876E+05   -1.8199646E+00
   1.6753751E-04   4.5575158E+05   -1.8194334E+00
   1.6831122E-04   4.5194754E+05   -1.8189016E+00
   1.6908849E-04   4.4817635E+05   -1.8183690E+00
   1.6986936E-04   4.4443772E+05   -1.8178358E+00
   1.7065384E-04   4.4073136E+05   -1.8173019E+00
   1.7144193E-04   4.3705699E+05   -1.8167673E+00
   1.7223367E-04   4.3341432E+05   -1.8162321E+00
   1.7302906E-04   4.2980306E+05   -1.8156962E+00
   1.7382813E-04   4.2622296E+05   -1.8151597E+00
   1.7463089E-04   4.2267371E+05   -1.8146225E+00
   1.7543735E-04   4.1915506E+05   -1.8140847E+00
   1.7624754E-04   4.1566674E+05   -1.8135463E+00
   1.7706147E-04   4.1220846E+05   -1.8130072E+00
   1.7787916E-04   4.0877998E+05   -1.8124675E+00
   1.7870062E-04   4.0538102E+05   -1.8119272E+00
   1.7952588E-04   4.0201132E+05   -1.8113863E+00
   1.8035495E-04   3.9867062E+05   -1.8108447E+00
   1.8118785E-04   3.9535868E+05   -1.8103025E+00
   1.8202459E-04   3.9207523E+05   -1.8097598E+00
   1.8286520E-04   3.8882002E+05   -1.8092164E+00
   1.8370969E-04   3.8559280E+05   -1.8086725E+00
   1.8455808E-04   3.8239333E+05   -1.8081279E+00
   1.8541039E-04   3.7922136E+05   -1.8075828E+00
   1.8626663E-04   3.7607664E+05   -1.8070371E+00
   1.8712683E-04   3.7295894E+05   -1.8064908E+00
   1.8799100E-04   3.6986802E+05   -1.8059440E+00
   1.8885917E-04   3.6680364E+05   -1.8053965E+00
   1.8973134E-04   3.6376557E+05   -1.8048486E+00
   1.9060754E-04   3.6075357E+05   -1.8043000E+00
   1.9148778E-04   3.5776741E+05   -1.8037510E+00
   1.9237209E-04   3.5480687E+05   -1.8032013E+00
   1.9326049E-04   3.5187172E+05   -1.8026512E+00
   1.9415299E-04   3.4896173E+05   -1.8021005E+00
   1.9504960E-04   3.4607669E+05   -1.8015493E+00
   1.9595036E-04   3.4321638E+05   -1.8009975E+00
   1.9685528E-04   3.4038057E+05   -1.8004452E+00
   1.9776438E-04   3.3756905E+05   -1.7998925E+00
   1.9867768E-04   3.3478161E+05   -1.7993392E+00
   1.9959519E-04   3.3201803E+05   -1.7987854E+00
   2.0051694E-04   3.2927810E+05   -1.7982311E+00
   2.0144295E-04   3.2656162E+05   -1.7976763E+00
   2.0237324E-04   3.2386838E+05   -1.7971210E+00
   2.0330782E-04   3.2119817E+05   -1.7965653E+00
   2.0424671E-04   3.1855079E+05   -1.7960090E+00
   2.0518995E-04   3.1592605E+05   -1.7954523E+00
   2.0613754E-04   3.1332373E+05   -1.7948951E+00
   2.0708950E-04   3.1074365E+05   -1.7943375E+00
   2.0804586E-04   3.0818561E+05   -1.7937794E+00
   2.0900664E-04   3.0564941E+05   -1.7932209E+00
   2.0997185E-04   3.0313486E+05   -1.7926619E+00
   2.1094152E-04   3.0064177E+05   -1.7921025E+00
   2.1191567E-04   2.9816996E+05   -1.7915426E+00
   2.1289432E-04   2.9571923E+05   -1.7909823E+00
   2.1387749E-04   2.9328940E+05   -1.7904216E+00
   2.1486520E-04   2.9088029E+05   -1.7898605E+00
   2.1585747E-04   2.8849172E+05   -1.7892989E+00
   2.1685432E-04   2.8612350E+05   -1.7887370E+00
   2.1785578E-04   2.8377545E+05   -1.7881746E+00
   2.1886186E-04   2.8144740E+05   -1.7876118E+00
   2.1987259E-04   2.7913918E+05   -1.7870487E+00
   2.2088798E-04   2.7685060E+05   -1.7864852E+00
   2.2190807E-04   2.7458151E+05   -1.7859213E+00
   2.2293286E-04   2.7233171E+05   -1.7853570E+00
   2.2396239E-04   2.7010106E+05   -1.7847923E+00
   2.2499667E-04   2.6788937E+05   -1.7842273E+00
   2.2603573E-04   2.6569648E+05   -1.7836620E+00
   2.2707958E-04   2.6352223E+05   -1.7830962E+00
   2.2812826E-04   2.6136646E+05   -1.7825302E+00
   2.2918178E-04   2.5922899E+05   -1.7819638E+00
   2.3024017E-04   2.5710968E+05   -1.7813970E+00
   2.3130344E-04   2.5500836E+05   -1.7808300E+00
   2.3237162E-04   2.5292488E+05   -1.7802626E+00
   2.3344474E-04   2.5085907E+05   -1.7796949E+00
   2.3452281E-04   2.4881079E+05   -1.7791269E+00
   2.3560586E-04   2.4677988E+05   -1.7785585E+00
   2.3669392E-04   2.4476618E+05   -1.7779899E+00
   2.3778699E-04   2.4276956E+05   -1.7774210E+00
   2.3888512E-04   2.4078985E+05   -1.7768518E+00
   2.3998831E-04   2.3882691E+05   -1.7762823E+00
   2.4109661E-04   2.3688060E+05   -1.7757125E+00
   2.4221001E-04   2.3495076E+05   -1.7751425E+00
   2.4332857E-04   2.3303726E+05   -1.7745722E+00
   2.4445228E-04   2.3113995E+05   -1.7740016E+00
   2.4558119E-04   2.2925869E+05   -1.7734308E+00
   2.4671531E-04   2.2739334E+05   -1.7728598E+00
   2.4785467E-04   2.2554377E+05   -1.7722885E+00
   2.4899928E-04   2.2370982E+05   -1.7717169E+00
   2.5014919E-04   2.2189137E+05   -1.7711452E+00
   2.5130440E-04   2.2008828E+05   -1.7705732E+00
   2.5246495E-04   2.1830042E+05   -1.7700010E+00
   2.5363086E-04   2.1652766E+05   -1.7694286E+00
   2.5480216E-04   2.1476986E+05   -1.7688560E+00
   2.5597886E-04   2.1302689E+05   -1.7682831E+00
   2.5716100E-04   2.1129862E+05   -1.7677101E+00
   2.5834859E-04   2.0958492E+05   -1.7671369E+00
   2.5954168E-04   2.0788568E+05   -1.7665635E+00
   2.6074027E-04   2.0620075E+05   -1.7659900E+00
   2.6194439E-04   2.0453003E+05   -1.7654163E+00
   2.6315408E-04   2.0287337E+05   -1.7648424E+00
   2.6436935E-04   2.0123067E+05   -1.7642683E+00
   2.6559024E-04   1.9960180E+05   -1.7636941E+00
   2.6681676E-04   1.9798663E+05   -1.7631198E+00
   2.6804895E-04   1.9638506E+05   -1.7625453E+00
   2.6928683E-04   1.9479696E+05   -1.7619707E+00
   2.7053042E-04   1.9322221E+05   -1.7613959E+00
   2.7177976E-04   1.9166069E+05   -1.7608211E+00
   2.7303487E-04   1.9011231E+05   -1.7602461E+00
   2.7429577E-04   1.8857692E+05   -1.7596710E+00
   2.7556250E-04   1.8705444E+05   -1.7590958E+00
   2.7683507E-04   1.8554474E+05   -1.7585205E+00
   2.7811353E-04   1.8404771E+05   -1.7579451E+00
   2.7939788E-04   1.8256325E+05   -1.7573697E+00
   2.8068817E-04   1.8109123E+05   -1.7567941E+00
   2.8198442E-04   1.7963157E+05   -1.7562185E+00
   2.8328665E-04   1.7818414E+05   -1.7556428E+00
   2.8459490E-04   1.7674884E+05   -1.7550671E+00
   2.8590919E-04   1.7532557E+05   -1.7544913E+00
   2.8722955E-04   1.7391422E+05   -1.7539154E+00
   2.8855600E-04   1.7251469E+05   -1.7533395E+00
   2.8988859E-04   1.7112688E+05   -1.7527636E+00
   2.9122732E-04   1.6975068E+05   -1.7521877E+00
   2.9257224E-04   1.6838600E+05   -1.7516117E+00
   2.9392337E-04   1.6703273E+05   -1.7510357E+00
   2.9528074E-04   1.6569077E+05   -1.7504597E+00
   2.9664438E-04   1.6436004E+05   -1.7498837E+00
   2.9801431E-04   1.6304042E+05   -1.7493077E+00
   2.9939057E-04   1.6173183E+05   -1.7487317E+00
   3.0077319E-04   1.6043417E+05   -1.7481557E+00
   3.0216219E-04   1.5914734E+05   -1.7475797E+00
   3.0355761E-04   1.5787125E+05   -1.7470037E+00
   3.0495947E-04   1.5660581E+05   -1.7464278E+00
   3.0636780E-04   1.5535093E+05   -1.7458520E+00
   3.0778264E-04   1.5410650E+05   -1.7452761E+00
   3.0920401E-04   1.5287246E+05   -1.7447003E+00
   3.1063195E-04   1.5164869E+05   -1.7441246E+00
   3.1206648E-04   1.5043513E+05   -1.7435489E+00
   3.1350764E-04   1.4923167E+05   -1.7429733E+00
   3.1495545E-04   1.4803823E+05   -1.7423978E+00
   3.1640994E-04   1.4685472E+05   -1.7418224E+00
   3.1787116E-04   1.4568106E+05   -1.7412470E+00
   3.1933912E-04   1.4451717E+05   -1.7406717E+00
   3.2081386E-04   1.4336295E+05   -1.7400966E+00
   3.2229541E-04   1.4221833E+05   -1.7395215E+00
   3.2378381E-04   1.4108322E+05   -1.7389465E+00
   3.2527908E-04   1.3995754E+05   -1.7383717E+00
   3.2678125E-04   1.3884121E+05   -1.7377970E+00
   3.2829036E-04   1.3773415E+05   -1.7372224E+00
   3.2980644E-04   1.3663628E+05   -1.7366479E+00
   3.3132952E-04   1.3554752E+05   -1.7360736E+00
   3.3285963E-04   1.3446779E+05   -1.7354995E+00
   3.3439681E-04   1.3339701E+05   -1.7349254E+00
   3.3594109E-04   1.3233511E+05   -1.7343516E+00
   3.3749250E-04   1.3128201E+05   -1.7337779E+00
   3.3905108E-04   1.3023764E+05   -1.7332044E+00
   3.4061685E-04   1.2920191E+05   -1.7326310E+00
   3.4218986E-04   1.2817476E+05   -1.7320579E+00
   3.4377013E-04   1.2715611E+05   -1.7314849E+00
   3.4535769E-04   1.2614589E+05   -1.7309121E+00
   3.4695259E-04   1.2514403E+05   -1.7303396E+00
   3.4855485E-04   1.2415045E+05   -1.7297672E+00
   3.5016452E-04   1.2316508E+05   -1.7291950E+00
   3.5178161E-04   1.2218786E+05   -1.7286231E+00
   3.5340618E-04   1.2121871E+05   -1.7280514E+00
   3.5503824E-04   1.2025756E+05   -1.7274799E+00
   3.5667785E-04   1.1930435E+05   -1.7269087E+00
   3.5832502E-04   1.1835900E+05   -1.7263377E+00
   3.5997981E-04   1.1742146E+05   -1.7257669E+00
   3.6164223E-04   1.1649165E+05   -1.7251964E+00
   3.6331233E-04   1.1556950E+05   -1.7246262E+00
   3.6499015E-04   1.1465495E+05   -1.7240562E+00
   3.6667571E-04   1.1374795E+05   -1.7234865E+00
   3.6836906E-04   1.1284841E+05   -1.7229171E+00
   3.7007022E-04   1.1195628E+05   -1.7223479E+00
   3.7177925E-04   1.1107149E+05   -1.7217791E+00
   3.7349616E-04   1.1019398E+05   -1.7212105E+00
   3.7522101E-04   1.0932370E+05   -1.7206423E+00
   3.7695382E-04   1.0846057E+05   -1.7200743E+00
   3.7869463E-04   1.0760453E+05   -1.7195067E+00
   3.8044348E-04   1.0675553E+05   -1.7189394E+00
   3.8220041E-04   1.0591351E+05   -1.7183724E+00
   3.8396545E-04   1.0507841E+05   -1.7178057E+00
   3.8573864E-04   1.0425016E+05   -1.7172394E+00
   3.8752002E-04   1.0342870E+05   -1.7166734E+00
   3.8930963E-04   1.0261399E+05   -1.7161078E+00
   3.9110750E-04   1.0180596E+05   -1.7155425E+00
   3.9291368E-04   1.0100456E+05   -1.7149775E+00
   3.9472820E-04   1.0020973E+05   -1.7144130E+00
   3.9655109E-04   9.9421405E+04   -1.7138488E+00
   3.9838241E-04   9.8639542E+04   -1.7132849E+00
   4.0022218E-04   9.7864082E+04   -1.7127215E+00
   4.0207045E-04   9.7094970E+04   -1.7121584E+00
   4.0392725E-04   9.6332153E+04   -1.7115958E+00
   4.0579263E-04   9.5575577E+04   -1.7110335E+00
   4.0766662E-04   9.4825187E+04   -1.7104716E+00
   4.0954927E-04   9.4080933E+04   -1.7099102E+00
   4.1144061E-04   9.3342762E+04   -1.7093492E+00
   4.1334068E-04   9.2610622E+04   -1.7087885E+00
   4.1524953E-04   9.1884461E+04   -1.7082283E+00
   4.1716720E-04   9.1164230E+04   -1.7076686E+00
   4.1909372E-04   9.0449877E+04   -1.7071092E+00
   4.2102914E-04   8.9741353E+04   -1.7065503E+00
   4.2297350E-04   8.9038609E+04   -1.7059919E+00
   4.2492683E-04   8.8341594E+04   -1.7054339E+00
   4.2688919E-04   8.7650262E+04   -1.7048764E+00
   4.2886061E-04   8.6964562E+04   -1.7043193E+00
   4.3084113E-04   8.6284449E+04   -1.7037627E+00
   4.3283080E-04   8.5609874E+04   -1.7032066E+00
   4.3482966E-04   8.4940790E+04   -1.7026509E+00
   4.3683775E-04   8.4277151E+04   -1.7020957E+00
   4.3885511E-04   8.3618911E+04   -1.7015411E+00
   4.4088179E-04   8.2966024E+04   -1.7009869E+00
   4.4291783E-04   8.2318444E+04   -1.7004332E+00
   4.4496327E-04   8.1676128E+04   -1.6998800E+00
   4.4701816E-04   8.1039030E+04   -1.6993273E+00
   4.4908253E-04   8.0407106E+04   -1.6987752E+00
   4.5115644E-04   7.9780312E+04   -1.6982235E+00
   4.5323993E-04   7.9158606E+04   -1.6976724E+00
   4.5533304E-04   7.8541944E+04   -1.6971218E+00
   4.5743582E-04   7.7930283E+04   -1.6965718E+00
   4.5954830E-04   7.7323582E+04   -1.6960223E+00
   4.6167054E-04   7.6721798E+04   -1.6954733E+00
   4.6380259E-04   7.6124890E+04   -1.6949249E+00
   4.6594448E-04   7.5532817E+04   -1.6943771E+00
   4.6809626E-04   7.4945538E+04   -1.6938298E+00
   4.7025797E-04   7.4363012E+04   -1.6932830E+00
   4.7242967E-04   7.3785200E+04   -1.6927369E+00
   4.7461140E-04   7.3212062E+04   -1.6921913E+00
   4.7680321E-04   7.2643558E+04   -1.6916463E+00
   4.7900514E-04   7.2079649E+04   -1.6911019E+00
   4.8121723E-04   7.1520298E+04   -1.6905581E+00
   4.8343954E-04   7.0965465E+04   -1.6900148E+00
   4.8567212E-04   7.0415112E+04   -1.6894722E+00
   4.8791500E-04   6.9869202E+04   -1.6889302E+00
   4.9016825E-04   6.9327697E+04   -1.6883887E+00
   4.9243189E-04   6.8790560E+04   -1.6878479E+00
   4.9470600E-04   6.8257756E+04   -1.6873077E+00
   4.9699060E-04   6.7729246E+04   -1.6867682E+00
   4.9928575E-04   6.7204995E+04   -1.6862292E+00
   5.0159151E-04   6.6684968E+04   -1.6856909E+00
   5.0390791E-04   6.6169129E+04   -1.6851532E+00
   5.0623501E-04   6.5657443E+04   -1.6846162E+00
   5.0857286E-04   6.5149874E+04   -1.6840798E+00
   5.1092150E-04   6.4646389E+04   -1.6835441E+00
   5.1328099E-04   6.4146954E+04   -1.6830090E+00
   5.1565137E-04   6.3651533E+04   -1.6824746E+00
   5.1803270E-04   6.3160095E+04   -1.6819408E+00
   5.2042503E-04   6.2672604E+04   -1.6814077E+00
   5.2282841E-04   6.2189029E+04   -1.6808753E+00
   5.2524289E-04   6.1709336E+04   -1.6803436E+00
   5.2766851E-04   6.1233494E+04   -1.6798125E+00
   5.3010534E-04   6.0761469E+04   -1.6792822E+00
   5.3255342E-04   6.0293230E+04   -1.6787525E+00
   5.3501281E-04   5.9828745E+04   -1.6782235E+00
   5.3748356E-04   5.9367983E+04   -1.6776952E+00
   5.3996571E-04   5.8910913E+04   -1.6771676E+00
   5.4245933E-04   5.8457504E+04   -1.6766407E+00
   5.4496446E-04   5.8007725E+04   -1.6761145E+00
   5.4748117E-04   5.7561547E+04   -1.6755891E+00
   5.5000949E-04   5.7118939E+04   -1.6750644E+00
   5.5254949E-04   5.6679870E+04   -1.6745403E+00
   5.5510123E-04   5.6244313E+04   -1.6740170E+00
   5.5766474E-04   5.5812237E+04   -1.6734945E+00
   5.6024010E-04   5.5383614E+04   -1.6729727E+00
   5.6282734E-04   5.4958414E+04   -1.6724516E+00
   5.6542654E-04   5.4536610E+04   -1.6719312E+00
   5.6803774E-04   5.4118172E+04   -1.6714117E+00
   5.7066099E-04   5.3703074E+04   -1.6708928E+00
   5.7329637E-04   5.3291286E+04   -1.6703747E+00
   5.7594391E-04   5.2882783E+04   -1.6698574E+00
   5.7860368E-04   5.2477536E+04   -1.6693408E+00
   5.8127573E-04   5.2075518E+04   -1.6688250E+00
   5.8396012E-04   5.1676703E+04   -1.6683100E+00
   5.8665691E-04   5.1281063E+04   -1.6677957E+00
   5.8936616E-04   5.0888573E+04   -1.6672823E+00
   5.9208791E-04   5.0499207E+04   -1.6667696E+00
   5.9482223E-04   5.0112937E+04   -1.6662576E+00
   5.9756919E-04   4.9729740E+04   -1.6657465E+00
   6.0032882E-04   4.9349589E+04   -1.6652362E+00
   6.0310120E-04   4.8972459E+04   -1.6647266E+00
   6.0588639E-04   4.8598325E+04   -1.6642179E+00
   6.0868443E-04   4.8227162E+04   -1.6637100E+00
   6.1149540E-04   4.7858946E+04   -1.6632028E+00
   6.1431935E-04   4.7493652E+04   -1.6626965E+00
   6.1715634E-04   4.7131257E+04   -1.6621910E+00
   6.2000644E-04   4.6771735E+04   -1.6616863E+00
   6.2286969E-04   4.6415063E+04   -1.6611824E+00
