#        a       HoverH0(a)       dlogHdloga_of_a(a)
   1.0000000E-04   1.0786409E+06   -1.8733804E+00
   1.0046181E-04   1.0693717E+06   -1.8729442E+00
   1.0092575E-04   1.0601843E+06   -1.8725071E+00
   1.0139184E-04   1.0510779E+06   -1.8720689E+00
   1.0186008E-04   1.0420519E+06   -1.8716298E+00
   1.0233048E-04   1.0331054E+06   -1.8711897E+00
   1.0280305E-04   1.0242379E+06   -1.8707486E+00
   1.0327781E-04   1.0154485E+06   -1.8703065E+00
   1.0375475E-04   1.0067366E+06   -1.8698634E+00
   1.0423390E-04   9.9810152E+05   -1.8694194E+00
   1.0471527E-04   9.8954250E+05   -1.8689743E+00
   1.0519885E-04   9.8105889E+05   -1.8685283E+00
   1.0568467E-04   9.7265002E+05   -1.8680814E+00
   1.0617274E-04   9.6431521E+05   -1.8676334E+00
   1.0666305E-04   9.5605379E+05   -1.8671845E+00
   1.0715563E-04   9.4786512E+05   -1.8667346E+00
   1.0765049E-04   9.3974854E+05   -1.8662837E+00
   1.0814763E-04   9.3170339E+05   -1.8658319E+00
   1.0864707E-04   9.2372904E+05   -1.8653791E+00
   1.0914881E-04   9.1582486E+05   -1.8649254E+00
   1.0965287E-04   9.0799021E+05   -1.8644706E+00
   1.1015926E-04   9.0022447E+05   -1.8640150E+00
   1.1066799E-04   8.9252703E+05   -1.8635583E+00
   1.1117906E-04   8.8489727E+05   -1.8631007E+00
   1.1169250E-04   8.7733458E+05   -1.8626422E+00
   1.1220831E-04   8.6983836E+05   -1.8621827E+00
   1.1272650E-04   8.6240802E+05   -1.8617222E+00
   1.1324708E-04   8.5504297E+05   -1.8612608E+00
   1.1377007E-04   8.4774263E+05   -1.8607984E+00
   1.1429547E-04   8.4050641E+05   -1.8603352E+00
   1.1482330E-04   8.3333373E+05   -1.8598709E+00
   1.1535356E-04   8.2622403E+05   -1.8594057E+00
   1.1588628E-04   8.1917675E+05   -1.8589396E+00
   1.1642145E-04   8.1219133E+05   -1.8584725E+00
   1.1695910E-04   8.0526720E+05   -1.8580046E+00
   1.1749923E-04   7.9840383E+05   -1.8575356E+00
   1.1804185E-04   7.9160067E+05   -1.8570658E+00
   1.1858698E-04   7.8485717E+05   -1.8565950E+00
   1.1913463E-04   7.7817282E+05   -1.8561233E+00
   1.1968481E-04   7.7154707E+05   -1.8556506E+00
   1.2023752E-04   7.6497940E+05   -1.8551771E+00
   1.2079279E-04   7.5846930E+05   -1.8547026E+00
   1.2135063E-04   7.5201624E+05   -1.8542272E+00
   1.2191104E-04   7.4561972E+05   -1.8537509E+00
   1.2247403E-04   7.3927924E+05   -1.8532737E+00
   1.2303963E-04   7.3299428E+05   -1.8527956E+00
   1.2360784E-04   7.2676436E+05   -1.8523165E+00
   1.2417868E-04   7.2058898E+05   -1.8518366E+00
   1.2475215E-04   7.1446765E+05   -1.8513558E+00
   1.2532826E-04   7.0839989E+05   -1.8508740E+00
   1.2590704E-04   7.0238523E+05   -1.8503914E+00
   1.2648850E-04   6.9642318E+05   -1.8499079E+00
   1.2707263E-04   6.9051328E+05   -1.8494234E+00
   1.2765947E-04   6.8465506E+05   -1.8489381E+00
   1.2824901E-04   6.7884806E+05   -1.8484519E+00
   1.2884128E-04   6.7309183E+05   -1.8479649E+00
   1.2943628E-04   6.6738590E+05   -1.8474769E+00
   1.3003403E-04   6.6172984E+05   -1.8469881E+00
   1.3063454E-04   6.5612318E+05   -1.8464984E+00
   1.3123783E-04   6.5056550E+05   -1.8460078E+00
   1.3184390E-04   6.4505635E+05   -1.8455163E+00
   1.3245277E-04   6.3959531E+05   -1.8450240E+00
   1.3306445E-04   6.3418194E+05   -1.8445308E+00
   1.3367895E-04   6.2881582E+05   -1.8440368E+00
   1.3429630E-04   6.2349652E+05   -1.8435419E+00
   1.3491649E-04   6.1822363E+05   -1.8430461E+00
   1.3553955E-04   6.1299673E+05   -1.8425495E+00
   1.3616548E-04   6.0781542E+05   -1.8420521E+00
   1.3679431E-04   6.0267929E+05   -1.8415538E+00
   1.3742604E-04   5.9758793E+05   -1.8410547E+00
   1.3806069E-04   5.9254095E+05   -1.8405547E+00
   1.3869827E-04   5.8753794E+05   -1.8400539E+00
   1.3933879E-04   5.8257852E+05   -1.8395522E+00
   1.3998227E-04   5.7766230E+05   -1.8390498E+00
   1.4062872E-04   5.7278890E+05   -1.8385465E+00
   1.4127816E-04   5.6795792E+05   -1.8380423E+00
   1.4193060E-04   5.6316900E+05   -1.8375374E+00
   1.4258605E-04   5.5842176E+05   -1.8370316E+00
   1.4324453E-04   5.5371583E+05   -1.8365251E+00
   1.4390605E-04   5.4905084E+05   -1.8360177E+00
   1.4457062E-04   5.4442643E+05   -1.8355095E+00
   1.4523826E-04   5.3984223E+05   -1.8350005E+00
   1.4590899E-04   5.3529788E+05   -1.8344908E+00
   1.4658281E-04   5.3079304E+05   -1.8339802E+00
   1.4725974E-04   5.2632735E+05   -1.8334688E+00
   1.4793981E-04   5.2190046E+05   -1.8329567E+00
   1.4862301E-04   5.1751202E+05   -1.8324437E+00
   1.4930936E-04   5.1316170E+05   -1.8319300E+00
   1.4999889E-04   5.0884915E+05   -1.8314155E+00
   1.5069160E-04   5.0457405E+05   -1.8309003E+00
   1.5138751E-04   5.0033605E+05   -1.8303842E+00
   1.5208663E-04   4.9613482E+05   -1.8298674E+00
   1.5278899E-04   4.9197004E+05   -1.8293499E+00
   1.5349458E-04   4.8784140E+05   -1.8288316E+00
   1.5420343E-04   4.8374855E+05   -1.8283125E+00
   1.5491556E-04   4.7969119E+05   -1.8277927E+00
   1.5563098E-04   4.7566900E+05   -1.8272721E+00
   1.5634970E-04   4.7168167E+05   -1.8267508E+00
   1.5707174E-04   4.6772889E+05   -1.8262287E+00
   1.5779711E-04   4.6381034E+05   -1.8257059E+00
   1.5852584E-04   4.5992574E+05   -1.8251824E+00
   1.5925792E-04   4.5607477E+05   -1.8246582E+00
   1.5999339E-04   4.5225714E+05   -1.8241332E+00
   1.6073226E-04   4.4847255E+05   -1.8236075E+00
   1.6147454E-04   4.4472071E+05   -1.8230812E+00
   1.6222024E-04   4.4100132E+05   -1.8225541E+00
   1.6296939E-04   4.3731411E+05   -1.8220262E+00
   1.6372200E-04   4.3365878E+05   -1.8214977E+00
   1.6447809E-04   4.3003505E+05   -1.8209685E+00
   1.6523767E-04   4.2644264E+05   -1.8204386E+00
   1.6600075E-04   4.2288128E+05   -1.8199080E+00
   1.6676736E-04   4.1935068E+05   -1.8193768E+00
   1.6753751E-04   4.1585058E+05   -1.8188448E+00
   1.6831122E-04   4.1238070E+05   -1.8183122E+00
   1.6908849E-04   4.0894078E+05   -1.8177789E+00
   1.6986936E-04   4.0553056E+05   -1.8172449E+00
   1.7065384E-04   4.0214976E+05   -1.8167103E+00
   1.7144193E-04   3.9879812E+05   -1.8161750E+00
   1.7223367E-04   3.9547540E+05   -1.8156391E+00
   1.7302906E-04   3.9218133E+05   -1.8151025E+00
   1.7382813E-04   3.8891566E+05   -1.8145652E+00
   1.7463089E-04   3.8567814E+05   -1.8140274E+00
   1.7543735E-04   3.8246852E+05   -1.8134889E+00
   1.7624754E-04   3.7928655E+05   -1.8129497E+00
   1.7706147E-04   3.7613199E+05   -1.8124100E+00
   1.7787916E-04   3.7300459E+05   -1.8118696E+00
   1.7870062E-04   3.6990412E+05   -1.8113286E+00
   1.7952588E-04   3.6683033E+05   -1.8107869E+00
   1.8035495E-04   3.6378300E+05   -1.8102447E+00
   1.8118785E-04   3.6076188E+05   -1.8097019E+00
   1.8202459E-04   3.5776674E+05   -1.8091585E+00
   1.8286520E-04   3.5479736E+05   -1.8086145E+00
   1.8370969E-04   3.5185351E+05   -1.8080698E+00
   1.8455808E-04   3.4893496E+05   -1.8075247E+00
   1.8541039E-04   3.4604149E+05   -1.8069789E+00
   1.8626663E-04   3.4317288E+05   -1.8064326E+00
   1.8712683E-04   3.4032890E+05   -1.8058856E+00
   1.8799100E-04   3.3750935E+05   -1.8053382E+00
   1.8885917E-04   3.3471399E+05   -1.8047901E+00
   1.8973134E-04   3.3194263E+05   -1.8042415E+00
   1.9060754E-04   3.2919505E+05   -1.8036924E+00
   1.9148778E-04   3.2647103E+05   -1.8031427E+00
   1.9237209E-04   3.2377038E+05   -1.8025925E+00
   1.9326049E-04   3.2109288E+05   -1.8020418E+00
   1.9415299E-04   3.1843833E+05   -1.8014905E+00
   1.9504960E-04   3.1580653E+05   -1.8009387E+00
   1.9595036E-04   3.1319728E+05   -1.8003864E+00
   1.9685528E-04   3.1061038E+05   -1.7998335E+00
   1.9776438E-04   3.0804563E+05   -1.7992802E+00
   1.9867768E-04   3.0550283E+05   -1.7987263E+00
   1.9959519E-04   3.0298180E+05   -1.7981720E+00
   2.0051694E-04   3.0048234E+05   -1.7976171E+00
   2.0144295E-04   2.9800426E+05   -1.7970618E+00
   2.0237324E-04   2.9554738E+05   -1.7965060E+00
   2.0330782E-04   2.9311150E+05   -1.7959497E+00
   2.0424671E-04   2.9069644E+05   -1.7953930E+00
   2.0518995E-04   2.8830203E+05   -1.7948357E+00
   2.0613754E-04   2.8592806E+05   -1.7942781E+00
   2.0708950E-04   2.8357438E+05   -1.7937199E+00
   2.0804586E-04   2.8124080E+05   -1.7931613E+00
   2.0900664E-04   2.7892713E+05   -1.7926023E+00
   2.0997185E-04   2.7663321E+05   -1.7920428E+00
   2.1094152E-04   2.7435887E+05   -1.7914829E+00
   2.1191567E-04   2.7210393E+05   -1.7909226E+00
   2.1289432E-04   2.6986821E+05   -1.7903618E+00
   2.1387749E-04   2.6765156E+05   -1.7898006E+00
   2.1486520E-04   2.6545380E+05   -1.7892390E+00
   2.1585747E-04   2.6327477E+05   -1.7886770E+00
   2.1685432E-04   2.6111430E+05   -1.7881146E+00
   2.1785578E-04   2.5897223E+05   -1.7875519E+00
   2.1886186E-04   2.5684841E+05   -1.7869887E+00
   2.1987259E-04   2.5474266E+05   -1.7864251E+00
   2.2088798E-04   2.5265483E+05   -1.7858612E+00
   2.2190807E-04   2.5058476E+05   -1.7852968E+00
   2.2293286E-04   2.4853230E+05   -1.7847322E+00
   2.2396239E-04   2.4649730E+05   -1.7841671E+00
   2.2499667E-04   2.4447959E+05   -1.7836017E+00
   2.2603573E-04   2.4247903E+05   -1.7830359E+00
   2.2707958E-04   2.4049547E+05   -1.7824698E+00
   2.2812826E-04   2.3852875E+05   -1.7819034E+00
   2.2918178E-04   2.3657874E+05   -1.7813366E+00
   2.3024017E-04   2.3464528E+05   -1.7807695E+00
   2.3130344E-04   2.3272823E+05   -1.7802021E+00
   2.3237162E-04   2.3082745E+05   -1.7796344E+00
   2.3344474E-04   2.2894279E+05   -1.7790663E+00
   2.3452281E-04   2.2707411E+05   -1.7784980E+00
   2.3560586E-04   2.2522128E+05   -1.7779293E+00
   2.3669392E-04   2.2338415E+05   -1.7773604E+00
   2.3778699E-04   2.2156259E+05   -1.7767911E+00
   2.3888512E-04   2.1975645E+05   -1.7762216E+00
   2.3998831E-04   2.1796561E+05   -1.7756518E+00
   2.4109661E-04   2.1618994E+05   -1.7750818E+00
   2.4221001E-04   2.1442929E+05   -1.7745114E+00
   2.4332857E-04   2.1268354E+05   -1.7739408E+00
   2.4445228E-04   2.1095256E+05   -1.7733700E+00
   2.4558119E-04   2.0923621E+05   -1.7727989E+00
   2.4671531E-04   2.0753438E+05   -1.7722276E+00
   2.4785467E-04   2.0584693E+05   -1.7716560E+00
   2.4899928E-04   2.0417374E+05   -1.7710843E+00
   2.5014919E-04   2.0251468E+05   -1.7705123E+00
   2.5130440E-04   2.0086964E+05   -1.7699400E+00
   2.5246495E-04   1.9923848E+05   -1.7693676E+00
   2.5363086E-04   1.9762109E+05   -1.7687950E+00
   2.5480216E-04   1.9601734E+05   -1.7682221E+00
   2.5597886E-04   1.9442713E+05   -1.7676491E+00
   2.5716100E-04   1.9285032E+05   -1.7670759E+00
   2.5834859E-04   1.9128681E+05   -1.7665025E+00
   2.5954168E-04   1.8973647E+05   -1.7659289E+00
   2.6074027E-04   1.8819920E+05   -1.7653551E+00
   2.6194439E-04   1.8667487E+05   -1.7647812E+00
   2.6315408E-04   1.8516338E+05   -1.7642072E+00
   2.6436935E-04   1.8366462E+05   -1.7636330E+00
   2.6559024E-04   1.8217847E+05   -1.7630586E+00
   2.6681676E-04   1.8070482E+05   -1.7624841E+00
   2.6804895E-04   1.7924357E+05   -1.7619095E+00
   2.6928683E-04   1.7779461E+05   -1.7613347E+00
   2.7053042E-04   1.7635782E+05   -1.7607598E+00
   2.7177976E-04   1.7493311E+05   -1.7601848E+00
   2.7303487E-04   1.7352037E+05   -1.7596097E+00
   2.7429577E-04   1.7211949E+05   -1.7590345E+00
   2.7556250E-04   1.7073038E+05   -1.7584592E+00
   2.7683507E-04   1.6935293E+05   -1.7578838E+00
   2.7811353E-04   1.6798703E+05   -1.7573084E+00
   2.7939788E-04   1.6663259E+05   -1.7567328E+00
   2.8068817E-04   1.6528951E+05   -1.7561572E+00
   2.8198442E-04   1.6395770E+05   -1.7555815E+00
   2.8328665E-04   1.6263704E+05   -1.7550058E+00
   2.8459490E-04   1.6132745E+05   -1.7544300E+00
   2.8590919E-04   1.6002883E+05   -1.7538541E+00
   2.8722955E-04   1.5874109E+05   -1.7532782E+00
   2.8855600E-04   1.5746412E+05   -1.7527023E+00
   2.8988859E-04   1.5619784E+05   -1.7521263E+00
   2.9122732E-04   1.5494216E+05   -1.7515504E+00
   2.9257224E-04   1.5369698E+05   -1.7509744E+00
   2.9392337E-04   1.5246221E+05   -1.7503984E+00
   2.9528074E-04   1.5123776E+05   -1.7498223E+00
   2.9664438E-04   1.5002354E+05   -1.7492463E+00
   2.9801431E-04   1.4881947E+05   -1.7486703E+00
   2.9939057E-04   1.4762545E+05   -1.7480943E+00
   3.0077319E-04   1.4644140E+05   -1.7475184E+00
   3.0216219E-04   1.4526723E+05   -1.7469424E+00
   3.0355761E-04   1.4410286E+05   -1.7463665E+00
   3.0495947E-04   1.4294820E+05   -1.7457906E+00
   3.0636780E-04   1.4180317E+05   -1.7452148E+00
   3.0778264E-04   1.4066769E+05   -1.7446390E+00
   3.0920401E-04   1.3954167E+05   -1.7440633E+00
   3.1063195E-04   1.3842502E+05   -1.7434876E+00
   3.1206648E-04   1.3731768E+05   -1.7429121E+00
   3.1350764E-04   1.3621956E+05   -1.7423365E+00
   3.1495545E-04   1.3513058E+05   -1.7417611E+00
   3.1640994E-04   1.3405066E+05   -1.7411857E+00
   3.1787116E-04   1.3297972E+05   -1.7406105E+00
   3.1933912E-04   1.3191768E+05   -1.7400353E+00
   3.2081386E-04   1.3086448E+05   -1.7394603E+00
   3.2229541E-04   1.2982003E+05   -1.7388853E+00
   3.2378381E-04   1.2878425E+05   -1.7383105E+00
   3.2527908E-04   1.2775708E+05   -1.7377358E+00
   3.2678125E-04   1.2673844E+05   -1.7371612E+00
   3.2829036E-04   1.2572825E+05   -1.7365868E+00
   3.2980644E-04   1.2472644E+05   -1.7360125E+00
   3.3132952E-04   1.2373294E+05   -1.7354384E+00
   3.3285963E-04   1.2274768E+05   -1.7348644E+00
   3.3439681E-04   1.2177059E+05   -1.7342905E+00
   3.3594109E-04   1.2080159E+05   -1.7337169E+00
   3.3749250E-04   1.1984062E+05   -1.7331434E+00
   3.3905108E-04   1.1888762E+05   -1.7325700E+00
   3.4061685E-04   1.1794250E+05   -1.7319969E+00
   3.4218986E-04   1.1700520E+05   -1.7314239E+00
   3.4377013E-04   1.1607566E+05   -1.7308512E+00
   3.4535769E-04   1.1515381E+05   -1.7302786E+00
   3.4695259E-04   1.1423958E+05   -1.7297063E+00
   3.4855485E-04   1.1333290E+05   -1.7291342E+00
   3.5016452E-04   1.1243372E+05   -1.7285623E+00
   3.5178161E-04   1.1154197E+05   -1.7279906E+00
   3.5340618E-04   1.1065758E+05   -1.7274191E+00
   3.5503824E-04   1.0978049E+05   -1.7268479E+00
   3.5667785E-04   1.0891064E+05   -1.7262769E+00
   3.5832502E-04   1.0804797E+05   -1.7257062E+00
   3.5997981E-04   1.0719241E+05   -1.7251357E+00
   3.6164223E-04   1.0634391E+05   -1.7245655E+00
   3.6331233E-04   1.0550240E+05   -1.7239956E+00
   3.6499015E-04   1.0466782E+05   -1.7234259E+00
   3.6667571E-04   1.0384012E+05   -1.7228565E+00
   3.6836906E-04   1.0301923E+05   -1.7222874E+00
   3.7007022E-04   1.0220510E+05   -1.7217186E+00
   3.7177925E-04   1.0139767E+05   -1.7211501E+00
   3.7349616E-04   1.0059689E+05   -1.7205818E+00
   3.7522101E-04   9.9802683E+04   -1.7200139E+00
   3.7695382E-04   9.9015010E+04   -1.7194463E+00
   3.7869463E-04   9.8233810E+04   -1.7188790E+00
   3.8044348E-04   9.7459029E+04   -1.7183121E+00
   3.8220041E-04   9.6690611E+04   -1.7177454E+00
   3.8396545E-04   9.5928502E+04   -1.7171792E+00
   3.8573864E-04   9.5172648E+04   -1.7166132E+00
   3.8752002E-04   9.4422996E+04   -1.7160476E+00
   3.8930963E-04   9.3679492E+04   -1.7154823E+00
   3.9110750E-04   9.2942085E+04   -1.7149175E+00
   3.9291368E-04   9.2210723E+04   -1.7143529E+00
   3.9472820E-04   9.1485353E+04   -1.7137888E+00
   3.9655109E-04   9.0765926E+04   -1.7132250E+00
   3.9838241E-04   9.0052389E+04   -1.7126616E+00
   4.0022218E-04   8.9344694E+04   -1.7120986E+00
   4.0207045E-04   8.8642791E+04   -1.7115360E+00
   4.0392725E-04   8.7946629E+04   -1.7109737E+00
   4.0579263E-04   8.7256161E+04   -1.7104119E+00
   4.0766662E-04   8.6571338E+04   -1.7098505E+00
   4.0954927E-04   8.5892111E+04   -1.7092895E+00
   4.1144061E-04   8.5218434E+04   -1.7087289E+00
   4.1334068E-04   8.4550259E+04   -1.7081688E+00
   4.1524953E-04   8.3887540E+04   -1.7076091E+00
   4.1716720E-04   8.3230229E+04   -1.7070498E+00
   4.1909372E-04   8.2578282E+04   -1.7064909E+00
   4.2102914E-04   8.1931652E+04   -1.7059325E+00
   4.2297350E-04   8.1290294E+04   -1.7053746E+00
   4.2492683E-04   8.0654165E+04   -1.7048171E+00
   4.2688919E-04   8.0023219E+04   -1.7042601E+00
   4.2886061E-04   7.9397412E+04   -1.7037035E+00
   4.3084113E-04   7.8776702E+04   -1.7031475E+00
   4.3283080E-04   7.8161044E+04   -1.7025919E+00
   4.3482966E-04   7.7550396E+04   -1.7020367E+00
   4.3683775E-04   7.6944716E+04   -1.7014821E+00
   4.3885511E-04   7.6343961E+04   -1.7009280E+00
   4.4088179E-04   7.5748089E+04   -1.7003743E+00
   4.4291783E-04   7.5157061E+04   -1.6998212E+00
   4.4496327E-04   7.4570833E+04   -1.6992686E+00
   4.4701816E-04   7.3989367E+04   -1.6987165E+00
   4.4908253E-04   7.3412621E+04   -1.6981649E+00
   4.5115644E-04   7.2840556E+04   -1.6976139E+00
   4.5323993E-04   7.2273132E+04   -1.6970633E+00
   4.5533304E-04   7.1710311E+04   -1.6965134E+00
   4.5743582E-04   7.1152052E+04   -1.6959639E+00
   4.5954830E-04   7.0598318E+04   -1.6954150E+00
   4.6167054E-04   7.0049071E+04   -1.6948667E+00
   4.6380259E-04   6.9504272E+04   -1.6943189E+00
   4.6594448E-04   6.8963884E+04   -1.6937716E+00
   4.6809626E-04   6.8427870E+04   -1.6932250E+00
   4.7025797E-04   6.7896193E+04   -1.6926789E+00
   4.7242967E-04   6.7368816E+04   -1.6921334E+00
   4.7461140E-04   6.6845704E+04   -1.6915884E+00
   4.7680321E-04   6.6326820E+04   -1.6910441E+00
   4.7900514E-04   6.5812129E+04   -1.6905003E+00
   4.8121723E-04   6.5301596E+04   -1.6899571E+00
   4.8343954E-04   6.4795185E+04   -1.6894146E+00
   4.8567212E-04   6.4292861E+04   -1.6888726E+00
   4.8791500E-04   6.3794592E+04   -1.6883312E+00
   4.9016825E-04   6.3300341E+04   -1.6877905E+00
   4.9243189E-04   6.2810077E+04   -1.6872504E+00
   4.9470600E-04   6.2323764E+04   -1.6867109E+00
   4.9699060E-04   6.1841370E+04   -1.6861720E+00
   4.9928575E-04   6.1362863E+04   -1.6856338E+00
   5.0159151E-04   6.0888208E+04   -1.6850962E+00
   5.0390791E-04   6.0417375E+04   -1.6845592E+00
   5.0623501E-04   5.9950331E+04   -1.6840229E+00
   5.0857286E-04   5.9487044E+04   -1.6834872E+00
   5.1092150E-04   5.9027483E+04   -1.6829522E+00
   5.1328099E-04   5.8571617E+04   -1.6824179E+00
   5.1565137E-04   5.8119415E+04   -1.6818842E+00
   5.1803270E-04   5.7670845E+04   -1.6813512E+00
   5.2042503E-04   5.7225878E+04   -1.6808188E+00
   5.2282841E-04   5.6784483E+04   -1.6802872E+00
   5.2524289E-04   5.6346631E+04   -1.6797562E+00
   5.2766851E-04   5.5912291E+04   -1.6792259E+00
   5.3010534E-04   5.5481435E+04   -1.6786963E+00
   5.3255342E-04   5.5054034E+04   -1.6781673E+00
   5.3501281E-04   5.4630058E+04   -1.6776391E+00
   5.3748356E-04   5.4209478E+04   -1.6771116E+00
   5.3996571E-04   5.3792268E+04   -1.6765848E+00
   5.4245933E-04   5.3378398E+04   -1.6760587E+00
   5.4496446E-04   5.2967840E+04   -1.6755333E+00
   5.4748117E-04   5.2560568E+04   -1.6750087E+00
   5.5000949E-04   5.2156553E+04   -1.6744847E+00
   5.5254949E-04   5.1755768E+04   -1.6739615E+00
   5.5510123E-04   5.1358187E+04   -1.6734391E+00
   5.5766474E-04   5.0963783E+04   -1.6729173E+00
   5.6024010E-04   5.0572528E+04   -1.6723963E+00
   5.6282734E-04   5.0184398E+04   -1.6718761E+00
   5.6542654E-04   4.9799366E+04   -1.6713565E+00
   5.6803774E-04   4.9417407E+04   -1.6708378E+00
   5.7066099E-04   4.9038494E+04   -1.6703198E+00
   5.7329637E-04   4.8662602E+04   -1.6698025E+00
   5.7594391E-04   4.8289707E+04   -1.6692860E+00
   5.7860368E-04   4.7919783E+04   -1.6687703E+00
   5.8127573E-04   4.7552806E+04   -1.6682554E+00
   5.8396012E-04   4.7188751E+04   -1.6677412E+00
   5.8665691E-04   4.6827594E+04   -1.6672278E+00
   5.8936616E-04   4.6469311E+04   -1.6667152E+00
   5.9208791E-04   4.6113879E+04   -1.6662034E+00
   5.9482223E-04   4.5761272E+04   -1.6656923E+00
   5.9756919E-04   4.5411469E+04   -1.6651821E+00
   6.0032882E-04   4.5064445E+04   -1.6646726E+00
   6.0310120E-04   4.4720178E+04   -1.6641640E+00
   6.0588639E-04   4.4378645E+04   -1.6636561E+00
   6.0868443E-04   4.4039824E+04   -1.6631491E+00
   6.1149540E-04   4.3703691E+04   -1.6626428E+00
   6.1431935E-04   4.3370225E+04   -1.6621374E+00
   6.1715634E-04   4.3039403E+04   -1.6616328E+00
   6.2000644E-04   4.2711204E+04   -1.6611290E+00
   6.2286969E-04   4.2385606E+04   -1.6606261E+00
