#        a       HoverH0(a)       dlogHdloga_of_a(a)
   1.0000000E-04   1.1115103E+06   -1.9009374E+00
   1.0046181E-04   1.1018186E+06   -1.9005709E+00
   1.0092575E-04   1.0922132E+06   -1.9002033E+00
   1.0139184E-04   1.0826934E+06   -1.8998348E+00
   1.0186008E-04   1.0732583E+06   -1.8994652E+00
   1.0233048E-04   1.0639074E+06   -1.8990946E+00
   1.0280305E-04   1.0546396E+06   -1.8987230E+00
   1.0327781E-04   1.0454545E+06   -1.8983503E+00
   1.0375475E-04   1.0363511E+06   -1.8979767E+00
   1.0423390E-04   1.0273287E+06   -1.8976020E+00
   1.0471527E-04   1.0183866E+06   -1.8972263E+00
   1.0519885E-04   1.0095242E+06   -1.8968496E+00
   1.0568467E-04   1.0007405E+06   -1.8964718E+00
   1.0617274E-04   9.9203509E+05   -1.8960931E+00
   1.0666305E-04   9.8340708E+05   -1.8957133E+00
   1.0715563E-04   9.7485582E+05   -1.8953325E+00
   1.0765049E-04   9.6638061E+05   -1.8949506E+00
   1.0814763E-04   9.5798078E+05   -1.8945678E+00
   1.0864707E-04   9.4965563E+05   -1.8941839E+00
   1.0914881E-04   9.4140450E+05   -1.8937990E+00
   1.0965287E-04   9.3322672E+05   -1.8934131E+00
   1.1015926E-04   9.2512162E+05   -1.8930262E+00
   1.1066799E-04   9.1708855E+05   -1.8926382E+00
   1.1117906E-04   9.0912686E+05   -1.8922492E+00
   1.1169250E-04   9.0123591E+05   -1.8918592E+00
   1.1220831E-04   8.9341506E+05   -1.8914682E+00
   1.1272650E-04   8.8566367E+05   -1.8910762E+00
   1.1324708E-04   8.7798112E+05   -1.8906831E+00
   1.1377007E-04   8.7036680E+05   -1.8902890E+00
   1.1429547E-04   8.6282008E+05   -1.8898939E+00
   1.1482330E-04   8.5534035E+05   -1.8894978E+00
   1.1535356E-04   8.4792701E+05   -1.8891007E+00
   1.1588628E-04   8.4057947E+05   -1.8887025E+00
   1.1642145E-04   8.3329713E+05   -1.8883033E+00
   1.1695910E-04   8.2607939E+05   -1.8879031E+00
   1.1749923E-04   8.1892569E+05   -1.8875019E+00
   1.1804185E-04   8.1183544E+05   -1.8870997E+00
   1.1858698E-04   8.0480806E+05   -1.8866964E+00
   1.1913463E-04   7.9784301E+05   -1.8862921E+00
   1.1968481E-04   7.9093970E+05   -1.8858868E+00
   1.2023752E-04   7.8409759E+05   -1.8854805E+00
   1.2079279E-04   7.7731613E+05   -1.8850732E+00
   1.2135063E-04   7.7059477E+05   -1.8846649E+00
   1.2191104E-04   7.6393297E+05   -1.8842555E+00
   1.2247403E-04   7.5733019E+05   -1.8838452E+00
   1.2303963E-04   7.5078589E+05   -1.8834338E+00
   1.2360784E-04   7.4429956E+05   -1.8830214E+00
   1.2417868E-04   7.3787068E+05   -1.8826080E+00
   1.2475215E-04   7.3149871E+05   -1.8821936E+00
   1.2532826E-04   7.2518316E+05   -1.8817781E+00
   1.2590704E-04   7.1892351E+05   -1.8813617E+00
   1.2648850E-04   7.1271927E+05   -1.8809443E+00
   1.2707263E-04   7.0656992E+05   -1.8805258E+00
   1.2765947E-04   7.0047499E+05   -1.8801063E+00
   1.2824901E-04   6.9443398E+05   -1.8796859E+00
   1.2884128E-04   6.8844640E+05   -1.8792644E+00
   1.2943628E-04   6.8251177E+05   -1.8788419E+00
   1.3003403E-04   6.7662962E+05   -1.8784184E+00
   1.3063454E-04   6.7079948E+05   -1.8779939E+00
   1.3123783E-04   6.6502087E+05   -1.8775684E+00
   1.3184390E-04   6.5929333E+05   -1.8771419E+00
   1.3245277E-04   6.5361641E+05   -1.8767144E+00
   1.3306445E-04   6.4798965E+05   -1.8762859E+00
   1.3367895E-04   6.4241260E+05   -1.8758564E+00
   1.3429630E-04   6.3688481E+05   -1.8754259E+00
   1.3491649E-04   6.3140584E+05   -1.8749944E+00
   1.3553955E-04   6.2597525E+05   -1.8745620E+00
   1.3616548E-04   6.2059261E+05   -1.8741285E+00
   1.3679431E-04   6.1525748E+05   -1.8736940E+00
   1.3742604E-04   6.0996944E+05   -1.8732585E+00
   1.3806069E-04   6.0472806E+05   -1.8728221E+00
   1.3869827E-04   5.9953293E+05   -1.8723846E+00
   1.3933879E-04   5.9438362E+05   -1.8719462E+00
   1.3998227E-04   5.8927974E+05   -1.8715068E+00
   1.4062872E-04   5.8422087E+05   -1.8710664E+00
   1.4127816E-04   5.7920660E+05   -1.8706250E+00
   1.4193060E-04   5.7423654E+05   -1.8701826E+00
   1.4258605E-04   5.6931028E+05   -1.8697393E+00
   1.4324453E-04   5.6442744E+05   -1.8692949E+00
   1.4390605E-04   5.5958763E+05   -1.8688496E+00
   1.4457062E-04   5.5479046E+05   -1.8684033E+00
   1.4523826E-04   5.5003555E+05   -1.8679561E+00
   1.4590899E-04   5.4532251E+05   -1.8675078E+00
   1.4658281E-04   5.4065098E+05   -1.8670586E+00
   1.4725974E-04   5.3602057E+05   -1.8666085E+00
   1.4793981E-04   5.3143092E+05   -1.8661573E+00
   1.4862301E-04   5.2688167E+05   -1.8657052E+00
   1.4930936E-04   5.2237246E+05   -1.8652521E+00
   1.4999889E-04   5.1790291E+05   -1.8647981E+00
   1.5069160E-04   5.1347269E+05   -1.8643431E+00
   1.5138751E-04   5.0908142E+05   -1.8638871E+00
   1.5208663E-04   5.0472878E+05   -1.8634302E+00
   1.5278899E-04   5.0041440E+05   -1.8629723E+00
   1.5349458E-04   4.9613795E+05   -1.8625135E+00
   1.5420343E-04   4.9189909E+05   -1.8620537E+00
   1.5491556E-04   4.8769748E+05   -1.8615930E+00
   1.5563098E-04   4.8353279E+05   -1.8611313E+00
   1.5634970E-04   4.7940467E+05   -1.8606686E+00
   1.5707174E-04   4.7531282E+05   -1.8602051E+00
   1.5779711E-04   4.7125690E+05   -1.8597405E+00
   1.5852584E-04   4.6723659E+05   -1.8592751E+00
   1.5925792E-04   4.6325157E+05   -1.8588087E+00
   1.5999339E-04   4.5930153E+05   -1.8583413E+00
   1.6073226E-04   4.5538615E+05   -1.8578731E+00
   1.6147454E-04   4.5150512E+05   -1.8574039E+00
   1.6222024E-04   4.4765814E+05   -1.8569337E+00
   1.6296939E-04   4.4384490E+05   -1.8564627E+00
   1.6372200E-04   4.4006510E+05   -1.8559907E+00
   1.6447809E-04   4.3631843E+05   -1.8555178E+00
   1.6523767E-04   4.3260461E+05   -1.8550439E+00
   1.6600075E-04   4.2892333E+05   -1.8545692E+00
   1.6676736E-04   4.2527431E+05   -1.8540935E+00
   1.6753751E-04   4.2165727E+05   -1.8536170E+00
   1.6831122E-04   4.1807190E+05   -1.8531395E+00
   1.6908849E-04   4.1451793E+05   -1.8526611E+00
   1.6986936E-04   4.1099508E+05   -1.8521818E+00
   1.7065384E-04   4.0750307E+05   -1.8517016E+00
   1.7144193E-04   4.0404163E+05   -1.8512205E+00
   1.7223367E-04   4.0061048E+05   -1.8507384E+00
   1.7302906E-04   3.9720935E+05   -1.8502555E+00
   1.7382813E-04   3.9383797E+05   -1.8497717E+00
   1.7463089E-04   3.9049607E+05   -1.8492871E+00
   1.7543735E-04   3.8718340E+05   -1.8488015E+00
   1.7624754E-04   3.8389970E+05   -1.8483150E+00
   1.7706147E-04   3.8064469E+05   -1.8478277E+00
   1.7787916E-04   3.7741813E+05   -1.8473394E+00
   1.7870062E-04   3.7421977E+05   -1.8468503E+00
   1.7952588E-04   3.7104934E+05   -1.8463604E+00
   1.8035495E-04   3.6790661E+05   -1.8458695E+00
   1.8118785E-04   3.6479132E+05   -1.8453778E+00
   1.8202459E-04   3.6170323E+05   -1.8448852E+00
   1.8286520E-04   3.5864209E+05   -1.8443918E+00
   1.8370969E-04   3.5560767E+05   -1.8438975E+00
   1.8455808E-04   3.5259973E+05   -1.8434023E+00
   1.8541039E-04   3.4961804E+05   -1.8429063E+00
   1.8626663E-04   3.4666234E+05   -1.8424095E+00
   1.8712683E-04   3.4373243E+05   -1.8419118E+00
   1.8799100E-04   3.4082806E+05   -1.8414132E+00
   1.8885917E-04   3.3794900E+05   -1.8409138E+00
   1.8973134E-04   3.3509504E+05   -1.8404136E+00
   1.9060754E-04   3.3226595E+05   -1.8399125E+00
   1.9148778E-04   3.2946150E+05   -1.8394106E+00
   1.9237209E-04   3.2668148E+05   -1.8389079E+00
   1.9326049E-04   3.2392566E+05   -1.8384043E+00
   1.9415299E-04   3.2119384E+05   -1.8379000E+00
   1.9504960E-04   3.1848580E+05   -1.8373948E+00
   1.9595036E-04   3.1580133E+05   -1.8368888E+00
   1.9685528E-04   3.1314022E+05   -1.8363819E+00
   1.9776438E-04   3.1050225E+05   -1.8358743E+00
   1.9867768E-04   3.0788723E+05   -1.8353659E+00
   1.9959519E-04   3.0529495E+05   -1.8348567E+00
   2.0051694E-04   3.0272521E+05   -1.8343466E+00
   2.0144295E-04   3.0017780E+05   -1.8338358E+00
   2.0237324E-04   2.9765252E+05   -1.8333242E+00
   2.0330782E-04   2.9514919E+05   -1.8328118E+00
   2.0424671E-04   2.9266761E+05   -1.8322986E+00
   2.0518995E-04   2.9020757E+05   -1.8317847E+00
   2.0613754E-04   2.8776890E+05   -1.8312699E+00
   2.0708950E-04   2.8535139E+05   -1.8307544E+00
   2.0804586E-04   2.8295487E+05   -1.8302382E+00
   2.0900664E-04   2.8057914E+05   -1.8297211E+00
   2.0997185E-04   2.7822402E+05   -1.8292033E+00
   2.1094152E-04   2.7588933E+05   -1.8286848E+00
   2.1191567E-04   2.7357489E+05   -1.8281654E+00
   2.1289432E-04   2.7128051E+05   -1.8276454E+00
   2.1387749E-04   2.6900602E+05   -1.8271246E+00
   2.1486520E-04   2.6675123E+05   -1.8266030E+00
   2.1585747E-04   2.6451599E+05   -1.8260808E+00
   2.1685432E-04   2.6230010E+05   -1.8255577E+00
   2.1785578E-04   2.6010341E+05   -1.8250340E+00
   2.1886186E-04   2.5792573E+05   -1.8245095E+00
   2.1987259E-04   2.5576691E+05   -1.8239843E+00
   2.2088798E-04   2.5362677E+05   -1.8234584E+00
   2.2190807E-04   2.5150514E+05   -1.8229318E+00
   2.2293286E-04   2.4940187E+05   -1.8224045E+00
   2.2396239E-04   2.4731679E+05   -1.8218764E+00
   2.2499667E-04   2.4524974E+05   -1.8213477E+00
   2.2603573E-04   2.4320056E+05   -1.8208183E+00
   2.2707958E-04   2.4116909E+05   -1.8202881E+00
   2.2812826E-04   2.3915517E+05   -1.8197573E+00
   2.2918178E-04   2.3715865E+05   -1.8192258E+00
   2.3024017E-04   2.3517938E+05   -1.8186937E+00
   2.3130344E-04   2.3321719E+05   -1.8181608E+00
   2.3237162E-04   2.3127195E+05   -1.8176273E+00
   2.3344474E-04   2.2934349E+05   -1.8170931E+00
   2.3452281E-04   2.2743167E+05   -1.8165583E+00
   2.3560586E-04   2.2553635E+05   -1.8160228E+00
   2.3669392E-04   2.2365738E+05   -1.8154866E+00
   2.3778699E-04   2.2179460E+05   -1.8149498E+00
   2.3888512E-04   2.1994789E+05   -1.8144124E+00
   2.3998831E-04   2.1811709E+05   -1.8138743E+00
   2.4109661E-04   2.1630207E+05   -1.8133356E+00
   2.4221001E-04   2.1450268E+05   -1.8127962E+00
   2.4332857E-04   2.1271879E+05   -1.8122562E+00
   2.4445228E-04   2.1095026E+05   -1.8117156E+00
   2.4558119E-04   2.0919696E+05   -1.8111744E+00
   2.4671531E-04   2.0745875E+05   -1.8106326E+00
   2.4785467E-04   2.0573549E+05   -1.8100902E+00
   2.4899928E-04   2.0402706E+05   -1.8095472E+00
   2.5014919E-04   2.0233332E+05   -1.8090035E+00
   2.5130440E-04   2.0065414E+05   -1.8084593E+00
   2.5246495E-04   1.9898940E+05   -1.8079145E+00
   2.5363086E-04   1.9733897E+05   -1.8073691E+00
   2.5480216E-04   1.9570272E+05   -1.8068232E+00
   2.5597886E-04   1.9408052E+05   -1.8062766E+00
   2.5716100E-04   1.9247226E+05   -1.8057295E+00
   2.5834859E-04   1.9087780E+05   -1.8051818E+00
   2.5954168E-04   1.8929703E+05   -1.8046336E+00
   2.6074027E-04   1.8772982E+05   -1.8040848E+00
   2.6194439E-04   1.8617607E+05   -1.8035355E+00
   2.6315408E-04   1.8463563E+05   -1.8029856E+00
   2.6436935E-04   1.8310841E+05   -1.8024352E+00
   2.6559024E-04   1.8159429E+05   -1.8018843E+00
   2.6681676E-04   1.8009313E+05   -1.8013328E+00
   2.6804895E-04   1.7860485E+05   -1.8007808E+00
   2.6928683E-04   1.7712931E+05   -1.8002283E+00
   2.7053042E-04   1.7566641E+05   -1.7996753E+00
   2.7177976E-04   1.7421604E+05   -1.7991218E+00
   2.7303487E-04   1.7277808E+05   -1.7985678E+00
   2.7429577E-04   1.7135243E+05   -1.7980132E+00
   2.7556250E-04   1.6993897E+05   -1.7974582E+00
   2.7683507E-04   1.6853761E+05   -1.7969027E+00
   2.7811353E-04   1.6714823E+05   -1.7963467E+00
   2.7939788E-04   1.6577073E+05   -1.7957903E+00
   2.8068817E-04   1.6440500E+05   -1.7952333E+00
   2.8198442E-04   1.6305095E+05   -1.7946759E+00
   2.8328665E-04   1.6170846E+05   -1.7941181E+00
   2.8459490E-04   1.6037744E+05   -1.7935598E+00
   2.8590919E-04   1.5905778E+05   -1.7930010E+00
   2.8722955E-04   1.5774938E+05   -1.7924418E+00
   2.8855600E-04   1.5645216E+05   -1.7918822E+00
   2.8988859E-04   1.5516600E+05   -1.7913221E+00
   2.9122732E-04   1.5389081E+05   -1.7907616E+00
   2.9257224E-04   1.5262649E+05   -1.7902007E+00
   2.9392337E-04   1.5137296E+05   -1.7896393E+00
   2.9528074E-04   1.5013010E+05   -1.7890776E+00
   2.9664438E-04   1.4889784E+05   -1.7885154E+00
   2.9801431E-04   1.4767608E+05   -1.7879529E+00
   2.9939057E-04   1.4646472E+05   -1.7873899E+00
   3.0077319E-04   1.4526367E+05   -1.7868266E+00
   3.0216219E-04   1.4407285E+05   -1.7862629E+00
   3.0355761E-04   1.4289216E+05   -1.7856988E+00
   3.0495947E-04   1.4172151E+05   -1.7851343E+00
   3.0636780E-04   1.4056082E+05   -1.7845695E+00
   3.0778264E-04   1.3941000E+05   -1.7840043E+00
   3.0920401E-04   1.3826896E+05   -1.7834387E+00
   3.1063195E-04   1.3713762E+05   -1.7828728E+00
   3.1206648E-04   1.3601589E+05   -1.7823066E+00
   3.1350764E-04   1.3490368E+05   -1.7817400E+00
   3.1495545E-04   1.3380092E+05   -1.7811731E+00
   3.1640994E-04   1.3270752E+05   -1.7806058E+00
   3.1787116E-04   1.3162341E+05   -1.7800383E+00
   3.1933912E-04   1.3054848E+05   -1.7794704E+00
   3.2081386E-04   1.2948268E+05   -1.7789022E+00
   3.2229541E-04   1.2842591E+05   -1.7783337E+00
   3.2378381E-04   1.2737811E+05   -1.7777649E+00
   3.2527908E-04   1.2633918E+05   -1.7771959E+00
   3.2678125E-04   1.2530905E+05   -1.7766265E+00
   3.2829036E-04   1.2428765E+05   -1.7760568E+00
   3.2980644E-04   1.2327490E+05   -1.7754869E+00
   3.3132952E-04   1.2227073E+05   -1.7749167E+00
   3.3285963E-04   1.2127505E+05   -1.7743463E+00
   3.3439681E-04   1.2028779E+05   -1.7737756E+00
   3.3594109E-04   1.1930889E+05   -1.7732046E+00
   3.3749250E-04   1.1833826E+05   -1.7726334E+00
   3.3905108E-04   1.1737584E+05   -1.7720620E+00
   3.4061685E-04   1.1642155E+05   -1.7714903E+00
   3.4218986E-04   1.1547533E+05   -1.7709184E+00
   3.4377013E-04   1.1453710E+05   -1.7703463E+00
   3.4535769E-04   1.1360679E+05   -1.7697739E+00
   3.4695259E-04   1.1268433E+05   -1.7692014E+00
   3.4855485E-04   1.1176966E+05   -1.7686286E+00
   3.5016452E-04   1.1086271E+05   -1.7680557E+00
   3.5178161E-04   1.0996340E+05   -1.7674825E+00
   3.5340618E-04   1.0907168E+05   -1.7669092E+00
   3.5503824E-04   1.0818748E+05   -1.7663357E+00
   3.5667785E-04   1.0731073E+05   -1.7657620E+00
   3.5832502E-04   1.0644136E+05   -1.7651882E+00
   3.5997981E-04   1.0557932E+05   -1.7646141E+00
   3.6164223E-04   1.0472453E+05   -1.7640400E+00
   3.6331233E-04   1.0387695E+05   -1.7634657E+00
   3.6499015E-04   1.0303649E+05   -1.7628912E+00
   3.6667571E-04   1.0220310E+05   -1.7623166E+00
   3.6836906E-04   1.0137672E+05   -1.7617419E+00
   3.7007022E-04   1.0055730E+05   -1.7611670E+00
   3.7177925E-04   9.9744754E+04   -1.7605921E+00
   3.7349616E-04   9.8939040E+04   -1.7600170E+00
   3.7522101E-04   9.8140095E+04   -1.7594418E+00
   3.7695382E-04   9.7347859E+04   -1.7588665E+00
   3.7869463E-04   9.6562275E+04   -1.7582911E+00
   3.8044348E-04   9.5783284E+04   -1.7577156E+00
   3.8220041E-04   9.5010829E+04   -1.7571401E+00
   3.8396545E-04   9.4244854E+04   -1.7565644E+00
   3.8573864E-04   9.3485303E+04   -1.7559887E+00
   3.8752002E-04   9.2732118E+04   -1.7554129E+00
   3.8930963E-04   9.1985246E+04   -1.7548371E+00
   3.9110750E-04   9.1244631E+04   -1.7542612E+00
   3.9291368E-04   9.0510219E+04   -1.7536853E+00
   3.9472820E-04   8.9781957E+04   -1.7531093E+00
   3.9655109E-04   8.9059791E+04   -1.7525333E+00
   3.9838241E-04   8.8343668E+04   -1.7519573E+00
   4.0022218E-04   8.7633536E+04   -1.7513813E+00
   4.0207045E-04   8.6929343E+04   -1.7508052E+00
   4.0392725E-04   8.6231038E+04   -1.7502291E+00
   4.0579263E-04   8.5538569E+04   -1.7496530E+00
   4.0766662E-04   8.4851886E+04   -1.7490770E+00
   4.0954927E-04   8.4170939E+04   -1.7485009E+00
   4.1144061E-04   8.3495679E+04   -1.7479248E+00
   4.1334068E-04   8.2826055E+04   -1.7473488E+00
   4.1524953E-04   8.2162020E+04   -1.7467728E+00
   4.1716720E-04   8.1503525E+04   -1.7461968E+00
   4.1909372E-04   8.0850522E+04   -1.7456209E+00
   4.2102914E-04   8.0202963E+04   -1.7450450E+00
   4.2297350E-04   7.9560802E+04   -1.7444692E+00
   4.2492683E-04   7.8923992E+04   -1.7438934E+00
   4.2688919E-04   7.8292487E+04   -1.7433177E+00
   4.2886061E-04   7.7666241E+04   -1.7427420E+00
   4.3084113E-04   7.7045209E+04   -1.7421665E+00
   4.3283080E-04   7.6429345E+04   -1.7415910E+00
   4.3482966E-04   7.5818605E+04   -1.7410156E+00
   4.3683775E-04   7.5212944E+04   -1.7404403E+00
   4.3885511E-04   7.4612320E+04   -1.7398651E+00
   4.4088179E-04   7.4016688E+04   -1.7392900E+00
   4.4291783E-04   7.3426006E+04   -1.7387150E+00
   4.4496327E-04   7.2840230E+04   -1.7381401E+00
   4.4701816E-04   7.2259319E+04   -1.7375654E+00
   4.4908253E-04   7.1683231E+04   -1.7369907E+00
   4.5115644E-04   7.1111923E+04   -1.7364163E+00
   4.5323993E-04   7.0545356E+04   -1.7358419E+00
   4.5533304E-04   6.9983488E+04   -1.7352677E+00
   4.5743582E-04   6.9426279E+04   -1.7346937E+00
   4.5954830E-04   6.8873688E+04   -1.7341199E+00
   4.6167054E-04   6.8325676E+04   -1.7335461E+00
   4.6380259E-04   6.7782204E+04   -1.7329726E+00
   4.6594448E-04   6.7243232E+04   -1.7323993E+00
   4.6809626E-04   6.6708722E+04   -1.7318261E+00
   4.7025797E-04   6.6178636E+04   -1.7312531E+00
   4.7242967E-04   6.5652935E+04   -1.7306803E+00
   4.7461140E-04   6.5131582E+04   -1.7301078E+00
   4.7680321E-04   6.4614539E+04   -1.7295354E+00
   4.7900514E-04   6.4101770E+04   -1.7289632E+00
   4.8121723E-04   6.3593238E+04   -1.7283913E+00
   4.8343954E-04   6.3088906E+04   -1.7278196E+00
   4.8567212E-04   6.2588739E+04   -1.7272481E+00
   4.8791500E-04   6.2092701E+04   -1.7266769E+00
   4.9016825E-04   6.1600756E+04   -1.7261059E+00
   4.9243189E-04   6.1112869E+04   -1.7255352E+00
   4.9470600E-04   6.0629006E+04   -1.7249647E+00
   4.9699060E-04   6.0149132E+04   -1.7243945E+00
   4.9928575E-04   5.9673213E+04   -1.7238245E+00
   5.0159151E-04   5.9201214E+04   -1.7232548E+00
   5.0390791E-04   5.8733104E+04   -1.7226854E+00
   5.0623501E-04   5.8268847E+04   -1.7221163E+00
   5.0857286E-04   5.7808412E+04   -1.7215475E+00
   5.1092150E-04   5.7351765E+04   -1.7209789E+00
   5.1328099E-04   5.6898875E+04   -1.7204107E+00
   5.1565137E-04   5.6449709E+04   -1.7198428E+00
   5.1803270E-04   5.6004235E+04   -1.7192752E+00
   5.2042503E-04   5.5562422E+04   -1.7187079E+00
   5.2282841E-04   5.5124238E+04   -1.7181410E+00
   5.2524289E-04   5.4689653E+04   -1.7175743E+00
   5.2766851E-04   5.4258635E+04   -1.7170080E+00
   5.3010534E-04   5.3831155E+04   -1.7164421E+00
   5.3255342E-04   5.3407182E+04   -1.7158765E+00
   5.3501281E-04   5.2986686E+04   -1.7153113E+00
   5.3748356E-04   5.2569637E+04   -1.7147464E+00
   5.3996571E-04   5.2156007E+04   -1.7141818E+00
   5.4245933E-04   5.1745766E+04   -1.7136177E+00
   5.4496446E-04   5.1338886E+04   -1.7130539E+00
   5.4748117E-04   5.0935337E+04   -1.7124905E+00
   5.5000949E-04   5.0535091E+04   -1.7119275E+00
   5.5254949E-04   5.0138120E+04   -1.7113649E+00
   5.5510123E-04   4.9744397E+04   -1.7108027E+00
   5.5766474E-04   4.9353893E+04   -1.7102409E+00
   5.6024010E-04   4.8966581E+04   -1.7096795E+00
   5.6282734E-04   4.8582434E+04   -1.7091185E+00
   5.6542654E-04   4.8201426E+04   -1.7085580E+00
   5.6803774E-04   4.7823529E+04   -1.7079979E+00
   5.7066099E-04   4.7448717E+04   -1.7074382E+00
   5.7329637E-04   4.7076964E+04   -1.7068789E+00
   5.7594391E-04   4.6708244E+04   -1.7063201E+00
   5.7860368E-04   4.6342532E+04   -1.7057617E+00
   5.8127573E-04   4.5979801E+04   -1.7052038E+00
   5.8396012E-04   4.5620026E+04   -1.7046463E+00
   5.8665691E-04   4.5263183E+04   -1.7040893E+00
   5.8936616E-04   4.4909246E+04   -1.7035328E+00
   5.9208791E-04   4.4558191E+04   -1.7029768E+00
   5.9482223E-04   4.4209993E+04   -1.7024212E+00
   5.9756919E-04   4.3864629E+04   -1.7018661E+00
   6.0032882E-04   4.3522073E+04   -1.7013115E+00
   6.0310120E-04   4.3182304E+04   -1.7007574E+00
   6.0588639E-04   4.2845296E+04   -1.7002038E+00
   6.0868443E-04   4.2511026E+04   -1.6996507E+00
   6.1149540E-04   4.2179472E+04   -1.6990981E+00
   6.1431935E-04   4.1850610E+04   -1.6985461E+00
   6.1715634E-04   4.1524418E+04   -1.6979945E+00
   6.2000644E-04   4.1200873E+04   -1.6974435E+00
   6.2286969E-04   4.0879953E+04   -1.6968930E+00
