#        a       HoverH0(a)       dlogHdloga_of_a(a)
   1.0000000E-04   1.0641016E+06   -1.8839183E+00
   1.0046181E-04   1.0549061E+06   -1.8835071E+00
   1.0092575E-04   1.0457920E+06   -1.8830949E+00
   1.0139184E-04   1.0367586E+06   -1.8826817E+00
   1.0186008E-04   1.0278052E+06   -1.8822675E+00
   1.0233048E-04   1.0189311E+06   -1.8818522E+00
   1.0280305E-04   1.0101355E+06   -1.8814360E+00
   1.0327781E-04   1.0014178E+06   -1.8810187E+00
   1.0375475E-04   9.9277721E+05   -1.8806004E+00
   1.0423390E-04   9.8421308E+05   -1.8801812E+00
   1.0471527E-04   9.7572473E+05   -1.8797609E+00
   1.0519885E-04   9.6731145E+05   -1.8793396E+00
   1.0568467E-04   9.5897258E+05   -1.8789173E+00
   1.0617274E-04   9.5070746E+05   -1.8784940E+00
   1.0666305E-04   9.4251540E+05   -1.8780697E+00
   1.0715563E-04   9.3439577E+05   -1.8776444E+00
   1.0765049E-04   9.2634791E+05   -1.8772181E+00
   1.0814763E-04   9.1837116E+05   -1.8767907E+00
   1.0864707E-04   9.1046490E+05   -1.8763624E+00
   1.0914881E-04   9.0262848E+05   -1.8759331E+00
   1.0965287E-04   8.9486129E+05   -1.8755028E+00
   1.1015926E-04   8.8716269E+05   -1.8750715E+00
   1.1066799E-04   8.7953208E+05   -1.8746392E+00
   1.1117906E-04   8.7196884E+05   -1.8742059E+00
   1.1169250E-04   8.6447236E+05   -1.8737716E+00
   1.1220831E-04   8.5704204E+05   -1.8733364E+00
   1.1272650E-04   8.4967730E+05   -1.8729001E+00
   1.1324708E-04   8.4237754E+05   -1.8724628E+00
   1.1377007E-04   8.3514218E+05   -1.8720246E+00
   1.1429547E-04   8.2797064E+05   -1.8715853E+00
   1.1482330E-04   8.2086235E+05   -1.8711451E+00
   1.1535356E-04   8.1381673E+05   -1.8707039E+00
   1.1588628E-04   8.0683323E+05   -1.8702617E+00
   1.1642145E-04   7.9991129E+05   -1.8698186E+00
   1.1695910E-04   7.9305035E+05   -1.8693744E+00
   1.1749923E-04   7.8624987E+05   -1.8689293E+00
   1.1804185E-04   7.7950931E+05   -1.8684832E+00
   1.1858698E-04   7.7282812E+05   -1.8680361E+00
   1.1913463E-04   7.6620578E+05   -1.8675881E+00
   1.1968481E-04   7.5964175E+05   -1.8671390E+00
   1.2023752E-04   7.5313552E+05   -1.8666890E+00
   1.2079279E-04   7.4668656E+05   -1.8662381E+00
   1.2135063E-04   7.4029437E+05   -1.8657861E+00
   1.2191104E-04   7.3395843E+05   -1.8653332E+00
   1.2247403E-04   7.2767823E+05   -1.8648794E+00
   1.2303963E-04   7.2145328E+05   -1.8644246E+00
   1.2360784E-04   7.1528308E+05   -1.8639688E+00
   1.2417868E-04   7.0916715E+05   -1.8635120E+00
   1.2475215E-04   7.0310499E+05   -1.8630543E+00
   1.2532826E-04   6.9709612E+05   -1.8625957E+00
   1.2590704E-04   6.9114006E+05   -1.8621361E+00
   1.2648850E-04   6.8523635E+05   -1.8616755E+00
   1.2707263E-04   6.7938451E+05   -1.8612140E+00
   1.2765947E-04   6.7358408E+05   -1.8607516E+00
   1.2824901E-04   6.6783459E+05   -1.8602882E+00
   1.2884128E-04   6.6213560E+05   -1.8598238E+00
   1.2943628E-04   6.5648665E+05   -1.8593585E+00
   1.3003403E-04   6.5088728E+05   -1.8588923E+00
   1.3063454E-04   6.4533707E+05   -1.8584252E+00
   1.3123783E-04   6.3983555E+05   -1.8579571E+00
   1.3184390E-04   6.3438231E+05   -1.8574880E+00
   1.3245277E-04   6.2897691E+05   -1.8570181E+00
   1.3306445E-04   6.2361891E+05   -1.8565472E+00
   1.3367895E-04   6.1830790E+05   -1.8560754E+00
   1.3429630E-04   6.1304346E+05   -1.8556027E+00
   1.3491649E-04   6.0782516E+05   -1.8551290E+00
   1.3553955E-04   6.0265260E+05   -1.8546544E+00
   1.3616548E-04   5.9752536E+05   -1.8541790E+00
   1.3679431E-04   5.9244305E+05   -1.8537026E+00
   1.3742604E-04   5.8740525E+05   -1.8532252E+00
   1.3806069E-04   5.8241158E+05   -1.8527470E+00
   1.3869827E-04   5.7746163E+05   -1.8522679E+00
   1.3933879E-04   5.7255502E+05   -1.8517879E+00
   1.3998227E-04   5.6769135E+05   -1.8513069E+00
   1.4062872E-04   5.6287025E+05   -1.8508251E+00
   1.4127816E-04   5.5809133E+05   -1.8503424E+00
   1.4193060E-04   5.5335421E+05   -1.8498587E+00
   1.4258605E-04   5.4865853E+05   -1.8493742E+00
   1.4324453E-04   5.4400391E+05   -1.8488888E+00
   1.4390605E-04   5.3938999E+05   -1.8484025E+00
   1.4457062E-04   5.3481640E+05   -1.8479153E+00
   1.4523826E-04   5.3028278E+05   -1.8474273E+00
   1.4590899E-04   5.2578878E+05   -1.8469384E+00
   1.4658281E-04   5.2133403E+05   -1.8464486E+00
   1.4725974E-04   5.1691820E+05   -1.8459579E+00
   1.4793981E-04   5.1254093E+05   -1.8454663E+00
   1.4862301E-04   5.0820188E+05   -1.8449739E+00
   1.4930936E-04   5.0390070E+05   -1.8444807E+00
   1.4999889E-04   4.9963707E+05   -1.8439865E+00
   1.5069160E-04   4.9541064E+05   -1.8434915E+00
   1.5138751E-04   4.9122108E+05   -1.8429957E+00
   1.5208663E-04   4.8706807E+05   -1.8424990E+00
   1.5278899E-04   4.8295127E+05   -1.8420015E+00
   1.5349458E-04   4.7887037E+05   -1.8415031E+00
   1.5420343E-04   4.7482505E+05   -1.8410038E+00
   1.5491556E-04   4.7081498E+05   -1.8405038E+00
   1.5563098E-04   4.6683985E+05   -1.8400029E+00
   1.5634970E-04   4.6289936E+05   -1.8395011E+00
   1.5707174E-04   4.5899319E+05   -1.8389986E+00
   1.5779711E-04   4.5512103E+05   -1.8384952E+00
   1.5852584E-04   4.5128259E+05   -1.8379910E+00
   1.5925792E-04   4.4747756E+05   -1.8374859E+00
   1.5999339E-04   4.4370565E+05   -1.8369801E+00
   1.6073226E-04   4.3996656E+05   -1.8364735E+00
   1.6147454E-04   4.3625999E+05   -1.8359660E+00
   1.6222024E-04   4.3258567E+05   -1.8354577E+00
   1.6296939E-04   4.2894330E+05   -1.8349487E+00
   1.6372200E-04   4.2533259E+05   -1.8344388E+00
   1.6447809E-04   4.2175327E+05   -1.8339281E+00
   1.6523767E-04   4.1820506E+05   -1.8334167E+00
   1.6600075E-04   4.1468768E+05   -1.8329044E+00
   1.6676736E-04   4.1120085E+05   -1.8323914E+00
   1.6753751E-04   4.0774430E+05   -1.8318776E+00
   1.6831122E-04   4.0431776E+05   -1.8313630E+00
   1.6908849E-04   4.0092098E+05   -1.8308477E+00
   1.6986936E-04   3.9755367E+05   -1.8303316E+00
   1.7065384E-04   3.9421559E+05   -1.8298147E+00
   1.7144193E-04   3.9090646E+05   -1.8292970E+00
   1.7223367E-04   3.8762604E+05   -1.8287786E+00
   1.7302906E-04   3.8437406E+05   -1.8282595E+00
   1.7382813E-04   3.8115028E+05   -1.8277396E+00
   1.7463089E-04   3.7795445E+05   -1.8272189E+00
   1.7543735E-04   3.7478631E+05   -1.8266975E+00
   1.7624754E-04   3.7164562E+05   -1.8261754E+00
   1.7706147E-04   3.6853213E+05   -1.8256525E+00
   1.7787916E-04   3.6544562E+05   -1.8251289E+00
   1.7870062E-04   3.6238582E+05   -1.8246046E+00
   1.7952588E-04   3.5935251E+05   -1.8240796E+00
   1.8035495E-04   3.5634546E+05   -1.8235538E+00
   1.8118785E-04   3.5336442E+05   -1.8230273E+00
   1.8202459E-04   3.5040918E+05   -1.8225001E+00
   1.8286520E-04   3.4747949E+05   -1.8219723E+00
   1.8370969E-04   3.4457514E+05   -1.8214437E+00
   1.8455808E-04   3.4169589E+05   -1.8209144E+00
   1.8541039E-04   3.3884153E+05   -1.8203844E+00
   1.8626663E-04   3.3601184E+05   -1.8198537E+00
   1.8712683E-04   3.3320659E+05   -1.8193224E+00
   1.8799100E-04   3.3042557E+05   -1.8187903E+00
   1.8885917E-04   3.2766857E+05   -1.8182576E+00
   1.8973134E-04   3.2493536E+05   -1.8177243E+00
   1.9060754E-04   3.2222575E+05   -1.8171902E+00
   1.9148778E-04   3.1953952E+05   -1.8166555E+00
   1.9237209E-04   3.1687647E+05   -1.8161202E+00
   1.9326049E-04   3.1423638E+05   -1.8155841E+00
   1.9415299E-04   3.1161906E+05   -1.8150475E+00
   1.9504960E-04   3.0902431E+05   -1.8145102E+00
   1.9595036E-04   3.0645192E+05   -1.8139722E+00
   1.9685528E-04   3.0390170E+05   -1.8134336E+00
   1.9776438E-04   3.0137345E+05   -1.8128944E+00
   1.9867768E-04   2.9886697E+05   -1.8123546E+00
   1.9959519E-04   2.9638208E+05   -1.8118141E+00
   2.0051694E-04   2.9391858E+05   -1.8112731E+00
   2.0144295E-04   2.9147629E+05   -1.8107314E+00
   2.0237324E-04   2.8905501E+05   -1.8101891E+00
   2.0330782E-04   2.8665456E+05   -1.8096462E+00
   2.0424671E-04   2.8427475E+05   -1.8091027E+00
   2.0518995E-04   2.8191541E+05   -1.8085586E+00
   2.0613754E-04   2.7957635E+05   -1.8080139E+00
   2.0708950E-04   2.7725740E+05   -1.8074687E+00
   2.0804586E-04   2.7495837E+05   -1.8069228E+00
   2.0900664E-04   2.7267909E+05   -1.8063764E+00
   2.0997185E-04   2.7041939E+05   -1.8058294E+00
   2.1094152E-04   2.6817909E+05   -1.8052819E+00
   2.1191567E-04   2.6595802E+05   -1.8047338E+00
   2.1289432E-04   2.6375601E+05   -1.8041851E+00
   2.1387749E-04   2.6157289E+05   -1.8036359E+00
   2.1486520E-04   2.5940850E+05   -1.8030862E+00
   2.1585747E-04   2.5726268E+05   -1.8025359E+00
   2.1685432E-04   2.5513525E+05   -1.8019851E+00
   2.1785578E-04   2.5302605E+05   -1.8014337E+00
   2.1886186E-04   2.5093493E+05   -1.8008819E+00
   2.1987259E-04   2.4886172E+05   -1.8003295E+00
   2.2088798E-04   2.4680628E+05   -1.7997766E+00
   2.2190807E-04   2.4476843E+05   -1.7992232E+00
   2.2293286E-04   2.4274803E+05   -1.7986693E+00
   2.2396239E-04   2.4074492E+05   -1.7981149E+00
   2.2499667E-04   2.3875895E+05   -1.7975600E+00
   2.2603573E-04   2.3678996E+05   -1.7970046E+00
   2.2707958E-04   2.3483782E+05   -1.7964487E+00
   2.2812826E-04   2.3290237E+05   -1.7958924E+00
   2.2918178E-04   2.3098346E+05   -1.7953355E+00
   2.3024017E-04   2.2908094E+05   -1.7947783E+00
   2.3130344E-04   2.2719469E+05   -1.7942205E+00
   2.3237162E-04   2.2532454E+05   -1.7936623E+00
   2.3344474E-04   2.2347036E+05   -1.7931037E+00
   2.3452281E-04   2.2163201E+05   -1.7925446E+00
   2.3560586E-04   2.1980935E+05   -1.7919850E+00
   2.3669392E-04   2.1800225E+05   -1.7914251E+00
   2.3778699E-04   2.1621055E+05   -1.7908647E+00
   2.3888512E-04   2.1443414E+05   -1.7903039E+00
   2.3998831E-04   2.1267287E+05   -1.7897426E+00
   2.4109661E-04   2.1092661E+05   -1.7891810E+00
   2.4221001E-04   2.0919523E+05   -1.7886189E+00
   2.4332857E-04   2.0747860E+05   -1.7880565E+00
   2.4445228E-04   2.0577660E+05   -1.7874937E+00
   2.4558119E-04   2.0408908E+05   -1.7869304E+00
   2.4671531E-04   2.0241593E+05   -1.7863668E+00
   2.4785467E-04   2.0075701E+05   -1.7858028E+00
   2.4899928E-04   1.9911221E+05   -1.7852384E+00
   2.5014919E-04   1.9748140E+05   -1.7846737E+00
   2.5130440E-04   1.9586446E+05   -1.7841086E+00
   2.5246495E-04   1.9426126E+05   -1.7835431E+00
   2.5363086E-04   1.9267168E+05   -1.7829773E+00
   2.5480216E-04   1.9109561E+05   -1.7824112E+00
   2.5597886E-04   1.8953293E+05   -1.7818447E+00
   2.5716100E-04   1.8798352E+05   -1.7812779E+00
   2.5834859E-04   1.8644726E+05   -1.7807107E+00
   2.5954168E-04   1.8492404E+05   -1.7801433E+00
   2.6074027E-04   1.8341374E+05   -1.7795755E+00
   2.6194439E-04   1.8191625E+05   -1.7790074E+00
   2.6315408E-04   1.8043147E+05   -1.7784390E+00
   2.6436935E-04   1.7895927E+05   -1.7778703E+00
   2.6559024E-04   1.7749954E+05   -1.7773013E+00
   2.6681676E-04   1.7605219E+05   -1.7767320E+00
   2.6804895E-04   1.7461710E+05   -1.7761624E+00
   2.6928683E-04   1.7319415E+05   -1.7755926E+00
   2.7053042E-04   1.7178326E+05   -1.7750225E+00
   2.7177976E-04   1.7038431E+05   -1.7744521E+00
   2.7303487E-04   1.6899719E+05   -1.7738815E+00
   2.7429577E-04   1.6762180E+05   -1.7733106E+00
   2.7556250E-04   1.6625805E+05   -1.7727395E+00
   2.7683507E-04   1.6490583E+05   -1.7721681E+00
   2.7811353E-04   1.6356503E+05   -1.7715965E+00
   2.7939788E-04   1.6223557E+05   -1.7710247E+00
   2.8068817E-04   1.6091733E+05   -1.7704527E+00
   2.8198442E-04   1.5961023E+05   -1.7698804E+00
   2.8328665E-04   1.5831416E+05   -1.7693079E+00
   2.8459490E-04   1.5702903E+05   -1.7687353E+00
   2.8590919E-04   1.5575474E+05   -1.7681624E+00
   2.8722955E-04   1.5449121E+05   -1.7675893E+00
   2.8855600E-04   1.5323832E+05   -1.7670161E+00
   2.8988859E-04   1.5199600E+05   -1.7664426E+00
   2.9122732E-04   1.5076415E+05   -1.7658690E+00
   2.9257224E-04   1.4954268E+05   -1.7652952E+00
   2.9392337E-04   1.4833149E+05   -1.7647213E+00
   2.9528074E-04   1.4713051E+05   -1.7641472E+00
   2.9664438E-04   1.4593963E+05   -1.7635730E+00
   2.9801431E-04   1.4475878E+05   -1.7629986E+00
   2.9939057E-04   1.4358786E+05   -1.7624240E+00
   3.0077319E-04   1.4242679E+05   -1.7618494E+00
   3.0216219E-04   1.4127549E+05   -1.7612746E+00
   3.0355761E-04   1.4013386E+05   -1.7606997E+00
   3.0495947E-04   1.3900182E+05   -1.7601247E+00
   3.0636780E-04   1.3787929E+05   -1.7595495E+00
   3.0778264E-04   1.3676620E+05   -1.7589743E+00
   3.0920401E-04   1.3566244E+05   -1.7583990E+00
   3.1063195E-04   1.3456796E+05   -1.7578236E+00
   3.1206648E-04   1.3348265E+05   -1.7572481E+00
   3.1350764E-04   1.3240645E+05   -1.7566725E+00
   3.1495545E-04   1.3133928E+05   -1.7560968E+00
   3.1640994E-04   1.3028105E+05   -1.7555211E+00
   3.1787116E-04   1.2923169E+05   -1.7549453E+00
   3.1933912E-04   1.2819112E+05   -1.7543695E+00
   3.2081386E-04   1.2715927E+05   -1.7537936E+00
   3.2229541E-04   1.2613606E+05   -1.7532177E+00
   3.2378381E-04   1.2512142E+05   -1.7526418E+00
   3.2527908E-04   1.2411526E+05   -1.7520658E+00
   3.2678125E-04   1.2311753E+05   -1.7514898E+00
   3.2829036E-04   1.2212814E+05   -1.7509138E+00
   3.2980644E-04   1.2114702E+05   -1.7503378E+00
   3.3132952E-04   1.2017410E+05   -1.7497617E+00
   3.3285963E-04   1.1920931E+05   -1.7491857E+00
   3.3439681E-04   1.1825258E+05   -1.7486097E+00
   3.3594109E-04   1.1730384E+05   -1.7480337E+00
   3.3749250E-04   1.1636302E+05   -1.7474577E+00
   3.3905108E-04   1.1543006E+05   -1.7468817E+00
   3.4061685E-04   1.1450488E+05   -1.7463058E+00
   3.4218986E-04   1.1358741E+05   -1.7457299E+00
   3.4377013E-04   1.1267759E+05   -1.7451540E+00
   3.4535769E-04   1.1177536E+05   -1.7445783E+00
   3.4695259E-04   1.1088065E+05   -1.7440025E+00
   3.4855485E-04   1.0999339E+05   -1.7434268E+00
   3.5016452E-04   1.0911352E+05   -1.7428512E+00
   3.5178161E-04   1.0824098E+05   -1.7422757E+00
   3.5340618E-04   1.0737569E+05   -1.7417002E+00
   3.5503824E-04   1.0651761E+05   -1.7411249E+00
   3.5667785E-04   1.0566666E+05   -1.7405496E+00
   3.5832502E-04   1.0482279E+05   -1.7399744E+00
   3.5997981E-04   1.0398594E+05   -1.7393994E+00
   3.6164223E-04   1.0315604E+05   -1.7388244E+00
   3.6331233E-04   1.0233303E+05   -1.7382496E+00
   3.6499015E-04   1.0151686E+05   -1.7376749E+00
   3.6667571E-04   1.0070746E+05   -1.7371003E+00
   3.6836906E-04   9.9904787E+04   -1.7365259E+00
   3.7007022E-04   9.9108769E+04   -1.7359515E+00
   3.7177925E-04   9.8319354E+04   -1.7353774E+00
   3.7349616E-04   9.7536485E+04   -1.7348034E+00
   3.7522101E-04   9.6760105E+04   -1.7342295E+00
   3.7695382E-04   9.5990159E+04   -1.7336559E+00
   3.7869463E-04   9.5226592E+04   -1.7330824E+00
   3.8044348E-04   9.4469347E+04   -1.7325090E+00
   3.8220041E-04   9.3718372E+04   -1.7319359E+00
   3.8396545E-04   9.2973613E+04   -1.7313629E+00
   3.8573864E-04   9.2235015E+04   -1.7307902E+00
   3.8752002E-04   9.1502526E+04   -1.7302176E+00
   3.8930963E-04   9.0776094E+04   -1.7296453E+00
   3.9110750E-04   9.0055666E+04   -1.7290732E+00
   3.9291368E-04   8.9341191E+04   -1.7285012E+00
   3.9472820E-04   8.8632618E+04   -1.7279296E+00
   3.9655109E-04   8.7929896E+04   -1.7273581E+00
   3.9838241E-04   8.7232975E+04   -1.7267869E+00
   4.0022218E-04   8.6541806E+04   -1.7262159E+00
   4.0207045E-04   8.5856340E+04   -1.7256452E+00
   4.0392725E-04   8.5176526E+04   -1.7250747E+00
   4.0579263E-04   8.4502317E+04   -1.7245045E+00
   4.0766662E-04   8.3833666E+04   -1.7239346E+00
   4.0954927E-04   8.3170523E+04   -1.7233649E+00
   4.1144061E-04   8.2512842E+04   -1.7227955E+00
   4.1334068E-04   8.1860577E+04   -1.7222264E+00
   4.1524953E-04   8.1213681E+04   -1.7216576E+00
   4.1716720E-04   8.0572108E+04   -1.7210891E+00
   4.1909372E-04   7.9935813E+04   -1.7205208E+00
   4.2102914E-04   7.9304750E+04   -1.7199529E+00
   4.2297350E-04   7.8678875E+04   -1.7193853E+00
   4.2492683E-04   7.8058143E+04   -1.7188181E+00
   4.2688919E-04   7.7442511E+04   -1.7182511E+00
   4.2886061E-04   7.6831936E+04   -1.7176845E+00
   4.3084113E-04   7.6226373E+04   -1.7171182E+00
   4.3283080E-04   7.5625780E+04   -1.7165523E+00
   4.3482966E-04   7.5030115E+04   -1.7159867E+00
   4.3683775E-04   7.4439335E+04   -1.7154214E+00
   4.3885511E-04   7.3853400E+04   -1.7148565E+00
   4.4088179E-04   7.3272267E+04   -1.7142920E+00
   4.4291783E-04   7.2695896E+04   -1.7137279E+00
   4.4496327E-04   7.2124246E+04   -1.7131641E+00
   4.4701816E-04   7.1557278E+04   -1.7126007E+00
   4.4908253E-04   7.0994950E+04   -1.7120377E+00
   4.5115644E-04   7.0437224E+04   -1.7114751E+00
   4.5323993E-04   6.9884061E+04   -1.7109129E+00
   4.5533304E-04   6.9335421E+04   -1.7103511E+00
   4.5743582E-04   6.8791267E+04   -1.7097897E+00
   4.5954830E-04   6.8251559E+04   -1.7092287E+00
   4.6167054E-04   6.7716261E+04   -1.7086681E+00
   4.6380259E-04   6.7185335E+04   -1.7081080E+00
   4.6594448E-04   6.6658743E+04   -1.7075483E+00
   4.6809626E-04   6.6136449E+04   -1.7069890E+00
   4.7025797E-04   6.5618417E+04   -1.7064302E+00
   4.7242967E-04   6.5104610E+04   -1.7058718E+00
   4.7461140E-04   6.4594992E+04   -1.7053139E+00
   4.7680321E-04   6.4089528E+04   -1.7047564E+00
   4.7900514E-04   6.3588182E+04   -1.7041994E+00
   4.8121723E-04   6.3090920E+04   -1.7036429E+00
   4.8343954E-04   6.2597708E+04   -1.7030868E+00
   4.8567212E-04   6.2108510E+04   -1.7025312E+00
   4.8791500E-04   6.1623292E+04   -1.7019761E+00
   4.9016825E-04   6.1142022E+04   -1.7014215E+00
   4.9243189E-04   6.0664666E+04   -1.7008674E+00
   4.9470600E-04   6.0191189E+04   -1.7003138E+00
   4.9699060E-04   5.9721561E+04   -1.6997607E+00
   4.9928575E-04   5.9255747E+04   -1.6992081E+00
   5.0159151E-04   5.8793717E+04   -1.6986560E+00
   5.0390791E-04   5.8335437E+04   -1.6981045E+00
   5.0623501E-04   5.7880877E+04   -1.6975534E+00
   5.0857286E-04   5.7430004E+04   -1.6970029E+00
   5.1092150E-04   5.6982788E+04   -1.6964530E+00
   5.1328099E-04   5.6539197E+04   -1.6959035E+00
   5.1565137E-04   5.6099202E+04   -1.6953547E+00
   5.1803270E-04   5.5662772E+04   -1.6948063E+00
   5.2042503E-04   5.5229876E+04   -1.6942586E+00
   5.2282841E-04   5.4800485E+04   -1.6937114E+00
   5.2524289E-04   5.4374570E+04   -1.6931647E+00
   5.2766851E-04   5.3952100E+04   -1.6926186E+00
   5.3010534E-04   5.3533048E+04   -1.6920732E+00
   5.3255342E-04   5.3117384E+04   -1.6915282E+00
   5.3501281E-04   5.2705080E+04   -1.6909839E+00
   5.3748356E-04   5.2296107E+04   -1.6904402E+00
   5.3996571E-04   5.1890437E+04   -1.6898970E+00
   5.4245933E-04   5.1488043E+04   -1.6893545E+00
   5.4496446E-04   5.1088898E+04   -1.6888125E+00
   5.4748117E-04   5.0692973E+04   -1.6882712E+00
   5.5000949E-04   5.0300241E+04   -1.6877305E+00
   5.5254949E-04   4.9910677E+04   -1.6871904E+00
   5.5510123E-04   4.9524253E+04   -1.6866509E+00
   5.5766474E-04   4.9140942E+04   -1.6861121E+00
   5.6024010E-04   4.8760720E+04   -1.6855739E+00
   5.6282734E-04   4.8383559E+04   -1.6850363E+00
   5.6542654E-04   4.8009435E+04   -1.6844994E+00
   5.6803774E-04   4.7638321E+04   -1.6839631E+00
   5.7066099E-04   4.7270192E+04   -1.6834275E+00
   5.7329637E-04   4.6905024E+04   -1.6828925E+00
   5.7594391E-04   4.6542792E+04   -1.6823582E+00
   5.7860368E-04   4.6183470E+04   -1.6818245E+00
   5.8127573E-04   4.5827036E+04   -1.6812915E+00
   5.8396012E-04   4.5473464E+04   -1.6807592E+00
   5.8665691E-04   4.5122730E+04   -1.6802276E+00
   5.8936616E-04   4.4774811E+04   -1.6796966E+00
   5.9208791E-04   4.4429683E+04   -1.6791664E+00
   5.9482223E-04   4.4087324E+04   -1.6786368E+00
   5.9756919E-04   4.3747709E+04   -1.6781079E+00
   6.0032882E-04   4.3410816E+04   -1.6775797E+00
   6.0310120E-04   4.3076622E+04   -1.6770522E+00
   6.0588639E-04   4.2745104E+04   -1.6765255E+00
   6.0868443E-04   4.2416241E+04   -1.6759994E+00
   6.1149540E-04   4.2090010E+04   -1.6754741E+00
   6.1431935E-04   4.1766389E+04   -1.6749494E+00
   6.1715634E-04   4.1445356E+04   -1.6744255E+00
   6.2000644E-04   4.1126891E+04   -1.6739023E+00
   6.2286969E-04   4.0810970E+04   -1.6733799E+00
