#        a       HoverH0(a)       dlogHdloga_of_a(a)
   1.0000000E-04   1.1315539E+06   -1.9028751E+00
   1.0046181E-04   1.1216774E+06   -1.9025140E+00
   1.0092575E-04   1.1118889E+06   -1.9021519E+00
   1.0139184E-04   1.1021877E+06   -1.9017888E+00
   1.0186008E-04   1.0925729E+06   -1.9014247E+00
   1.0233048E-04   1.0830439E+06   -1.9010595E+00
   1.0280305E-04   1.0735998E+06   -1.9006933E+00
   1.0327781E-04   1.0642398E+06   -1.9003261E+00
   1.0375475E-04   1.0549632E+06   -1.8999579E+00
   1.0423390E-04   1.0457692E+06   -1.8995886E+00
   1.0471527E-04   1.0366571E+06   -1.8992184E+00
   1.0519885E-04   1.0276262E+06   -1.8988471E+00
   1.0568467E-04   1.0186757E+06   -1.8984748E+00
   1.0617274E-04   1.0098049E+06   -1.8981015E+00
   1.0666305E-04   1.0010131E+06   -1.8977272E+00
   1.0715563E-04   9.9229950E+05   -1.8973518E+00
   1.0765049E-04   9.8366348E+05   -1.8969754E+00
   1.0814763E-04   9.7510431E+05   -1.8965980E+00
   1.0864707E-04   9.6662130E+05   -1.8962196E+00
   1.0914881E-04   9.5821377E+05   -1.8958401E+00
   1.0965287E-04   9.4988102E+05   -1.8954597E+00
   1.1015926E-04   9.4162239E+05   -1.8950782E+00
   1.1066799E-04   9.3343720E+05   -1.8946957E+00
   1.1117906E-04   9.2532480E+05   -1.8943121E+00
   1.1169250E-04   9.1728452E+05   -1.8939276E+00
   1.1220831E-04   9.0931572E+05   -1.8935420E+00
   1.1272650E-04   9.0141776E+05   -1.8931554E+00
   1.1324708E-04   8.9358998E+05   -1.8927678E+00
   1.1377007E-04   8.8583177E+05   -1.8923792E+00
   1.1429547E-04   8.7814249E+05   -1.8919895E+00
   1.1482330E-04   8.7052152E+05   -1.8915988E+00
   1.1535356E-04   8.6296824E+05   -1.8912071E+00
   1.1588628E-04   8.5548204E+05   -1.8908144E+00
   1.1642145E-04   8.4806233E+05   -1.8904207E+00
   1.1695910E-04   8.4070849E+05   -1.8900259E+00
   1.1749923E-04   8.3341994E+05   -1.8896301E+00
   1.1804185E-04   8.2619608E+05   -1.8892333E+00
   1.1858698E-04   8.1903634E+05   -1.8888355E+00
   1.1913463E-04   8.1194014E+05   -1.8884366E+00
   1.1968481E-04   8.0490689E+05   -1.8880368E+00
   1.2023752E-04   7.9793605E+05   -1.8876359E+00
   1.2079279E-04   7.9102704E+05   -1.8872340E+00
   1.2135063E-04   7.8417930E+05   -1.8868311E+00
   1.2191104E-04   7.7739229E+05   -1.8864272E+00
   1.2247403E-04   7.7066546E+05   -1.8860222E+00
   1.2303963E-04   7.6399826E+05   -1.8856162E+00
   1.2360784E-04   7.5739016E+05   -1.8852093E+00
   1.2417868E-04   7.5084062E+05   -1.8848013E+00
   1.2475215E-04   7.4434912E+05   -1.8843922E+00
   1.2532826E-04   7.3791514E+05   -1.8839822E+00
   1.2590704E-04   7.3153815E+05   -1.8835712E+00
   1.2648850E-04   7.2521765E+05   -1.8831591E+00
   1.2707263E-04   7.1895313E+05   -1.8827460E+00
   1.2765947E-04   7.1274407E+05   -1.8823320E+00
   1.2824901E-04   7.0658999E+05   -1.8819169E+00
   1.2884128E-04   7.0049039E+05   -1.8815008E+00
   1.2943628E-04   6.9444478E+05   -1.8810836E+00
   1.3003403E-04   6.8845267E+05   -1.8806655E+00
   1.3063454E-04   6.8251357E+05   -1.8802464E+00
   1.3123783E-04   6.7662703E+05   -1.8798263E+00
   1.3184390E-04   6.7079255E+05   -1.8794051E+00
   1.3245277E-04   6.6500967E+05   -1.8789830E+00
   1.3306445E-04   6.5927793E+05   -1.8785598E+00
   1.3367895E-04   6.5359687E+05   -1.8781356E+00
   1.3429630E-04   6.4796603E+05   -1.8777105E+00
   1.3491649E-04   6.4238496E+05   -1.8772843E+00
   1.3553955E-04   6.3685321E+05   -1.8768572E+00
   1.3616548E-04   6.3137034E+05   -1.8764290E+00
   1.3679431E-04   6.2593592E+05   -1.8759998E+00
   1.3742604E-04   6.2054950E+05   -1.8755697E+00
   1.3806069E-04   6.1521065E+05   -1.8751385E+00
   1.3869827E-04   6.0991894E+05   -1.8747064E+00
   1.3933879E-04   6.0467396E+05   -1.8742732E+00
   1.3998227E-04   5.9947528E+05   -1.8738391E+00
   1.4062872E-04   5.9432249E+05   -1.8734039E+00
   1.4127816E-04   5.8921516E+05   -1.8729678E+00
   1.4193060E-04   5.8415291E+05   -1.8725307E+00
   1.4258605E-04   5.7913531E+05   -1.8720926E+00
   1.4324453E-04   5.7416197E+05   -1.8716535E+00
   1.4390605E-04   5.6923250E+05   -1.8712134E+00
   1.4457062E-04   5.6434649E+05   -1.8707723E+00
   1.4523826E-04   5.5950356E+05   -1.8703303E+00
   1.4590899E-04   5.5470332E+05   -1.8698873E+00
   1.4658281E-04   5.4994539E+05   -1.8694433E+00
   1.4725974E-04   5.4522939E+05   -1.8689983E+00
   1.4793981E-04   5.4055493E+05   -1.8685523E+00
   1.4862301E-04   5.3592166E+05   -1.8681054E+00
   1.4930936E-04   5.3132919E+05   -1.8676575E+00
   1.4999889E-04   5.2677717E+05   -1.8672086E+00
   1.5069160E-04   5.2226522E+05   -1.8667587E+00
   1.5138751E-04   5.1779299E+05   -1.8663079E+00
   1.5208663E-04   5.1336013E+05   -1.8658561E+00
   1.5278899E-04   5.0896628E+05   -1.8654034E+00
   1.5349458E-04   5.0461109E+05   -1.8649496E+00
   1.5420343E-04   5.0029422E+05   -1.8644949E+00
   1.5491556E-04   4.9601531E+05   -1.8640393E+00
   1.5563098E-04   4.9177404E+05   -1.8635827E+00
   1.5634970E-04   4.8757006E+05   -1.8631251E+00
   1.5707174E-04   4.8340303E+05   -1.8626666E+00
   1.5779711E-04   4.7927264E+05   -1.8622071E+00
   1.5852584E-04   4.7517854E+05   -1.8617467E+00
   1.5925792E-04   4.7112041E+05   -1.8612854E+00
   1.5999339E-04   4.6709794E+05   -1.8608230E+00
   1.6073226E-04   4.6311080E+05   -1.8603598E+00
   1.6147454E-04   4.5915867E+05   -1.8598956E+00
   1.6222024E-04   4.5524124E+05   -1.8594304E+00
   1.6296939E-04   4.5135821E+05   -1.8589643E+00
   1.6372200E-04   4.4750926E+05   -1.8584973E+00
   1.6447809E-04   4.4369409E+05   -1.8580293E+00
   1.6523767E-04   4.3991239E+05   -1.8575604E+00
   1.6600075E-04   4.3616387E+05   -1.8570906E+00
   1.6676736E-04   4.3244822E+05   -1.8566199E+00
   1.6753751E-04   4.2876516E+05   -1.8561482E+00
   1.6831122E-04   4.2511439E+05   -1.8556756E+00
   1.6908849E-04   4.2149563E+05   -1.8552021E+00
   1.6986936E-04   4.1790858E+05   -1.8547276E+00
   1.7065384E-04   4.1435297E+05   -1.8542523E+00
   1.7144193E-04   4.1082850E+05   -1.8537760E+00
   1.7223367E-04   4.0733492E+05   -1.8532988E+00
   1.7302906E-04   4.0387193E+05   -1.8528207E+00
   1.7382813E-04   4.0043926E+05   -1.8523417E+00
   1.7463089E-04   3.9703665E+05   -1.8518618E+00
   1.7543735E-04   3.9366382E+05   -1.8513810E+00
   1.7624754E-04   3.9032051E+05   -1.8508993E+00
   1.7706147E-04   3.8700645E+05   -1.8504167E+00
   1.7787916E-04   3.8372138E+05   -1.8499332E+00
   1.7870062E-04   3.8046505E+05   -1.8494488E+00
   1.7952588E-04   3.7723719E+05   -1.8489635E+00
   1.8035495E-04   3.7403756E+05   -1.8484773E+00
   1.8118785E-04   3.7086589E+05   -1.8479903E+00
   1.8202459E-04   3.6772195E+05   -1.8475023E+00
   1.8286520E-04   3.6460548E+05   -1.8470135E+00
   1.8370969E-04   3.6151623E+05   -1.8465238E+00
   1.8455808E-04   3.5845398E+05   -1.8460333E+00
   1.8541039E-04   3.5541846E+05   -1.8455418E+00
   1.8626663E-04   3.5240945E+05   -1.8450496E+00
   1.8712683E-04   3.4942670E+05   -1.8445564E+00
   1.8799100E-04   3.4646999E+05   -1.8440624E+00
   1.8885917E-04   3.4353908E+05   -1.8435675E+00
   1.8973134E-04   3.4063374E+05   -1.8430718E+00
   1.9060754E-04   3.3775375E+05   -1.8425752E+00
   1.9148778E-04   3.3489887E+05   -1.8420778E+00
   1.9237209E-04   3.3206888E+05   -1.8415795E+00
   1.9326049E-04   3.2926357E+05   -1.8410804E+00
   1.9415299E-04   3.2648270E+05   -1.8405804E+00
   1.9504960E-04   3.2372607E+05   -1.8400796E+00
   1.9595036E-04   3.2099345E+05   -1.8395780E+00
   1.9685528E-04   3.1828464E+05   -1.8390756E+00
   1.9776438E-04   3.1559942E+05   -1.8385723E+00
   1.9867768E-04   3.1293758E+05   -1.8380682E+00
   1.9959519E-04   3.1029891E+05   -1.8375633E+00
   2.0051694E-04   3.0768320E+05   -1.8370575E+00
   2.0144295E-04   3.0509026E+05   -1.8365510E+00
   2.0237324E-04   3.0251987E+05   -1.8360436E+00
   2.0330782E-04   2.9997184E+05   -1.8355354E+00
   2.0424671E-04   2.9744597E+05   -1.8350265E+00
   2.0518995E-04   2.9494206E+05   -1.8345167E+00
   2.0613754E-04   2.9245992E+05   -1.8340062E+00
   2.0708950E-04   2.8999935E+05   -1.8334948E+00
   2.0804586E-04   2.8756015E+05   -1.8329827E+00
   2.0900664E-04   2.8514215E+05   -1.8324698E+00
   2.0997185E-04   2.8274515E+05   -1.8319560E+00
   2.1094152E-04   2.8036896E+05   -1.8314416E+00
   2.1191567E-04   2.7801340E+05   -1.8309263E+00
   2.1289432E-04   2.7567829E+05   -1.8304103E+00
   2.1387749E-04   2.7336344E+05   -1.8298935E+00
   2.1486520E-04   2.7106867E+05   -1.8293760E+00
   2.1585747E-04   2.6879381E+05   -1.8288576E+00
   2.1685432E-04   2.6653868E+05   -1.8283386E+00
   2.1785578E-04   2.6430310E+05   -1.8278188E+00
   2.1886186E-04   2.6208690E+05   -1.8272982E+00
   2.1987259E-04   2.5988990E+05   -1.8267769E+00
   2.2088798E-04   2.5771194E+05   -1.8262549E+00
   2.2190807E-04   2.5555285E+05   -1.8257321E+00
   2.2293286E-04   2.5341246E+05   -1.8252086E+00
   2.2396239E-04   2.5129060E+05   -1.8246844E+00
   2.2499667E-04   2.4918711E+05   -1.8241594E+00
   2.2603573E-04   2.4710183E+05   -1.8236337E+00
   2.2707958E-04   2.4503459E+05   -1.8231073E+00
   2.2812826E-04   2.4298523E+05   -1.8225802E+00
   2.2918178E-04   2.4095360E+05   -1.8220524E+00
   2.3024017E-04   2.3893954E+05   -1.8215239E+00
   2.3130344E-04   2.3694289E+05   -1.8209947E+00
   2.3237162E-04   2.3496350E+05   -1.8204648E+00
   2.3344474E-04   2.3300121E+05   -1.8199343E+00
   2.3452281E-04   2.3105588E+05   -1.8194030E+00
   2.3560586E-04   2.2912735E+05   -1.8188710E+00
   2.3669392E-04   2.2721547E+05   -1.8183384E+00
   2.3778699E-04   2.2532010E+05   -1.8178051E+00
   2.3888512E-04   2.2344109E+05   -1.8172711E+00
   2.3998831E-04   2.2157830E+05   -1.8167365E+00
   2.4109661E-04   2.1973157E+05   -1.8162012E+00
   2.4221001E-04   2.1790078E+05   -1.8156653E+00
   2.4332857E-04   2.1608577E+05   -1.8151287E+00
   2.4445228E-04   2.1428641E+05   -1.8145915E+00
   2.4558119E-04   2.1250256E+05   -1.8140536E+00
   2.4671531E-04   2.1073409E+05   -1.8135151E+00
   2.4785467E-04   2.0898085E+05   -1.8129759E+00
   2.4899928E-04   2.0724271E+05   -1.8124362E+00
   2.5014919E-04   2.0551954E+05   -1.8118958E+00
   2.5130440E-04   2.0381120E+05   -1.8113548E+00
   2.5246495E-04   2.0211757E+05   -1.8108131E+00
   2.5363086E-04   2.0043852E+05   -1.8102709E+00
   2.5480216E-04   1.9877390E+05   -1.8097281E+00
   2.5597886E-04   1.9712361E+05   -1.8091846E+00
   2.5716100E-04   1.9548751E+05   -1.8086406E+00
   2.5834859E-04   1.9386547E+05   -1.8080960E+00
   2.5954168E-04   1.9225737E+05   -1.8075508E+00
   2.6074027E-04   1.9066310E+05   -1.8070050E+00
   2.6194439E-04   1.8908252E+05   -1.8064587E+00
   2.6315408E-04   1.8751551E+05   -1.8059118E+00
   2.6436935E-04   1.8596196E+05   -1.8053643E+00
   2.6559024E-04   1.8442174E+05   -1.8048162E+00
   2.6681676E-04   1.8289475E+05   -1.8042676E+00
   2.6804895E-04   1.8138086E+05   -1.8037185E+00
   2.6928683E-04   1.7987995E+05   -1.8031688E+00
   2.7053042E-04   1.7839191E+05   -1.8026186E+00
   2.7177976E-04   1.7691664E+05   -1.8020678E+00
   2.7303487E-04   1.7545401E+05   -1.8015165E+00
   2.7429577E-04   1.7400391E+05   -1.8009647E+00
   2.7556250E-04   1.7256624E+05   -1.8004123E+00
   2.7683507E-04   1.7114088E+05   -1.7998595E+00
   2.7811353E-04   1.6972772E+05   -1.7993061E+00
   2.7939788E-04   1.6832667E+05   -1.7987523E+00
   2.8068817E-04   1.6693760E+05   -1.7981979E+00
   2.8198442E-04   1.6556043E+05   -1.7976430E+00
   2.8328665E-04   1.6419503E+05   -1.7970877E+00
   2.8459490E-04   1.6284131E+05   -1.7965319E+00
   2.8590919E-04   1.6149917E+05   -1.7959755E+00
   2.8722955E-04   1.6016850E+05   -1.7954188E+00
   2.8855600E-04   1.5884920E+05   -1.7948615E+00
   2.8988859E-04   1.5754117E+05   -1.7943038E+00
   2.9122732E-04   1.5624431E+05   -1.7937457E+00
   2.9257224E-04   1.5495853E+05   -1.7931870E+00
   2.9392337E-04   1.5368372E+05   -1.7926280E+00
   2.9528074E-04   1.5241980E+05   -1.7920685E+00
   2.9664438E-04   1.5116666E+05   -1.7915086E+00
   2.9801431E-04   1.4992421E+05   -1.7909482E+00
   2.9939057E-04   1.4869236E+05   -1.7903874E+00
   3.0077319E-04   1.4747100E+05   -1.7898262E+00
   3.0216219E-04   1.4626006E+05   -1.7892646E+00
   3.0355761E-04   1.4505944E+05   -1.7887026E+00
   3.0495947E-04   1.4386905E+05   -1.7881401E+00
   3.0636780E-04   1.4268879E+05   -1.7875773E+00
   3.0778264E-04   1.4151859E+05   -1.7870141E+00
   3.0920401E-04   1.4035834E+05   -1.7864505E+00
   3.1063195E-04   1.3920797E+05   -1.7858865E+00
   3.1206648E-04   1.3806739E+05   -1.7853222E+00
   3.1350764E-04   1.3693651E+05   -1.7847574E+00
   3.1495545E-04   1.3581524E+05   -1.7841924E+00
   3.1640994E-04   1.3470351E+05   -1.7836269E+00
   3.1787116E-04   1.3360122E+05   -1.7830611E+00
   3.1933912E-04   1.3250830E+05   -1.7824950E+00
   3.2081386E-04   1.3142467E+05   -1.7819285E+00
   3.2229541E-04   1.3035023E+05   -1.7813617E+00
   3.2378381E-04   1.2928492E+05   -1.7807946E+00
   3.2527908E-04   1.2822865E+05   -1.7802271E+00
   3.2678125E-04   1.2718134E+05   -1.7796593E+00
   3.2829036E-04   1.2614292E+05   -1.7790912E+00
   3.2980644E-04   1.2511330E+05   -1.7785228E+00
   3.3132952E-04   1.2409241E+05   -1.7779541E+00
   3.3285963E-04   1.2308018E+05   -1.7773852E+00
   3.3439681E-04   1.2207652E+05   -1.7768159E+00
   3.3594109E-04   1.2108136E+05   -1.7762463E+00
   3.3749250E-04   1.2009463E+05   -1.7756765E+00
   3.3905108E-04   1.1911626E+05   -1.7751064E+00
   3.4061685E-04   1.1814616E+05   -1.7745360E+00
   3.4218986E-04   1.1718427E+05   -1.7739654E+00
   3.4377013E-04   1.1623053E+05   -1.7733945E+00
   3.4535769E-04   1.1528484E+05   -1.7728234E+00
   3.4695259E-04   1.1434715E+05   -1.7722520E+00
   3.4855485E-04   1.1341739E+05   -1.7716804E+00
   3.5016452E-04   1.1249549E+05   -1.7711086E+00
   3.5178161E-04   1.1158137E+05   -1.7705365E+00
   3.5340618E-04   1.1067497E+05   -1.7699642E+00
   3.5503824E-04   1.0977622E+05   -1.7693917E+00
   3.5667785E-04   1.0888506E+05   -1.7688190E+00
   3.5832502E-04   1.0800142E+05   -1.7682462E+00
   3.5997981E-04   1.0712523E+05   -1.7676731E+00
   3.6164223E-04   1.0625643E+05   -1.7670998E+00
   3.6331233E-04   1.0539496E+05   -1.7665263E+00
   3.6499015E-04   1.0454075E+05   -1.7659527E+00
   3.6667571E-04   1.0369373E+05   -1.7653789E+00
   3.6836906E-04   1.0285385E+05   -1.7648049E+00
   3.7007022E-04   1.0202104E+05   -1.7642308E+00
   3.7177925E-04   1.0119524E+05   -1.7636566E+00
   3.7349616E-04   1.0037639E+05   -1.7630821E+00
   3.7522101E-04   9.9564436E+04   -1.7625076E+00
   3.7695382E-04   9.8759307E+04   -1.7619329E+00
   3.7869463E-04   9.7960948E+04   -1.7613581E+00
   3.8044348E-04   9.7169301E+04   -1.7607831E+00
   3.8220041E-04   9.6384306E+04   -1.7602081E+00
   3.8396545E-04   9.5605907E+04   -1.7596329E+00
   3.8573864E-04   9.4834045E+04   -1.7590576E+00
   3.8752002E-04   9.4068664E+04   -1.7584823E+00
   3.8930963E-04   9.3309707E+04   -1.7579068E+00
   3.9110750E-04   9.2557119E+04   -1.7573313E+00
   3.9291368E-04   9.1810845E+04   -1.7567557E+00
   3.9472820E-04   9.1070829E+04   -1.7561800E+00
   3.9655109E-04   9.0337018E+04   -1.7556042E+00
   3.9838241E-04   8.9609357E+04   -1.7550284E+00
   4.0022218E-04   8.8887793E+04   -1.7544525E+00
   4.0207045E-04   8.8172274E+04   -1.7538766E+00
   4.0392725E-04   8.7462746E+04   -1.7533007E+00
   4.0579263E-04   8.6759158E+04   -1.7527247E+00
   4.0766662E-04   8.6061459E+04   -1.7521486E+00
   4.0954927E-04   8.5369597E+04   -1.7515726E+00
   4.1144061E-04   8.4683521E+04   -1.7509965E+00
   4.1334068E-04   8.4003183E+04   -1.7504204E+00
   4.1524953E-04   8.3328531E+04   -1.7498443E+00
   4.1716720E-04   8.2659517E+04   -1.7492682E+00
   4.1909372E-04   8.1996091E+04   -1.7486922E+00
   4.2102914E-04   8.1338207E+04   -1.7481161E+00
   4.2297350E-04   8.0685814E+04   -1.7475400E+00
   4.2492683E-04   8.0038867E+04   -1.7469640E+00
   4.2688919E-04   7.9397319E+04   -1.7463880E+00
   4.2886061E-04   7.8761121E+04   -1.7458121E+00
   4.3084113E-04   7.8130229E+04   -1.7452362E+00
   4.3283080E-04   7.7504595E+04   -1.7446603E+00
   4.3482966E-04   7.6884176E+04   -1.7440845E+00
   4.3683775E-04   7.6268925E+04   -1.7435088E+00
   4.3885511E-04   7.5658798E+04   -1.7429331E+00
   4.4088179E-04   7.5053752E+04   -1.7423575E+00
   4.4291783E-04   7.4453741E+04   -1.7417819E+00
   4.4496327E-04   7.3858723E+04   -1.7412065E+00
   4.4701816E-04   7.3268654E+04   -1.7406312E+00
   4.4908253E-04   7.2683492E+04   -1.7400559E+00
   4.5115644E-04   7.2103194E+04   -1.7394808E+00
   4.5323993E-04   7.1527720E+04   -1.7389057E+00
   4.5533304E-04   7.0957026E+04   -1.7383308E+00
   4.5743582E-04   7.0391072E+04   -1.7377560E+00
   4.5954830E-04   6.9829817E+04   -1.7371814E+00
   4.6167054E-04   6.9273220E+04   -1.7366068E+00
   4.6380259E-04   6.8721242E+04   -1.7360324E+00
   4.6594448E-04   6.8173843E+04   -1.7354582E+00
   4.6809626E-04   6.7630982E+04   -1.7348841E+00
   4.7025797E-04   6.7092622E+04   -1.7343102E+00
   4.7242967E-04   6.6558724E+04   -1.7337364E+00
   4.7461140E-04   6.6029248E+04   -1.7331628E+00
   4.7680321E-04   6.5504157E+04   -1.7325894E+00
   4.7900514E-04   6.4983414E+04   -1.7320162E+00
   4.8121723E-04   6.4466981E+04   -1.7314431E+00
   4.8343954E-04   6.3954821E+04   -1.7308703E+00
   4.8567212E-04   6.3446898E+04   -1.7302976E+00
   4.8791500E-04   6.2943174E+04   -1.7297252E+00
   4.9016825E-04   6.2443614E+04   -1.7291529E+00
   4.9243189E-04   6.1948182E+04   -1.7285809E+00
   4.9470600E-04   6.1456843E+04   -1.7280091E+00
   4.9699060E-04   6.0969561E+04   -1.7274376E+00
   4.9928575E-04   6.0486303E+04   -1.7268662E+00
   5.0159151E-04   6.0007033E+04   -1.7262951E+00
   5.0390791E-04   5.9531716E+04   -1.7257243E+00
   5.0623501E-04   5.9060320E+04   -1.7251537E+00
   5.0857286E-04   5.8592811E+04   -1.7245834E+00
   5.1092150E-04   5.8129156E+04   -1.7240134E+00
   5.1328099E-04   5.7669320E+04   -1.7234436E+00
   5.1565137E-04   5.7213273E+04   -1.7228741E+00
   5.1803270E-04   5.6760981E+04   -1.7223048E+00
   5.2042503E-04   5.6312412E+04   -1.7217359E+00
   5.2282841E-04   5.5867534E+04   -1.7211673E+00
   5.2524289E-04   5.5426316E+04   -1.7205989E+00
   5.2766851E-04   5.4988727E+04   -1.7200309E+00
   5.3010534E-04   5.4554735E+04   -1.7194632E+00
   5.3255342E-04   5.4124310E+04   -1.7188958E+00
   5.3501281E-04   5.3697421E+04   -1.7183287E+00
   5.3748356E-04   5.3274038E+04   -1.7177620E+00
   5.3996571E-04   5.2854131E+04   -1.7171955E+00
   5.4245933E-04   5.2437671E+04   -1.7166295E+00
   5.4496446E-04   5.2024628E+04   -1.7160638E+00
   5.4748117E-04   5.1614973E+04   -1.7154984E+00
   5.5000949E-04   5.1208678E+04   -1.7149334E+00
   5.5254949E-04   5.0805712E+04   -1.7143687E+00
   5.5510123E-04   5.0406049E+04   -1.7138044E+00
   5.5766474E-04   5.0009659E+04   -1.7132405E+00
   5.6024010E-04   4.9616516E+04   -1.7126770E+00
   5.6282734E-04   4.9226591E+04   -1.7121139E+00
   5.6542654E-04   4.8839857E+04   -1.7115511E+00
   5.6803774E-04   4.8456287E+04   -1.7109887E+00
   5.7066099E-04   4.8075854E+04   -1.7104268E+00
   5.7329637E-04   4.7698531E+04   -1.7098653E+00
   5.7594391E-04   4.7324292E+04   -1.7093041E+00
   5.7860368E-04   4.6953110E+04   -1.7087434E+00
   5.8127573E-04   4.6584960E+04   -1.7081831E+00
   5.8396012E-04   4.6219816E+04   -1.7076233E+00
   5.8665691E-04   4.5857653E+04   -1.7070639E+00
   5.8936616E-04   4.5498444E+04   -1.7065049E+00
   5.9208791E-04   4.5142165E+04   -1.7059463E+00
   5.9482223E-04   4.4788791E+04   -1.7053883E+00
   5.9756919E-04   4.4438298E+04   -1.7048306E+00
   6.0032882E-04   4.4090661E+04   -1.7042735E+00
   6.0310120E-04   4.3745855E+04   -1.7037168E+00
   6.0588639E-04   4.3403858E+04   -1.7031606E+00
   6.0868443E-04   4.3064644E+04   -1.7026048E+00
   6.1149540E-04   4.2728191E+04   -1.7020496E+00
   6.1431935E-04   4.2394475E+04   -1.7014948E+00
   6.1715634E-04   4.2063472E+04   -1.7009405E+00
   6.2000644E-04   4.1735161E+04   -1.7003867E+00
   6.2286969E-04   4.1409518E+04   -1.6998335E+00
