#        a       HoverH0(a)       dlogHdloga_of_a(a)
   1.0000000E-04   1.1974913E+06   -1.8625155E+00
   1.0046181E-04   1.1872603E+06   -1.8620558E+00
   1.0092575E-04   1.1771192E+06   -1.8615951E+00
   1.0139184E-04   1.1670671E+06   -1.8611334E+00
   1.0186008E-04   1.1571034E+06   -1.8606708E+00
   1.0233048E-04   1.1472272E+06   -1.8602072E+00
   1.0280305E-04   1.1374377E+06   -1.8597427E+00
   1.0327781E-04   1.1277342E+06   -1.8592773E+00
   1.0375475E-04   1.1181158E+06   -1.8588109E+00
   1.0423390E-04   1.1085819E+06   -1.8583436E+00
   1.0471527E-04   1.0991316E+06   -1.8578754E+00
   1.0519885E-04   1.0897643E+06   -1.8574062E+00
   1.0568467E-04   1.0804791E+06   -1.8569361E+00
   1.0617274E-04   1.0712753E+06   -1.8564650E+00
   1.0666305E-04   1.0621523E+06   -1.8559931E+00
   1.0715563E-04   1.0531092E+06   -1.8555202E+00
   1.0765049E-04   1.0441454E+06   -1.8550464E+00
   1.0814763E-04   1.0352602E+06   -1.8545717E+00
   1.0864707E-04   1.0264528E+06   -1.8540960E+00
   1.0914881E-04   1.0177226E+06   -1.8536195E+00
   1.0965287E-04   1.0090689E+06   -1.8531420E+00
   1.1015926E-04   1.0004909E+06   -1.8526636E+00
   1.1066799E-04   9.9198808E+05   -1.8521844E+00
   1.1117906E-04   9.8355966E+05   -1.8517042E+00
   1.1169250E-04   9.7520502E+05   -1.8512231E+00
   1.1220831E-04   9.6692349E+05   -1.8507411E+00
   1.1272650E-04   9.5871442E+05   -1.8502582E+00
   1.1324708E-04   9.5057716E+05   -1.8497745E+00
   1.1377007E-04   9.4251108E+05   -1.8492898E+00
   1.1429547E-04   9.3451552E+05   -1.8488043E+00
   1.1482330E-04   9.2658987E+05   -1.8483178E+00
   1.1535356E-04   9.1873350E+05   -1.8478305E+00
   1.1588628E-04   9.1094578E+05   -1.8473423E+00
   1.1642145E-04   9.0322612E+05   -1.8468532E+00
   1.1695910E-04   8.9557389E+05   -1.8463633E+00
   1.1749923E-04   8.8798850E+05   -1.8458725E+00
   1.1804185E-04   8.8046934E+05   -1.8453808E+00
   1.1858698E-04   8.7301584E+05   -1.8448882E+00
   1.1913463E-04   8.6562740E+05   -1.8443948E+00
   1.1968481E-04   8.5830344E+05   -1.8439005E+00
   1.2023752E-04   8.5104339E+05   -1.8434054E+00
   1.2079279E-04   8.4384668E+05   -1.8429094E+00
   1.2135063E-04   8.3671273E+05   -1.8424126E+00
   1.2191104E-04   8.2964101E+05   -1.8419149E+00
   1.2247403E-04   8.2263093E+05   -1.8414164E+00
   1.2303963E-04   8.1568196E+05   -1.8409170E+00
   1.2360784E-04   8.0879356E+05   -1.8404168E+00
   1.2417868E-04   8.0196518E+05   -1.8399158E+00
   1.2475215E-04   7.9519628E+05   -1.8394139E+00
   1.2532826E-04   7.8848634E+05   -1.8389112E+00
   1.2590704E-04   7.8183483E+05   -1.8384077E+00
   1.2648850E-04   7.7524124E+05   -1.8379034E+00
   1.2707263E-04   7.6870503E+05   -1.8373982E+00
   1.2765947E-04   7.6222571E+05   -1.8368923E+00
   1.2824901E-04   7.5580277E+05   -1.8363855E+00
   1.2884128E-04   7.4943571E+05   -1.8358779E+00
   1.2943628E-04   7.4312402E+05   -1.8353695E+00
   1.3003403E-04   7.3686721E+05   -1.8348603E+00
   1.3063454E-04   7.3066480E+05   -1.8343503E+00
   1.3123783E-04   7.2451630E+05   -1.8338395E+00
   1.3184390E-04   7.1842123E+05   -1.8333279E+00
   1.3245277E-04   7.1237912E+05   -1.8328156E+00
   1.3306445E-04   7.0638949E+05   -1.8323024E+00
   1.3367895E-04   7.0045188E+05   -1.8317885E+00
   1.3429630E-04   6.9456582E+05   -1.8312738E+00
   1.3491649E-04   6.8873086E+05   -1.8307583E+00
   1.3553955E-04   6.8294654E+05   -1.8302421E+00
   1.3616548E-04   6.7721242E+05   -1.8297251E+00
   1.3679431E-04   6.7152804E+05   -1.8292073E+00
   1.3742604E-04   6.6589297E+05   -1.8286888E+00
   1.3806069E-04   6.6030675E+05   -1.8281695E+00
   1.3869827E-04   6.5476897E+05   -1.8276495E+00
   1.3933879E-04   6.4927919E+05   -1.8271287E+00
   1.3998227E-04   6.4383699E+05   -1.8266072E+00
   1.4062872E-04   6.3844193E+05   -1.8260850E+00
   1.4127816E-04   6.3309361E+05   -1.8255620E+00
   1.4193060E-04   6.2779160E+05   -1.8250383E+00
   1.4258605E-04   6.2253550E+05   -1.8245139E+00
   1.4324453E-04   6.1732490E+05   -1.8239887E+00
   1.4390605E-04   6.1215939E+05   -1.8234628E+00
   1.4457062E-04   6.0703858E+05   -1.8229362E+00
   1.4523826E-04   6.0196207E+05   -1.8224090E+00
   1.4590899E-04   5.9692946E+05   -1.8218810E+00
   1.4658281E-04   5.9194037E+05   -1.8213523E+00
   1.4725974E-04   5.8699441E+05   -1.8208229E+00
   1.4793981E-04   5.8209119E+05   -1.8202928E+00
   1.4862301E-04   5.7723034E+05   -1.8197620E+00
   1.4930936E-04   5.7241148E+05   -1.8192306E+00
   1.4999889E-04   5.6763424E+05   -1.8186984E+00
   1.5069160E-04   5.6289826E+05   -1.8181656E+00
   1.5138751E-04   5.5820315E+05   -1.8176321E+00
   1.5208663E-04   5.5354857E+05   -1.8170980E+00
   1.5278899E-04   5.4893416E+05   -1.8165632E+00
   1.5349458E-04   5.4435955E+05   -1.8160277E+00
   1.5420343E-04   5.3982440E+05   -1.8154916E+00
   1.5491556E-04   5.3532836E+05   -1.8149549E+00
   1.5563098E-04   5.3087108E+05   -1.8144175E+00
   1.5634970E-04   5.2645221E+05   -1.8138794E+00
   1.5707174E-04   5.2207142E+05   -1.8133407E+00
   1.5779711E-04   5.1772837E+05   -1.8128014E+00
   1.5852584E-04   5.1342272E+05   -1.8122615E+00
   1.5925792E-04   5.0915415E+05   -1.8117210E+00
   1.5999339E-04   5.0492233E+05   -1.8111798E+00
   1.6073226E-04   5.0072693E+05   -1.8106380E+00
   1.6147454E-04   4.9656762E+05   -1.8100956E+00
   1.6222024E-04   4.9244410E+05   -1.8095527E+00
   1.6296939E-04   4.8835605E+05   -1.8090091E+00
   1.6372200E-04   4.8430314E+05   -1.8084649E+00
   1.6447809E-04   4.8028508E+05   -1.8079201E+00
   1.6523767E-04   4.7630154E+05   -1.8073748E+00
   1.6600075E-04   4.7235224E+05   -1.8068289E+00
   1.6676736E-04   4.6843686E+05   -1.8062824E+00
   1.6753751E-04   4.6455510E+05   -1.8057353E+00
   1.6831122E-04   4.6070668E+05   -1.8051877E+00
   1.6908849E-04   4.5689128E+05   -1.8046395E+00
   1.6986936E-04   4.5310863E+05   -1.8040908E+00
   1.7065384E-04   4.4935844E+05   -1.8035415E+00
   1.7144193E-04   4.4564041E+05   -1.8029917E+00
   1.7223367E-04   4.4195426E+05   -1.8024414E+00
   1.7302906E-04   4.3829972E+05   -1.8018905E+00
   1.7382813E-04   4.3467650E+05   -1.8013390E+00
   1.7463089E-04   4.3108432E+05   -1.8007871E+00
   1.7543735E-04   4.2752292E+05   -1.8002347E+00
   1.7624754E-04   4.2399203E+05   -1.7996817E+00
   1.7706147E-04   4.2049136E+05   -1.7991282E+00
   1.7787916E-04   4.1702067E+05   -1.7985742E+00
   1.7870062E-04   4.1357967E+05   -1.7980198E+00
   1.7952588E-04   4.1016812E+05   -1.7974648E+00
   1.8035495E-04   4.0678575E+05   -1.7969093E+00
   1.8118785E-04   4.0343230E+05   -1.7963534E+00
   1.8202459E-04   4.0010752E+05   -1.7957970E+00
   1.8286520E-04   3.9681117E+05   -1.7952401E+00
   1.8370969E-04   3.9354298E+05   -1.7946828E+00
   1.8455808E-04   3.9030271E+05   -1.7941250E+00
   1.8541039E-04   3.8709011E+05   -1.7935667E+00
   1.8626663E-04   3.8390495E+05   -1.7930080E+00
   1.8712683E-04   3.8074697E+05   -1.7924489E+00
   1.8799100E-04   3.7761595E+05   -1.7918893E+00
   1.8885917E-04   3.7451164E+05   -1.7913293E+00
   1.8973134E-04   3.7143381E+05   -1.7907688E+00
   1.9060754E-04   3.6838222E+05   -1.7902080E+00
   1.9148778E-04   3.6535665E+05   -1.7896467E+00
   1.9237209E-04   3.6235686E+05   -1.7890850E+00
   1.9326049E-04   3.5938264E+05   -1.7885229E+00
   1.9415299E-04   3.5643375E+05   -1.7879604E+00
   1.9504960E-04   3.5350998E+05   -1.7873975E+00
   1.9595036E-04   3.5061109E+05   -1.7868342E+00
   1.9685528E-04   3.4773689E+05   -1.7862706E+00
   1.9776438E-04   3.4488714E+05   -1.7857065E+00
   1.9867768E-04   3.4206163E+05   -1.7851421E+00
   1.9959519E-04   3.3926016E+05   -1.7845773E+00
   2.0051694E-04   3.3648250E+05   -1.7840122E+00
   2.0144295E-04   3.3372846E+05   -1.7834467E+00
   2.0237324E-04   3.3099782E+05   -1.7828809E+00
   2.0330782E-04   3.2829037E+05   -1.7823147E+00
   2.0424671E-04   3.2560593E+05   -1.7817482E+00
   2.0518995E-04   3.2294428E+05   -1.7811813E+00
   2.0613754E-04   3.2030522E+05   -1.7806141E+00
   2.0708950E-04   3.1768856E+05   -1.7800466E+00
   2.0804586E-04   3.1509410E+05   -1.7794788E+00
   2.0900664E-04   3.1252164E+05   -1.7789107E+00
   2.0997185E-04   3.0997100E+05   -1.7783423E+00
   2.1094152E-04   3.0744198E+05   -1.7777735E+00
   2.1191567E-04   3.0493440E+05   -1.7772045E+00
   2.1289432E-04   3.0244806E+05   -1.7766352E+00
   2.1387749E-04   2.9998277E+05   -1.7760657E+00
   2.1486520E-04   2.9753837E+05   -1.7754958E+00
   2.1585747E-04   2.9511466E+05   -1.7749257E+00
   2.1685432E-04   2.9271146E+05   -1.7743553E+00
   2.1785578E-04   2.9032859E+05   -1.7737846E+00
   2.1886186E-04   2.8796588E+05   -1.7732138E+00
   2.1987259E-04   2.8562315E+05   -1.7726426E+00
   2.2088798E-04   2.8330023E+05   -1.7720712E+00
   2.2190807E-04   2.8099693E+05   -1.7714996E+00
   2.2293286E-04   2.7871310E+05   -1.7709278E+00
   2.2396239E-04   2.7644855E+05   -1.7703557E+00
   2.2499667E-04   2.7420313E+05   -1.7697835E+00
   2.2603573E-04   2.7197667E+05   -1.7692110E+00
   2.2707958E-04   2.6976899E+05   -1.7686383E+00
   2.2812826E-04   2.6757994E+05   -1.7680654E+00
   2.2918178E-04   2.6540936E+05   -1.7674924E+00
   2.3024017E-04   2.6325707E+05   -1.7669191E+00
   2.3130344E-04   2.6112293E+05   -1.7663457E+00
   2.3237162E-04   2.5900678E+05   -1.7657721E+00
   2.3344474E-04   2.5690845E+05   -1.7651983E+00
   2.3452281E-04   2.5482780E+05   -1.7646243E+00
   2.3560586E-04   2.5276467E+05   -1.7640502E+00
   2.3669392E-04   2.5071890E+05   -1.7634760E+00
   2.3778699E-04   2.4869035E+05   -1.7629016E+00
   2.3888512E-04   2.4667887E+05   -1.7623271E+00
   2.3998831E-04   2.4468430E+05   -1.7617524E+00
   2.4109661E-04   2.4270650E+05   -1.7611777E+00
   2.4221001E-04   2.4074533E+05   -1.7606028E+00
   2.4332857E-04   2.3880063E+05   -1.7600278E+00
   2.4445228E-04   2.3687228E+05   -1.7594527E+00
   2.4558119E-04   2.3496011E+05   -1.7588774E+00
   2.4671531E-04   2.3306400E+05   -1.7583021E+00
   2.4785467E-04   2.3118381E+05   -1.7577267E+00
   2.4899928E-04   2.2931939E+05   -1.7571512E+00
   2.5014919E-04   2.2747061E+05   -1.7565757E+00
   2.5130440E-04   2.2563734E+05   -1.7560001E+00
   2.5246495E-04   2.2381943E+05   -1.7554244E+00
   2.5363086E-04   2.2201676E+05   -1.7548486E+00
   2.5480216E-04   2.2022919E+05   -1.7542728E+00
   2.5597886E-04   2.1845659E+05   -1.7536970E+00
   2.5716100E-04   2.1669884E+05   -1.7531211E+00
   2.5834859E-04   2.1495580E+05   -1.7525452E+00
   2.5954168E-04   2.1322734E+05   -1.7519692E+00
   2.6074027E-04   2.1151335E+05   -1.7513932E+00
   2.6194439E-04   2.0981369E+05   -1.7508173E+00
   2.6315408E-04   2.0812824E+05   -1.7502413E+00
   2.6436935E-04   2.0645687E+05   -1.7496653E+00
   2.6559024E-04   2.0479948E+05   -1.7490893E+00
   2.6681676E-04   2.0315592E+05   -1.7485133E+00
   2.6804895E-04   2.0152610E+05   -1.7479373E+00
   2.6928683E-04   1.9990987E+05   -1.7473614E+00
   2.7053042E-04   1.9830714E+05   -1.7467855E+00
   2.7177976E-04   1.9671778E+05   -1.7462096E+00
   2.7303487E-04   1.9514167E+05   -1.7456337E+00
   2.7429577E-04   1.9357870E+05   -1.7450579E+00
   2.7556250E-04   1.9202877E+05   -1.7444822E+00
   2.7683507E-04   1.9049174E+05   -1.7439065E+00
   2.7811353E-04   1.8896753E+05   -1.7433309E+00
   2.7939788E-04   1.8745600E+05   -1.7427553E+00
   2.8068817E-04   1.8595706E+05   -1.7421798E+00
   2.8198442E-04   1.8447059E+05   -1.7416044E+00
   2.8328665E-04   1.8299649E+05   -1.7410291E+00
   2.8459490E-04   1.8153465E+05   -1.7404539E+00
   2.8590919E-04   1.8008497E+05   -1.7398788E+00
   2.8722955E-04   1.7864734E+05   -1.7393038E+00
   2.8855600E-04   1.7722165E+05   -1.7387289E+00
   2.8988859E-04   1.7580780E+05   -1.7381541E+00
   2.9122732E-04   1.7440570E+05   -1.7375795E+00
   2.9257224E-04   1.7301524E+05   -1.7370050E+00
   2.9392337E-04   1.7163632E+05   -1.7364306E+00
   2.9528074E-04   1.7026883E+05   -1.7358563E+00
   2.9664438E-04   1.6891269E+05   -1.7352822E+00
   2.9801431E-04   1.6756780E+05   -1.7347083E+00
   2.9939057E-04   1.6623405E+05   -1.7341345E+00
   3.0077319E-04   1.6491135E+05   -1.7335609E+00
   3.0216219E-04   1.6359961E+05   -1.7329875E+00
   3.0355761E-04   1.6229873E+05   -1.7324142E+00
   3.0495947E-04   1.6100863E+05   -1.7318412E+00
   3.0636780E-04   1.5972919E+05   -1.7312683E+00
   3.0778264E-04   1.5846035E+05   -1.7306956E+00
   3.0920401E-04   1.5720200E+05   -1.7301232E+00
   3.1063195E-04   1.5595405E+05   -1.7295509E+00
   3.1206648E-04   1.5471641E+05   -1.7289788E+00
   3.1350764E-04   1.5348901E+05   -1.7284070E+00
   3.1495545E-04   1.5227174E+05   -1.7278354E+00
   3.1640994E-04   1.5106452E+05   -1.7272640E+00
   3.1787116E-04   1.4986727E+05   -1.7266929E+00
   3.1933912E-04   1.4867990E+05   -1.7261220E+00
   3.2081386E-04   1.4750232E+05   -1.7255514E+00
   3.2229541E-04   1.4633445E+05   -1.7249810E+00
   3.2378381E-04   1.4517622E+05   -1.7244109E+00
   3.2527908E-04   1.4402753E+05   -1.7238410E+00
   3.2678125E-04   1.4288830E+05   -1.7232714E+00
   3.2829036E-04   1.4175845E+05   -1.7227022E+00
   3.2980644E-04   1.4063791E+05   -1.7221331E+00
   3.3132952E-04   1.3952659E+05   -1.7215644E+00
   3.3285963E-04   1.3842442E+05   -1.7209960E+00
   3.3439681E-04   1.3733131E+05   -1.7204279E+00
   3.3594109E-04   1.3624719E+05   -1.7198601E+00
   3.3749250E-04   1.3517198E+05   -1.7192926E+00
   3.3905108E-04   1.3410561E+05   -1.7187254E+00
   3.4061685E-04   1.3304800E+05   -1.7181586E+00
   3.4218986E-04   1.3199907E+05   -1.7175920E+00
   3.4377013E-04   1.3095875E+05   -1.7170259E+00
   3.4535769E-04   1.2992697E+05   -1.7164600E+00
   3.4695259E-04   1.2890366E+05   -1.7158946E+00
   3.4855485E-04   1.2788874E+05   -1.7153294E+00
   3.5016452E-04   1.2688214E+05   -1.7147647E+00
   3.5178161E-04   1.2588379E+05   -1.7142002E+00
   3.5340618E-04   1.2489363E+05   -1.7136362E+00
   3.5503824E-04   1.2391157E+05   -1.7130726E+00
   3.5667785E-04   1.2293755E+05   -1.7125093E+00
   3.5832502E-04   1.2197151E+05   -1.7119464E+00
   3.5997981E-04   1.2101337E+05   -1.7113839E+00
   3.6164223E-04   1.2006307E+05   -1.7108218E+00
   3.6331233E-04   1.1912053E+05   -1.7102601E+00
   3.6499015E-04   1.1818571E+05   -1.7096989E+00
   3.6667571E-04   1.1725852E+05   -1.7091380E+00
   3.6836906E-04   1.1633891E+05   -1.7085776E+00
   3.7007022E-04   1.1542681E+05   -1.7080176E+00
   3.7177925E-04   1.1452215E+05   -1.7074580E+00
   3.7349616E-04   1.1362488E+05   -1.7068988E+00
   3.7522101E-04   1.1273493E+05   -1.7063401E+00
   3.7695382E-04   1.1185223E+05   -1.7057819E+00
   3.7869463E-04   1.1097674E+05   -1.7052241E+00
   3.8044348E-04   1.1010838E+05   -1.7046668E+00
   3.8220041E-04   1.0924709E+05   -1.7041099E+00
   3.8396545E-04   1.0839282E+05   -1.7035535E+00
   3.8573864E-04   1.0754550E+05   -1.7029976E+00
   3.8752002E-04   1.0670508E+05   -1.7024421E+00
   3.8930963E-04   1.0587150E+05   -1.7018872E+00
   3.9110750E-04   1.0504470E+05   -1.7013327E+00
   3.9291368E-04   1.0422462E+05   -1.7007787E+00
   3.9472820E-04   1.0341121E+05   -1.7002253E+00
   3.9655109E-04   1.0260441E+05   -1.6996723E+00
   3.9838241E-04   1.0180416E+05   -1.6991199E+00
   4.0022218E-04   1.0101041E+05   -1.6985679E+00
   4.0207045E-04   1.0022311E+05   -1.6980165E+00
   4.0392725E-04   9.9442192E+04   -1.6974656E+00
   4.0579263E-04   9.8667611E+04   -1.6969153E+00
   4.0766662E-04   9.7899311E+04   -1.6963655E+00
   4.0954927E-04   9.7137239E+04   -1.6958162E+00
   4.1144061E-04   9.6381344E+04   -1.6952675E+00
   4.1334068E-04   9.5631572E+04   -1.6947193E+00
   4.1524953E-04   9.4887872E+04   -1.6941717E+00
   4.1716720E-04   9.4150194E+04   -1.6936246E+00
   4.1909372E-04   9.3418485E+04   -1.6930782E+00
   4.2102914E-04   9.2692696E+04   -1.6925323E+00
   4.2297350E-04   9.1972778E+04   -1.6919869E+00
   4.2492683E-04   9.1258680E+04   -1.6914422E+00
   4.2688919E-04   9.0550353E+04   -1.6908980E+00
   4.2886061E-04   8.9847750E+04   -1.6903544E+00
   4.3084113E-04   8.9150822E+04   -1.6898114E+00
   4.3283080E-04   8.8459520E+04   -1.6892691E+00
   4.3482966E-04   8.7773799E+04   -1.6887273E+00
   4.3683775E-04   8.7093610E+04   -1.6881861E+00
   4.3885511E-04   8.6418907E+04   -1.6876456E+00
   4.4088179E-04   8.5749645E+04   -1.6871057E+00
   4.4291783E-04   8.5085778E+04   -1.6865664E+00
   4.4496327E-04   8.4427259E+04   -1.6860277E+00
   4.4701816E-04   8.3774045E+04   -1.6854897E+00
   4.4908253E-04   8.3126091E+04   -1.6849523E+00
   4.5115644E-04   8.2483352E+04   -1.6844155E+00
   4.5323993E-04   8.1845786E+04   -1.6838794E+00
   4.5533304E-04   8.1213349E+04   -1.6833440E+00
   4.5743582E-04   8.0585997E+04   -1.6828092E+00
   4.5954830E-04   7.9963688E+04   -1.6822750E+00
   4.6167054E-04   7.9346380E+04   -1.6817415E+00
   4.6380259E-04   7.8734030E+04   -1.6812087E+00
   4.6594448E-04   7.8126598E+04   -1.6806766E+00
   4.6809626E-04   7.7524043E+04   -1.6801452E+00
   4.7025797E-04   7.6926323E+04   -1.6796144E+00
   4.7242967E-04   7.6333398E+04   -1.6790843E+00
   4.7461140E-04   7.5745228E+04   -1.6785549E+00
   4.7680321E-04   7.5161773E+04   -1.6780262E+00
   4.7900514E-04   7.4582994E+04   -1.6774982E+00
   4.8121723E-04   7.4008851E+04   -1.6769710E+00
   4.8343954E-04   7.3439307E+04   -1.6764444E+00
   4.8567212E-04   7.2874323E+04   -1.6759185E+00
   4.8791500E-04   7.2313860E+04   -1.6753934E+00
   4.9016825E-04   7.1757881E+04   -1.6748689E+00
   4.9243189E-04   7.1206349E+04   -1.6743452E+00
   4.9470600E-04   7.0659226E+04   -1.6738222E+00
   4.9699060E-04   7.0116476E+04   -1.6733000E+00
   4.9928575E-04   6.9578062E+04   -1.6727785E+00
   5.0159151E-04   6.9043948E+04   -1.6722577E+00
   5.0390791E-04   6.8514099E+04   -1.6717377E+00
   5.0623501E-04   6.7988478E+04   -1.6712184E+00
   5.0857286E-04   6.7467051E+04   -1.6706999E+00
   5.1092150E-04   6.6949783E+04   -1.6701821E+00
   5.1328099E-04   6.6436640E+04   -1.6696651E+00
   5.1565137E-04   6.5927586E+04   -1.6691489E+00
   5.1803270E-04   6.5422588E+04   -1.6686334E+00
   5.2042503E-04   6.4921613E+04   -1.6681187E+00
   5.2282841E-04   6.4424627E+04   -1.6676048E+00
   5.2524289E-04   6.3931596E+04   -1.6670917E+00
   5.2766851E-04   6.3442488E+04   -1.6665793E+00
   5.3010534E-04   6.2957271E+04   -1.6660677E+00
   5.3255342E-04   6.2475912E+04   -1.6655569E+00
   5.3501281E-04   6.1998379E+04   -1.6650469E+00
   5.3748356E-04   6.1524640E+04   -1.6645377E+00
   5.3996571E-04   6.1054664E+04   -1.6640293E+00
   5.4245933E-04   6.0588421E+04   -1.6635217E+00
   5.4496446E-04   6.0125878E+04   -1.6630149E+00
   5.4748117E-04   5.9667006E+04   -1.6625090E+00
   5.5000949E-04   5.9211774E+04   -1.6620038E+00
   5.5254949E-04   5.8760151E+04   -1.6614995E+00
   5.5510123E-04   5.8312109E+04   -1.6609959E+00
   5.5766474E-04   5.7867617E+04   -1.6604932E+00
   5.6024010E-04   5.7426646E+04   -1.6599914E+00
   5.6282734E-04   5.6989167E+04   -1.6594903E+00
   5.6542654E-04   5.6555152E+04   -1.6589901E+00
   5.6803774E-04   5.6124570E+04   -1.6584907E+00
   5.7066099E-04   5.5697395E+04   -1.6579922E+00
   5.7329637E-04   5.5273599E+04   -1.6574945E+00
   5.7594391E-04   5.4853152E+04   -1.6569977E+00
   5.7860368E-04   5.4436029E+04   -1.6565017E+00
   5.8127573E-04   5.4022200E+04   -1.6560066E+00
   5.8396012E-04   5.3611640E+04   -1.6555123E+00
   5.8665691E-04   5.3204321E+04   -1.6550189E+00
   5.8936616E-04   5.2800217E+04   -1.6545263E+00
   5.9208791E-04   5.2399301E+04   -1.6540346E+00
   5.9482223E-04   5.2001547E+04   -1.6535438E+00
   5.9756919E-04   5.1606928E+04   -1.6530538E+00
   6.0032882E-04   5.1215420E+04   -1.6525647E+00
   6.0310120E-04   5.0826996E+04   -1.6520765E+00
   6.0588639E-04   5.0441631E+04   -1.6515892E+00
   6.0868443E-04   5.0059301E+04   -1.6511027E+00
   6.1149540E-04   4.9679979E+04   -1.6506172E+00
   6.1431935E-04   4.9303643E+04   -1.6501325E+00
   6.1715634E-04   4.8930266E+04   -1.6496487E+00
   6.2000644E-04   4.8559825E+04   -1.6491658E+00
   6.2286969E-04   4.8192295E+04   -1.6486838E+00
