#        a       HoverH0(a)       dlogHdloga_of_a(a)
   1.0000000E-04   1.1826808E+06   -1.8651326E+00
   1.0046181E-04   1.1725621E+06   -1.8646783E+00
   1.0092575E-04   1.1625325E+06   -1.8642231E+00
   1.0139184E-04   1.1525910E+06   -1.8637669E+00
   1.0186008E-04   1.1427370E+06   -1.8633097E+00
   1.0233048E-04   1.1329696E+06   -1.8628516E+00
   1.0280305E-04   1.1232881E+06   -1.8623925E+00
   1.0327781E-04   1.1136917E+06   -1.8619325E+00
   1.0375475E-04   1.1041796E+06   -1.8614715E+00
   1.0423390E-04   1.0947510E+06   -1.8610096E+00
   1.0471527E-04   1.0854053E+06   -1.8605468E+00
   1.0519885E-04   1.0761417E+06   -1.8600830E+00
   1.0568467E-04   1.0669594E+06   -1.8596182E+00
   1.0617274E-04   1.0578577E+06   -1.8591525E+00
   1.0666305E-04   1.0488360E+06   -1.8586859E+00
   1.0715563E-04   1.0398934E+06   -1.8582183E+00
   1.0765049E-04   1.0310292E+06   -1.8577498E+00
   1.0814763E-04   1.0222429E+06   -1.8572804E+00
   1.0864707E-04   1.0135336E+06   -1.8568100E+00
   1.0914881E-04   1.0049007E+06   -1.8563388E+00
   1.0965287E-04   9.9634345E+05   -1.8558665E+00
   1.1015926E-04   9.8786126E+05   -1.8553934E+00
   1.1066799E-04   9.7945342E+05   -1.8549194E+00
   1.1117906E-04   9.7111926E+05   -1.8544444E+00
   1.1169250E-04   9.6285812E+05   -1.8539685E+00
   1.1220831E-04   9.5466936E+05   -1.8534917E+00
   1.1272650E-04   9.4655231E+05   -1.8530140E+00
   1.1324708E-04   9.3850635E+05   -1.8525354E+00
   1.1377007E-04   9.3053085E+05   -1.8520559E+00
   1.1429547E-04   9.2262515E+05   -1.8515754E+00
   1.1482330E-04   9.1478865E+05   -1.8510941E+00
   1.1535356E-04   9.0702073E+05   -1.8506119E+00
   1.1588628E-04   8.9932076E+05   -1.8501288E+00
   1.1642145E-04   8.9168815E+05   -1.8496448E+00
   1.1695910E-04   8.8412229E+05   -1.8491599E+00
   1.1749923E-04   8.7662259E+05   -1.8486741E+00
   1.1804185E-04   8.6918845E+05   -1.8481874E+00
   1.1858698E-04   8.6181929E+05   -1.8476999E+00
   1.1913463E-04   8.5451452E+05   -1.8472114E+00
   1.1968481E-04   8.4727358E+05   -1.8467221E+00
   1.2023752E-04   8.4009590E+05   -1.8462319E+00
   1.2079279E-04   8.3298090E+05   -1.8457409E+00
   1.2135063E-04   8.2592804E+05   -1.8452490E+00
   1.2191104E-04   8.1893675E+05   -1.8447562E+00
   1.2247403E-04   8.1200648E+05   -1.8442625E+00
   1.2303963E-04   8.0513669E+05   -1.8437680E+00
   1.2360784E-04   7.9832685E+05   -1.8432727E+00
   1.2417868E-04   7.9157641E+05   -1.8427765E+00
   1.2475215E-04   7.8488484E+05   -1.8422794E+00
   1.2532826E-04   7.7825163E+05   -1.8417815E+00
   1.2590704E-04   7.7167624E+05   -1.8412827E+00
   1.2648850E-04   7.6515817E+05   -1.8407832E+00
   1.2707263E-04   7.5869691E+05   -1.8402827E+00
   1.2765947E-04   7.5229194E+05   -1.8397815E+00
   1.2824901E-04   7.4594277E+05   -1.8392794E+00
   1.2884128E-04   7.3964889E+05   -1.8387765E+00
   1.2943628E-04   7.3340983E+05   -1.8382727E+00
   1.3003403E-04   7.2722507E+05   -1.8377682E+00
   1.3063454E-04   7.2109415E+05   -1.8372628E+00
   1.3123783E-04   7.1501659E+05   -1.8367566E+00
   1.3184390E-04   7.0899190E+05   -1.8362496E+00
   1.3245277E-04   7.0301962E+05   -1.8357418E+00
   1.3306445E-04   6.9709928E+05   -1.8352332E+00
   1.3367895E-04   6.9123042E+05   -1.8347238E+00
   1.3429630E-04   6.8541257E+05   -1.8342136E+00
   1.3491649E-04   6.7964530E+05   -1.8337026E+00
   1.3553955E-04   6.7392813E+05   -1.8331908E+00
   1.3616548E-04   6.6826064E+05   -1.8326782E+00
   1.3679431E-04   6.6264238E+05   -1.8321648E+00
   1.3742604E-04   6.5707291E+05   -1.8316507E+00
   1.3806069E-04   6.5155179E+05   -1.8311358E+00
   1.3869827E-04   6.4607860E+05   -1.8306201E+00
   1.3933879E-04   6.4065291E+05   -1.8301037E+00
   1.3998227E-04   6.3527429E+05   -1.8295865E+00
   1.4062872E-04   6.2994233E+05   -1.8290685E+00
   1.4127816E-04   6.2465662E+05   -1.8285498E+00
   1.4193060E-04   6.1941674E+05   -1.8280303E+00
   1.4258605E-04   6.1422228E+05   -1.8275101E+00
   1.4324453E-04   6.0907285E+05   -1.8269891E+00
   1.4390605E-04   6.0396803E+05   -1.8264674E+00
   1.4457062E-04   5.9890745E+05   -1.8259449E+00
   1.4523826E-04   5.9389070E+05   -1.8254218E+00
   1.4590899E-04   5.8891739E+05   -1.8248979E+00
   1.4658281E-04   5.8398714E+05   -1.8243732E+00
   1.4725974E-04   5.7909956E+05   -1.8238479E+00
   1.4793981E-04   5.7425428E+05   -1.8233218E+00
   1.4862301E-04   5.6945092E+05   -1.8227951E+00
   1.4930936E-04   5.6468911E+05   -1.8222676E+00
   1.4999889E-04   5.5996848E+05   -1.8217394E+00
   1.5069160E-04   5.5528867E+05   -1.8212105E+00
   1.5138751E-04   5.5064931E+05   -1.8206809E+00
   1.5208663E-04   5.4605004E+05   -1.8201507E+00
   1.5278899E-04   5.4149051E+05   -1.8196197E+00
   1.5349458E-04   5.3697037E+05   -1.8190881E+00
   1.5420343E-04   5.3248927E+05   -1.8185557E+00
   1.5491556E-04   5.2804686E+05   -1.8180228E+00
   1.5563098E-04   5.2364280E+05   -1.8174891E+00
   1.5634970E-04   5.1927674E+05   -1.8169548E+00
   1.5707174E-04   5.1494836E+05   -1.8164198E+00
   1.5779711E-04   5.1065732E+05   -1.8158842E+00
   1.5852584E-04   5.0640328E+05   -1.8153479E+00
   1.5925792E-04   5.0218592E+05   -1.8148109E+00
   1.5999339E-04   4.9800492E+05   -1.8142734E+00
   1.6073226E-04   4.9385995E+05   -1.8137352E+00
   1.6147454E-04   4.8975070E+05   -1.8131963E+00
   1.6222024E-04   4.8567684E+05   -1.8126568E+00
   1.6296939E-04   4.8163807E+05   -1.8121167E+00
   1.6372200E-04   4.7763408E+05   -1.8115760E+00
   1.6447809E-04   4.7366455E+05   -1.8110347E+00
   1.6523767E-04   4.6972918E+05   -1.8104927E+00
   1.6600075E-04   4.6582768E+05   -1.8099502E+00
   1.6676736E-04   4.6195973E+05   -1.8094071E+00
   1.6753751E-04   4.5812505E+05   -1.8088633E+00
   1.6831122E-04   4.5432334E+05   -1.8083190E+00
   1.6908849E-04   4.5055431E+05   -1.8077741E+00
   1.6986936E-04   4.4681767E+05   -1.8072286E+00
   1.7065384E-04   4.4311313E+05   -1.8066825E+00
   1.7144193E-04   4.3944041E+05   -1.8061358E+00
   1.7223367E-04   4.3579923E+05   -1.8055886E+00
   1.7302906E-04   4.3218931E+05   -1.8050409E+00
   1.7382813E-04   4.2861038E+05   -1.8044925E+00
   1.7463089E-04   4.2506216E+05   -1.8039437E+00
   1.7543735E-04   4.2154438E+05   -1.8033942E+00
   1.7624754E-04   4.1805677E+05   -1.8028443E+00
   1.7706147E-04   4.1459906E+05   -1.8022938E+00
   1.7787916E-04   4.1117100E+05   -1.8017427E+00
   1.7870062E-04   4.0777232E+05   -1.8011912E+00
   1.7952588E-04   4.0440276E+05   -1.8006391E+00
   1.8035495E-04   4.0106206E+05   -1.8000865E+00
   1.8118785E-04   3.9774998E+05   -1.7995334E+00
   1.8202459E-04   3.9446625E+05   -1.7989798E+00
   1.8286520E-04   3.9121063E+05   -1.7984257E+00
   1.8370969E-04   3.8798287E+05   -1.7978711E+00
   1.8455808E-04   3.8478272E+05   -1.7973160E+00
   1.8541039E-04   3.8160995E+05   -1.7967604E+00
   1.8626663E-04   3.7846431E+05   -1.7962043E+00
   1.8712683E-04   3.7534556E+05   -1.7956478E+00
   1.8799100E-04   3.7225346E+05   -1.7950908E+00
   1.8885917E-04   3.6918778E+05   -1.7945333E+00
   1.8973134E-04   3.6614830E+05   -1.7939754E+00
   1.9060754E-04   3.6313477E+05   -1.7934170E+00
   1.9148778E-04   3.6014697E+05   -1.7928582E+00
   1.9237209E-04   3.5718467E+05   -1.7922989E+00
   1.9326049E-04   3.5424765E+05   -1.7917392E+00
   1.9415299E-04   3.5133569E+05   -1.7911791E+00
   1.9504960E-04   3.4844856E+05   -1.7906185E+00
   1.9595036E-04   3.4558606E+05   -1.7900575E+00
   1.9685528E-04   3.4274795E+05   -1.7894961E+00
   1.9776438E-04   3.3993403E+05   -1.7889343E+00
   1.9867768E-04   3.3714409E+05   -1.7883721E+00
   1.9959519E-04   3.3437791E+05   -1.7878095E+00
   2.0051694E-04   3.3163529E+05   -1.7872465E+00
   2.0144295E-04   3.2891602E+05   -1.7866832E+00
   2.0237324E-04   3.2621988E+05   -1.7861194E+00
   2.0330782E-04   3.2354670E+05   -1.7855552E+00
   2.0424671E-04   3.2089625E+05   -1.7849907E+00
   2.0518995E-04   3.1826834E+05   -1.7844259E+00
   2.0613754E-04   3.1566277E+05   -1.7838606E+00
   2.0708950E-04   3.1307935E+05   -1.7832950E+00
   2.0804586E-04   3.1051788E+05   -1.7827291E+00
   2.0900664E-04   3.0797817E+05   -1.7821628E+00
   2.0997185E-04   3.0546004E+05   -1.7815962E+00
   2.1094152E-04   3.0296328E+05   -1.7810293E+00
   2.1191567E-04   3.0048771E+05   -1.7804620E+00
   2.1289432E-04   2.9803315E+05   -1.7798944E+00
   2.1387749E-04   2.9559942E+05   -1.7793265E+00
   2.1486520E-04   2.9318633E+05   -1.7787583E+00
   2.1585747E-04   2.9079369E+05   -1.7781898E+00
   2.1685432E-04   2.8842134E+05   -1.7776210E+00
   2.1785578E-04   2.8606910E+05   -1.7770519E+00
   2.1886186E-04   2.8373678E+05   -1.7764825E+00
   2.1987259E-04   2.8142421E+05   -1.7759129E+00
   2.2088798E-04   2.7913123E+05   -1.7753429E+00
   2.2190807E-04   2.7685766E+05   -1.7747727E+00
   2.2293286E-04   2.7460332E+05   -1.7742023E+00
   2.2396239E-04   2.7236806E+05   -1.7736316E+00
   2.2499667E-04   2.7015170E+05   -1.7730606E+00
   2.2603573E-04   2.6795409E+05   -1.7724894E+00
   2.2707958E-04   2.6577505E+05   -1.7719180E+00
   2.2812826E-04   2.6361442E+05   -1.7713463E+00
   2.2918178E-04   2.6147205E+05   -1.7707744E+00
   2.3024017E-04   2.5934778E+05   -1.7702023E+00
   2.3130344E-04   2.5724144E+05   -1.7696299E+00
   2.3237162E-04   2.5515288E+05   -1.7690574E+00
   2.3344474E-04   2.5308194E+05   -1.7684847E+00
   2.3452281E-04   2.5102848E+05   -1.7679117E+00
   2.3560586E-04   2.4899233E+05   -1.7673386E+00
   2.3669392E-04   2.4697336E+05   -1.7667653E+00
   2.3778699E-04   2.4497140E+05   -1.7661918E+00
   2.3888512E-04   2.4298631E+05   -1.7656181E+00
   2.3998831E-04   2.4101794E+05   -1.7650443E+00
   2.4109661E-04   2.3906615E+05   -1.7644703E+00
   2.4221001E-04   2.3713080E+05   -1.7638962E+00
   2.4332857E-04   2.3521173E+05   -1.7633219E+00
   2.4445228E-04   2.3330881E+05   -1.7627475E+00
   2.4558119E-04   2.3142190E+05   -1.7621729E+00
   2.4671531E-04   2.2955086E+05   -1.7615983E+00
   2.4785467E-04   2.2769555E+05   -1.7610234E+00
   2.4899928E-04   2.2585583E+05   -1.7604485E+00
   2.5014919E-04   2.2403157E+05   -1.7598735E+00
   2.5130440E-04   2.2222264E+05   -1.7592983E+00
   2.5246495E-04   2.2042889E+05   -1.7587231E+00
   2.5363086E-04   2.1865020E+05   -1.7581477E+00
   2.5480216E-04   2.1688644E+05   -1.7575723E+00
   2.5597886E-04   2.1513748E+05   -1.7569968E+00
   2.5716100E-04   2.1340319E+05   -1.7564212E+00
   2.5834859E-04   2.1168344E+05   -1.7558456E+00
   2.5954168E-04   2.0997810E+05   -1.7552699E+00
   2.6074027E-04   2.0828706E+05   -1.7546941E+00
   2.6194439E-04   2.0661018E+05   -1.7541183E+00
   2.6315408E-04   2.0494735E+05   -1.7535424E+00
   2.6436935E-04   2.0329844E+05   -1.7529665E+00
   2.6559024E-04   2.0166333E+05   -1.7523906E+00
   2.6681676E-04   2.0004190E+05   -1.7518146E+00
   2.6804895E-04   1.9843404E+05   -1.7512387E+00
   2.6928683E-04   1.9683962E+05   -1.7506627E+00
   2.7053042E-04   1.9525853E+05   -1.7500867E+00
   2.7177976E-04   1.9369065E+05   -1.7495107E+00
   2.7303487E-04   1.9213588E+05   -1.7489347E+00
   2.7429577E-04   1.9059409E+05   -1.7483587E+00
   2.7556250E-04   1.8906517E+05   -1.7477827E+00
   2.7683507E-04   1.8754902E+05   -1.7472068E+00
   2.7811353E-04   1.8604552E+05   -1.7466309E+00
   2.7939788E-04   1.8455456E+05   -1.7460550E+00
   2.8068817E-04   1.8307603E+05   -1.7454791E+00
   2.8198442E-04   1.8160984E+05   -1.7449034E+00
   2.8328665E-04   1.8015586E+05   -1.7443276E+00
   2.8459490E-04   1.7871400E+05   -1.7437519E+00
   2.8590919E-04   1.7728414E+05   -1.7431763E+00
   2.8722955E-04   1.7586620E+05   -1.7426008E+00
   2.8855600E-04   1.7446006E+05   -1.7420253E+00
   2.8988859E-04   1.7306561E+05   -1.7414500E+00
   2.9122732E-04   1.7168277E+05   -1.7408747E+00
   2.9257224E-04   1.7031143E+05   -1.7402995E+00
   2.9392337E-04   1.6895150E+05   -1.7397244E+00
   2.9528074E-04   1.6760286E+05   -1.7391494E+00
   2.9664438E-04   1.6626543E+05   -1.7385745E+00
   2.9801431E-04   1.6493911E+05   -1.7379998E+00
   2.9939057E-04   1.6362380E+05   -1.7374252E+00
   3.0077319E-04   1.6231942E+05   -1.7368507E+00
   3.0216219E-04   1.6102585E+05   -1.7362763E+00
   3.0355761E-04   1.5974302E+05   -1.7357021E+00
   3.0495947E-04   1.5847083E+05   -1.7351281E+00
   3.0636780E-04   1.5720918E+05   -1.7345542E+00
   3.0778264E-04   1.5595799E+05   -1.7339805E+00
   3.0920401E-04   1.5471717E+05   -1.7334069E+00
   3.1063195E-04   1.5348663E+05   -1.7328335E+00
   3.1206648E-04   1.5226627E+05   -1.7322603E+00
   3.1350764E-04   1.5105602E+05   -1.7316873E+00
   3.1495545E-04   1.4985578E+05   -1.7311145E+00
   3.1640994E-04   1.4866547E+05   -1.7305418E+00
   3.1787116E-04   1.4748501E+05   -1.7299694E+00
   3.1933912E-04   1.4631430E+05   -1.7293972E+00
   3.2081386E-04   1.4515327E+05   -1.7288252E+00
   3.2229541E-04   1.4400183E+05   -1.7282534E+00
   3.2378381E-04   1.4285990E+05   -1.7276819E+00
   3.2527908E-04   1.4172740E+05   -1.7271106E+00
   3.2678125E-04   1.4060425E+05   -1.7265395E+00
   3.2829036E-04   1.3949037E+05   -1.7259687E+00
   3.2980644E-04   1.3838567E+05   -1.7253981E+00
   3.3132952E-04   1.3729008E+05   -1.7248278E+00
   3.3285963E-04   1.3620353E+05   -1.7242577E+00
   3.3439681E-04   1.3512593E+05   -1.7236879E+00
   3.3594109E-04   1.3405720E+05   -1.7231184E+00
   3.3749250E-04   1.3299728E+05   -1.7225492E+00
   3.3905108E-04   1.3194609E+05   -1.7219803E+00
   3.4061685E-04   1.3090354E+05   -1.7214116E+00
   3.4218986E-04   1.2986958E+05   -1.7208433E+00
   3.4377013E-04   1.2884412E+05   -1.7202752E+00
   3.4535769E-04   1.2782708E+05   -1.7197075E+00
   3.4695259E-04   1.2681841E+05   -1.7191401E+00
   3.4855485E-04   1.2581803E+05   -1.7185730E+00
   3.5016452E-04   1.2482586E+05   -1.7180062E+00
   3.5178161E-04   1.2384185E+05   -1.7174398E+00
   3.5340618E-04   1.2286591E+05   -1.7168737E+00
   3.5503824E-04   1.2189797E+05   -1.7163080E+00
   3.5667785E-04   1.2093798E+05   -1.7157426E+00
   3.5832502E-04   1.1998586E+05   -1.7151775E+00
   3.5997981E-04   1.1904155E+05   -1.7146129E+00
   3.6164223E-04   1.1810498E+05   -1.7140486E+00
   3.6331233E-04   1.1717608E+05   -1.7134846E+00
   3.6499015E-04   1.1625478E+05   -1.7129211E+00
   3.6667571E-04   1.1534103E+05   -1.7123579E+00
   3.6836906E-04   1.1443476E+05   -1.7117951E+00
   3.7007022E-04   1.1353591E+05   -1.7112327E+00
   3.7177925E-04   1.1264440E+05   -1.7106707E+00
   3.7349616E-04   1.1176019E+05   -1.7101092E+00
   3.7522101E-04   1.1088320E+05   -1.7095480E+00
   3.7695382E-04   1.1001338E+05   -1.7089872E+00
   3.7869463E-04   1.0915067E+05   -1.7084269E+00
   3.8044348E-04   1.0829500E+05   -1.7078670E+00
   3.8220041E-04   1.0744631E+05   -1.7073075E+00
   3.8396545E-04   1.0660455E+05   -1.7067485E+00
   3.8573864E-04   1.0576966E+05   -1.7061899E+00
   3.8752002E-04   1.0494157E+05   -1.7056318E+00
   3.8930963E-04   1.0412024E+05   -1.7050741E+00
   3.9110750E-04   1.0330560E+05   -1.7045169E+00
   3.9291368E-04   1.0249760E+05   -1.7039602E+00
   3.9472820E-04   1.0169617E+05   -1.7034039E+00
   3.9655109E-04   1.0090128E+05   -1.7028481E+00
   3.9838241E-04   1.0011285E+05   -1.7022928E+00
   4.0022218E-04   9.9330833E+04   -1.7017379E+00
   4.0207045E-04   9.8555180E+04   -1.7011836E+00
   4.0392725E-04   9.7785833E+04   -1.7006297E+00
   4.0579263E-04   9.7022739E+04   -1.7000764E+00
   4.0766662E-04   9.6265846E+04   -1.6995236E+00
   4.0954927E-04   9.5515101E+04   -1.6989713E+00
   4.1144061E-04   9.4770451E+04   -1.6984195E+00
   4.1334068E-04   9.4031846E+04   -1.6978682E+00
   4.1524953E-04   9.3299234E+04   -1.6973174E+00
   4.1716720E-04   9.2572565E+04   -1.6967672E+00
   4.1909372E-04   9.1851788E+04   -1.6962176E+00
   4.2102914E-04   9.1136853E+04   -1.6956684E+00
   4.2297350E-04   9.0427713E+04   -1.6951198E+00
   4.2492683E-04   8.9724316E+04   -1.6945718E+00
   4.2688919E-04   8.9026616E+04   -1.6940244E+00
   4.2886061E-04   8.8334564E+04   -1.6934774E+00
   4.3084113E-04   8.7648113E+04   -1.6929311E+00
   4.3283080E-04   8.6967214E+04   -1.6923853E+00
   4.3482966E-04   8.6291822E+04   -1.6918402E+00
   4.3683775E-04   8.5621891E+04   -1.6912956E+00
   4.3885511E-04   8.4957373E+04   -1.6907515E+00
   4.4088179E-04   8.4298224E+04   -1.6902081E+00
   4.4291783E-04   8.3644398E+04   -1.6896653E+00
   4.4496327E-04   8.2995851E+04   -1.6891231E+00
   4.4701816E-04   8.2352538E+04   -1.6885815E+00
   4.4908253E-04   8.1714415E+04   -1.6880405E+00
   4.5115644E-04   8.1081438E+04   -1.6875001E+00
   4.5323993E-04   8.0453566E+04   -1.6869603E+00
   4.5533304E-04   7.9830754E+04   -1.6864212E+00
   4.5743582E-04   7.9212959E+04   -1.6858827E+00
   4.5954830E-04   7.8600141E+04   -1.6853448E+00
   4.6167054E-04   7.7992257E+04   -1.6848076E+00
   4.6380259E-04   7.7389265E+04   -1.6842710E+00
   4.6594448E-04   7.6791125E+04   -1.6837350E+00
   4.6809626E-04   7.6197797E+04   -1.6831998E+00
   4.7025797E-04   7.5609239E+04   -1.6826651E+00
   4.7242967E-04   7.5025411E+04   -1.6821312E+00
   4.7461140E-04   7.4446275E+04   -1.6815979E+00
   4.7680321E-04   7.3871791E+04   -1.6810652E+00
   4.7900514E-04   7.3301919E+04   -1.6805333E+00
   4.8121723E-04   7.2736623E+04   -1.6800020E+00
   4.8343954E-04   7.2175862E+04   -1.6794714E+00
   4.8567212E-04   7.1619599E+04   -1.6789415E+00
   4.8791500E-04   7.1067797E+04   -1.6784123E+00
   4.9016825E-04   7.0520418E+04   -1.6778838E+00
   4.9243189E-04   6.9977425E+04   -1.6773560E+00
   4.9470600E-04   6.9438783E+04   -1.6768289E+00
   4.9699060E-04   6.8904453E+04   -1.6763025E+00
   4.9928575E-04   6.8374401E+04   -1.6757768E+00
   5.0159151E-04   6.7848590E+04   -1.6752518E+00
   5.0390791E-04   6.7326986E+04   -1.6747276E+00
   5.0623501E-04   6.6809553E+04   -1.6742041E+00
   5.0857286E-04   6.6296256E+04   -1.6736813E+00
   5.1092150E-04   6.5787062E+04   -1.6731592E+00
   5.1328099E-04   6.5281935E+04   -1.6726379E+00
   5.1565137E-04   6.4780842E+04   -1.6721173E+00
   5.1803270E-04   6.4283750E+04   -1.6715975E+00
   5.2042503E-04   6.3790625E+04   -1.6710784E+00
   5.2282841E-04   6.3301434E+04   -1.6705601E+00
   5.2524289E-04   6.2816144E+04   -1.6700425E+00
   5.2766851E-04   6.2334723E+04   -1.6695257E+00
   5.3010534E-04   6.1857139E+04   -1.6690097E+00
   5.3255342E-04   6.1383360E+04   -1.6684944E+00
   5.3501281E-04   6.0913354E+04   -1.6679799E+00
   5.3748356E-04   6.0447090E+04   -1.6674662E+00
   5.3996571E-04   5.9984537E+04   -1.6669532E+00
   5.4245933E-04   5.9525664E+04   -1.6664411E+00
   5.4496446E-04   5.9070441E+04   -1.6659297E+00
   5.4748117E-04   5.8618837E+04   -1.6654191E+00
   5.5000949E-04   5.8170822E+04   -1.6649093E+00
   5.5254949E-04   5.7726367E+04   -1.6644003E+00
   5.5510123E-04   5.7285442E+04   -1.6638922E+00
   5.5766474E-04   5.6848018E+04   -1.6633848E+00
   5.6024010E-04   5.6414066E+04   -1.6628782E+00
   5.6282734E-04   5.5983557E+04   -1.6623724E+00
   5.6542654E-04   5.5556463E+04   -1.6618675E+00
   5.6803774E-04   5.5132755E+04   -1.6613633E+00
   5.7066099E-04   5.4712405E+04   -1.6608600E+00
   5.7329637E-04   5.4295386E+04   -1.6603575E+00
   5.7594391E-04   5.3881671E+04   -1.6598559E+00
   5.7860368E-04   5.3471231E+04   -1.6593551E+00
   5.8127573E-04   5.3064040E+04   -1.6588551E+00
   5.8396012E-04   5.2660071E+04   -1.6583559E+00
   5.8665691E-04   5.2259298E+04   -1.6578576E+00
   5.8936616E-04   5.1861694E+04   -1.6573601E+00
   5.9208791E-04   5.1467232E+04   -1.6568635E+00
   5.9482223E-04   5.1075888E+04   -1.6563677E+00
   5.9756919E-04   5.0687635E+04   -1.6558728E+00
   6.0032882E-04   5.0302448E+04   -1.6553788E+00
   6.0310120E-04   4.9920301E+04   -1.6548856E+00
   6.0588639E-04   4.9541171E+04   -1.6543932E+00
   6.0868443E-04   4.9165031E+04   -1.6539018E+00
   6.1149540E-04   4.8791857E+04   -1.6534112E+00
   6.1431935E-04   4.8421625E+04   -1.6529214E+00
   6.1715634E-04   4.8054311E+04   -1.6524326E+00
   6.2000644E-04   4.7689890E+04   -1.6519446E+00
   6.2286969E-04   4.7328340E+04   -1.6514575E+00
