#        a       HoverH0(a)       dlogHdloga_of_a(a)
   1.0000000E-04   1.2027632E+06   -1.8627341E+00
   1.0046181E-04   1.1924859E+06   -1.8622748E+00
   1.0092575E-04   1.1822989E+06   -1.8618145E+00
   1.0139184E-04   1.1722015E+06   -1.8613533E+00
   1.0186008E-04   1.1621927E+06   -1.8608911E+00
   1.0233048E-04   1.1522719E+06   -1.8604280E+00
   1.0280305E-04   1.1424382E+06   -1.8599640E+00
   1.0327781E-04   1.1326909E+06   -1.8594990E+00
   1.0375475E-04   1.1230291E+06   -1.8590331E+00
   1.0423390E-04   1.1134521E+06   -1.8585662E+00
   1.0471527E-04   1.1039592E+06   -1.8580984E+00
   1.0519885E-04   1.0945496E+06   -1.8576296E+00
   1.0568467E-04   1.0852225E+06   -1.8571600E+00
   1.0617274E-04   1.0759772E+06   -1.8566894E+00
   1.0666305E-04   1.0668130E+06   -1.8562179E+00
   1.0715563E-04   1.0577292E+06   -1.8557454E+00
   1.0765049E-04   1.0487250E+06   -1.8552721E+00
   1.0814763E-04   1.0397997E+06   -1.8547978E+00
   1.0864707E-04   1.0309527E+06   -1.8543226E+00
   1.0914881E-04   1.0221831E+06   -1.8538464E+00
   1.0965287E-04   1.0134904E+06   -1.8533694E+00
   1.1015926E-04   1.0048738E+06   -1.8528915E+00
   1.1066799E-04   9.9633263E+05   -1.8524126E+00
   1.1117906E-04   9.8786626E+05   -1.8519329E+00
   1.1169250E-04   9.7947401E+05   -1.8514522E+00
   1.1220831E-04   9.7115520E+05   -1.8509707E+00
   1.1272650E-04   9.6290918E+05   -1.8504882E+00
   1.1324708E-04   9.5473531E+05   -1.8500049E+00
   1.1377007E-04   9.4663293E+05   -1.8495206E+00
   1.1429547E-04   9.3860141E+05   -1.8490355E+00
   1.1482330E-04   9.3064012E+05   -1.8485495E+00
   1.1535356E-04   9.2274841E+05   -1.8480626E+00
   1.1588628E-04   9.1492569E+05   -1.8475748E+00
   1.1642145E-04   9.0717132E+05   -1.8470862E+00
   1.1695910E-04   8.9948470E+05   -1.8465966E+00
   1.1749923E-04   8.9186523E+05   -1.8461062E+00
   1.1804185E-04   8.8431230E+05   -1.8456150E+00
   1.1858698E-04   8.7682531E+05   -1.8451228E+00
   1.1913463E-04   8.6940369E+05   -1.8446298E+00
   1.1968481E-04   8.6204685E+05   -1.8441359E+00
   1.2023752E-04   8.5475420E+05   -1.8436412E+00
   1.2079279E-04   8.4752519E+05   -1.8431457E+00
   1.2135063E-04   8.4035923E+05   -1.8426492E+00
   1.2191104E-04   8.3325578E+05   -1.8421519E+00
   1.2247403E-04   8.2621426E+05   -1.8416538E+00
   1.2303963E-04   8.1923412E+05   -1.8411549E+00
   1.2360784E-04   8.1231483E+05   -1.8406551E+00
   1.2417868E-04   8.0545583E+05   -1.8401544E+00
   1.2475215E-04   7.9865660E+05   -1.8396529E+00
   1.2532826E-04   7.9191658E+05   -1.8391506E+00
   1.2590704E-04   7.8523527E+05   -1.8386475E+00
   1.2648850E-04   7.7861214E+05   -1.8381436E+00
   1.2707263E-04   7.7204666E+05   -1.8376388E+00
   1.2765947E-04   7.6553832E+05   -1.8371332E+00
   1.2824901E-04   7.5908662E+05   -1.8366268E+00
   1.2884128E-04   7.5269106E+05   -1.8361196E+00
   1.2943628E-04   7.4635112E+05   -1.8356116E+00
   1.3003403E-04   7.4006632E+05   -1.8351028E+00
   1.3063454E-04   7.3383616E+05   -1.8345932E+00
   1.3123783E-04   7.2766016E+05   -1.8340828E+00
   1.3184390E-04   7.2153783E+05   -1.8335716E+00
   1.3245277E-04   7.1546870E+05   -1.8330596E+00
   1.3306445E-04   7.0945230E+05   -1.8325468E+00
   1.3367895E-04   7.0348815E+05   -1.8320332E+00
   1.3429630E-04   6.9757579E+05   -1.8315189E+00
   1.3491649E-04   6.9171476E+05   -1.8310038E+00
   1.3553955E-04   6.8590461E+05   -1.8304879E+00
   1.3616548E-04   6.8014488E+05   -1.8299713E+00
   1.3679431E-04   6.7443512E+05   -1.8294539E+00
   1.3742604E-04   6.6877489E+05   -1.8289357E+00
   1.3806069E-04   6.6316374E+05   -1.8284168E+00
   1.3869827E-04   6.5760125E+05   -1.8278971E+00
   1.3933879E-04   6.5208698E+05   -1.8273767E+00
   1.3998227E-04   6.4662050E+05   -1.8268556E+00
   1.4062872E-04   6.4120139E+05   -1.8263337E+00
   1.4127816E-04   6.3582922E+05   -1.8258110E+00
   1.4193060E-04   6.3050358E+05   -1.8252877E+00
   1.4258605E-04   6.2522405E+05   -1.8247636E+00
   1.4324453E-04   6.1999023E+05   -1.8242388E+00
   1.4390605E-04   6.1480172E+05   -1.8237132E+00
   1.4457062E-04   6.0965810E+05   -1.8231870E+00
   1.4523826E-04   6.0455898E+05   -1.8226600E+00
   1.4590899E-04   5.9950397E+05   -1.8221324E+00
   1.4658281E-04   5.9449267E+05   -1.8216040E+00
   1.4725974E-04   5.8952469E+05   -1.8210750E+00
   1.4793981E-04   5.8459966E+05   -1.8205452E+00
   1.4862301E-04   5.7971719E+05   -1.8200148E+00
   1.4930936E-04   5.7487690E+05   -1.8194836E+00
   1.4999889E-04   5.7007842E+05   -1.8189518E+00
   1.5069160E-04   5.6532138E+05   -1.8184193E+00
   1.5138751E-04   5.6060541E+05   -1.8178862E+00
   1.5208663E-04   5.5593015E+05   -1.8173524E+00
   1.5278899E-04   5.5129524E+05   -1.8168179E+00
   1.5349458E-04   5.4670031E+05   -1.8162827E+00
   1.5420343E-04   5.4214503E+05   -1.8157469E+00
   1.5491556E-04   5.3762902E+05   -1.8152105E+00
   1.5563098E-04   5.3315195E+05   -1.8146734E+00
   1.5634970E-04   5.2871348E+05   -1.8141356E+00
   1.5707174E-04   5.2431325E+05   -1.8135973E+00
   1.5779711E-04   5.1995093E+05   -1.8130582E+00
   1.5852584E-04   5.1562620E+05   -1.8125186E+00
   1.5925792E-04   5.1133870E+05   -1.8119784E+00
   1.5999339E-04   5.0708812E+05   -1.8114375E+00
   1.6073226E-04   5.0287412E+05   -1.8108960E+00
   1.6147454E-04   4.9869639E+05   -1.8103539E+00
   1.6222024E-04   4.9455460E+05   -1.8098112E+00
   1.6296939E-04   4.9044844E+05   -1.8092679E+00
   1.6372200E-04   4.8637759E+05   -1.8087240E+00
   1.6447809E-04   4.8234174E+05   -1.8081795E+00
   1.6523767E-04   4.7834058E+05   -1.8076345E+00
   1.6600075E-04   4.7437380E+05   -1.8070888E+00
   1.6676736E-04   4.7044110E+05   -1.8065426E+00
   1.6753751E-04   4.6654217E+05   -1.8059958E+00
   1.6831122E-04   4.6267673E+05   -1.8054485E+00
   1.6908849E-04   4.5884447E+05   -1.8049006E+00
   1.6986936E-04   4.5504510E+05   -1.8043521E+00
   1.7065384E-04   4.5127833E+05   -1.8038031E+00
   1.7144193E-04   4.4754388E+05   -1.8032535E+00
   1.7223367E-04   4.4384145E+05   -1.8027034E+00
   1.7302906E-04   4.4017077E+05   -1.8021528E+00
   1.7382813E-04   4.3653156E+05   -1.8016016E+00
   1.7463089E-04   4.3292353E+05   -1.8010499E+00
   1.7543735E-04   4.2934641E+05   -1.8004977E+00
   1.7624754E-04   4.2579994E+05   -1.7999450E+00
   1.7706147E-04   4.2228384E+05   -1.7993917E+00
   1.7787916E-04   4.1879784E+05   -1.7988380E+00
   1.7870062E-04   4.1534167E+05   -1.7982838E+00
   1.7952588E-04   4.1191509E+05   -1.7977290E+00
   1.8035495E-04   4.0851781E+05   -1.7971738E+00
   1.8118785E-04   4.0514959E+05   -1.7966181E+00
   1.8202459E-04   4.0181017E+05   -1.7960619E+00
   1.8286520E-04   3.9849930E+05   -1.7955053E+00
   1.8370969E-04   3.9521672E+05   -1.7949482E+00
   1.8455808E-04   3.9196219E+05   -1.7943906E+00
   1.8541039E-04   3.8873546E+05   -1.7938325E+00
   1.8626663E-04   3.8553629E+05   -1.7932740E+00
   1.8712683E-04   3.8236443E+05   -1.7927151E+00
   1.8799100E-04   3.7921963E+05   -1.7921557E+00
   1.8885917E-04   3.7610168E+05   -1.7915959E+00
   1.8973134E-04   3.7301032E+05   -1.7910357E+00
   1.9060754E-04   3.6994533E+05   -1.7904750E+00
   1.9148778E-04   3.6690646E+05   -1.7899139E+00
   1.9237209E-04   3.6389351E+05   -1.7893524E+00
   1.9326049E-04   3.6090623E+05   -1.7887905E+00
   1.9415299E-04   3.5794439E+05   -1.7882282E+00
   1.9504960E-04   3.5500779E+05   -1.7876655E+00
   1.9595036E-04   3.5209619E+05   -1.7871024E+00
   1.9685528E-04   3.4920938E+05   -1.7865389E+00
   1.9776438E-04   3.4634713E+05   -1.7859751E+00
   1.9867768E-04   3.4350924E+05   -1.7854108E+00
   1.9959519E-04   3.4069549E+05   -1.7848462E+00
   2.0051694E-04   3.3790566E+05   -1.7842813E+00
   2.0144295E-04   3.3513955E+05   -1.7837159E+00
   2.0237324E-04   3.3239695E+05   -1.7831503E+00
   2.0330782E-04   3.2967766E+05   -1.7825842E+00
   2.0424671E-04   3.2698146E+05   -1.7820179E+00
   2.0518995E-04   3.2430816E+05   -1.7814512E+00
   2.0613754E-04   3.2165756E+05   -1.7808842E+00
   2.0708950E-04   3.1902945E+05   -1.7803168E+00
   2.0804586E-04   3.1642365E+05   -1.7797491E+00
   2.0900664E-04   3.1383995E+05   -1.7791812E+00
   2.0997185E-04   3.1127816E+05   -1.7786129E+00
   2.1094152E-04   3.0873809E+05   -1.7780443E+00
   2.1191567E-04   3.0621955E+05   -1.7774754E+00
   2.1289432E-04   3.0372235E+05   -1.7769063E+00
   2.1387749E-04   3.0124631E+05   -1.7763368E+00
   2.1486520E-04   2.9879124E+05   -1.7757671E+00
   2.1585747E-04   2.9635695E+05   -1.7751971E+00
   2.1685432E-04   2.9394326E+05   -1.7746268E+00
   2.1785578E-04   2.9155001E+05   -1.7740563E+00
   2.1886186E-04   2.8917699E+05   -1.7734855E+00
   2.1987259E-04   2.8682405E+05   -1.7729145E+00
   2.2088798E-04   2.8449100E+05   -1.7723433E+00
   2.2190807E-04   2.8217767E+05   -1.7717718E+00
   2.2293286E-04   2.7988389E+05   -1.7712000E+00
   2.2396239E-04   2.7760949E+05   -1.7706281E+00
   2.2499667E-04   2.7535429E+05   -1.7700559E+00
   2.2603573E-04   2.7311813E+05   -1.7694835E+00
   2.2707958E-04   2.7090085E+05   -1.7689109E+00
   2.2812826E-04   2.6870228E+05   -1.7683381E+00
   2.2918178E-04   2.6652226E+05   -1.7677652E+00
   2.3024017E-04   2.6436062E+05   -1.7671920E+00
   2.3130344E-04   2.6221720E+05   -1.7666186E+00
   2.3237162E-04   2.6009185E+05   -1.7660451E+00
   2.3344474E-04   2.5798441E+05   -1.7654714E+00
   2.3452281E-04   2.5589472E+05   -1.7648976E+00
   2.3560586E-04   2.5382263E+05   -1.7643235E+00
   2.3669392E-04   2.5176798E+05   -1.7637494E+00
   2.3778699E-04   2.4973063E+05   -1.7631750E+00
   2.3888512E-04   2.4771042E+05   -1.7626006E+00
   2.3998831E-04   2.4570720E+05   -1.7620260E+00
   2.4109661E-04   2.4372083E+05   -1.7614513E+00
   2.4221001E-04   2.4175115E+05   -1.7608764E+00
   2.4332857E-04   2.3979803E+05   -1.7603015E+00
   2.4445228E-04   2.3786132E+05   -1.7597264E+00
   2.4558119E-04   2.3594088E+05   -1.7591513E+00
   2.4671531E-04   2.3403656E+05   -1.7585760E+00
   2.4785467E-04   2.3214822E+05   -1.7580006E+00
   2.4899928E-04   2.3027574E+05   -1.7574252E+00
   2.5014919E-04   2.2841896E+05   -1.7568497E+00
   2.5130440E-04   2.2657775E+05   -1.7562741E+00
   2.5246495E-04   2.2475199E+05   -1.7556984E+00
   2.5363086E-04   2.2294152E+05   -1.7551227E+00
   2.5480216E-04   2.2114623E+05   -1.7545469E+00
   2.5597886E-04   2.1936597E+05   -1.7539711E+00
   2.5716100E-04   2.1760063E+05   -1.7533952E+00
   2.5834859E-04   2.1585006E+05   -1.7528193E+00
   2.5954168E-04   2.1411414E+05   -1.7522434E+00
   2.6074027E-04   2.1239275E+05   -1.7516674E+00
   2.6194439E-04   2.1068576E+05   -1.7510914E+00
   2.6315408E-04   2.0899304E+05   -1.7505154E+00
   2.6436935E-04   2.0731447E+05   -1.7499394E+00
   2.6559024E-04   2.0564993E+05   -1.7493634E+00
   2.6681676E-04   2.0399929E+05   -1.7487875E+00
   2.6804895E-04   2.0236244E+05   -1.7482115E+00
   2.6928683E-04   2.0073926E+05   -1.7476355E+00
   2.7053042E-04   1.9912963E+05   -1.7470596E+00
   2.7177976E-04   1.9753342E+05   -1.7464837E+00
   2.7303487E-04   1.9595053E+05   -1.7459078E+00
   2.7429577E-04   1.9438084E+05   -1.7453320E+00
   2.7556250E-04   1.9282424E+05   -1.7447562E+00
   2.7683507E-04   1.9128061E+05   -1.7441805E+00
   2.7811353E-04   1.8974984E+05   -1.7436048E+00
   2.7939788E-04   1.8823182E+05   -1.7430293E+00
   2.8068817E-04   1.8672644E+05   -1.7424537E+00
   2.8198442E-04   1.8523359E+05   -1.7418783E+00
   2.8328665E-04   1.8375316E+05   -1.7413029E+00
   2.8459490E-04   1.8228505E+05   -1.7407277E+00
   2.8590919E-04   1.8082914E+05   -1.7401525E+00
   2.8722955E-04   1.7938534E+05   -1.7395775E+00
   2.8855600E-04   1.7795354E+05   -1.7390025E+00
   2.8988859E-04   1.7653363E+05   -1.7384277E+00
   2.9122732E-04   1.7512552E+05   -1.7378530E+00
   2.9257224E-04   1.7372910E+05   -1.7372784E+00
   2.9392337E-04   1.7234427E+05   -1.7367039E+00
   2.9528074E-04   1.7097093E+05   -1.7361296E+00
   2.9664438E-04   1.6960899E+05   -1.7355555E+00
   2.9801431E-04   1.6825833E+05   -1.7349815E+00
   2.9939057E-04   1.6691888E+05   -1.7344076E+00
   3.0077319E-04   1.6559052E+05   -1.7338339E+00
   3.0216219E-04   1.6427318E+05   -1.7332604E+00
   3.0355761E-04   1.6296674E+05   -1.7326871E+00
   3.0495947E-04   1.6167112E+05   -1.7321139E+00
   3.0636780E-04   1.6038622E+05   -1.7315410E+00
   3.0778264E-04   1.5911195E+05   -1.7309682E+00
   3.0920401E-04   1.5784823E+05   -1.7303956E+00
   3.1063195E-04   1.5659495E+05   -1.7298232E+00
   3.1206648E-04   1.5535204E+05   -1.7292511E+00
   3.1350764E-04   1.5411940E+05   -1.7286791E+00
   3.1495545E-04   1.5289694E+05   -1.7281074E+00
   3.1640994E-04   1.5168457E+05   -1.7275360E+00
   3.1787116E-04   1.5048222E+05   -1.7269647E+00
   3.1933912E-04   1.4928979E+05   -1.7263937E+00
   3.2081386E-04   1.4810719E+05   -1.7258229E+00
   3.2229541E-04   1.4693436E+05   -1.7252524E+00
   3.2378381E-04   1.4577119E+05   -1.7246822E+00
   3.2527908E-04   1.4461761E+05   -1.7241122E+00
   3.2678125E-04   1.4347353E+05   -1.7235425E+00
   3.2829036E-04   1.4233888E+05   -1.7229731E+00
   3.2980644E-04   1.4121358E+05   -1.7224039E+00
   3.3132952E-04   1.4009753E+05   -1.7218351E+00
   3.3285963E-04   1.3899068E+05   -1.7212665E+00
   3.3439681E-04   1.3789292E+05   -1.7206983E+00
   3.3594109E-04   1.3680420E+05   -1.7201303E+00
   3.3749250E-04   1.3572443E+05   -1.7195626E+00
   3.3905108E-04   1.3465353E+05   -1.7189953E+00
   3.4061685E-04   1.3359143E+05   -1.7184283E+00
   3.4218986E-04   1.3253805E+05   -1.7178616E+00
   3.4377013E-04   1.3149333E+05   -1.7172953E+00
   3.4535769E-04   1.3045718E+05   -1.7167293E+00
   3.4695259E-04   1.2942953E+05   -1.7161637E+00
   3.4855485E-04   1.2841031E+05   -1.7155984E+00
   3.5016452E-04   1.2739944E+05   -1.7150334E+00
   3.5178161E-04   1.2639687E+05   -1.7144688E+00
   3.5340618E-04   1.2540251E+05   -1.7139046E+00
   3.5503824E-04   1.2441630E+05   -1.7133408E+00
   3.5667785E-04   1.2343816E+05   -1.7127773E+00
   3.5832502E-04   1.2246803E+05   -1.7122143E+00
   3.5997981E-04   1.2150584E+05   -1.7116516E+00
   3.6164223E-04   1.2055152E+05   -1.7110893E+00
   3.6331233E-04   1.1960501E+05   -1.7105274E+00
   3.6499015E-04   1.1866624E+05   -1.7099659E+00
   3.6667571E-04   1.1773514E+05   -1.7094049E+00
   3.6836906E-04   1.1681164E+05   -1.7088443E+00
   3.7007022E-04   1.1589569E+05   -1.7082840E+00
   3.7177925E-04   1.1498722E+05   -1.7077243E+00
   3.7349616E-04   1.1408616E+05   -1.7071649E+00
   3.7522101E-04   1.1319246E+05   -1.7066060E+00
   3.7695382E-04   1.1230605E+05   -1.7060475E+00
   3.7869463E-04   1.1142686E+05   -1.7054895E+00
   3.8044348E-04   1.1055484E+05   -1.7049320E+00
   3.8220041E-04   1.0968993E+05   -1.7043749E+00
   3.8396545E-04   1.0883206E+05   -1.7038183E+00
   3.8573864E-04   1.0798118E+05   -1.7032621E+00
   3.8752002E-04   1.0713723E+05   -1.7027064E+00
   3.8930963E-04   1.0630014E+05   -1.7021512E+00
   3.9110750E-04   1.0546986E+05   -1.7015965E+00
   3.9291368E-04   1.0464634E+05   -1.7010423E+00
   3.9472820E-04   1.0382951E+05   -1.7004886E+00
   3.9655109E-04   1.0301932E+05   -1.6999354E+00
   3.9838241E-04   1.0221571E+05   -1.6993827E+00
   4.0022218E-04   1.0141863E+05   -1.6988305E+00
   4.0207045E-04   1.0062802E+05   -1.6982789E+00
   4.0392725E-04   9.9843832E+04   -1.6977278E+00
   4.0579263E-04   9.9066003E+04   -1.6971771E+00
   4.0766662E-04   9.8294482E+04   -1.6966271E+00
   4.0954927E-04   9.7529217E+04   -1.6960775E+00
   4.1144061E-04   9.6770155E+04   -1.6955286E+00
   4.1334068E-04   9.6017243E+04   -1.6949801E+00
   4.1524953E-04   9.5270429E+04   -1.6944322E+00
   4.1716720E-04   9.4529663E+04   -1.6938849E+00
   4.1909372E-04   9.3794893E+04   -1.6933382E+00
   4.2102914E-04   9.3066069E+04   -1.6927920E+00
   4.2297350E-04   9.2343140E+04   -1.6922464E+00
   4.2492683E-04   9.1626056E+04   -1.6917013E+00
   4.2688919E-04   9.0914770E+04   -1.6911569E+00
   4.2886061E-04   9.0209232E+04   -1.6906130E+00
   4.3084113E-04   8.9509393E+04   -1.6900698E+00
   4.3283080E-04   8.8815205E+04   -1.6895271E+00
   4.3482966E-04   8.8126622E+04   -1.6889851E+00
   4.3683775E-04   8.7443595E+04   -1.6884436E+00
   4.3885511E-04   8.6766078E+04   -1.6879028E+00
   4.4088179E-04   8.6094026E+04   -1.6873626E+00
   4.4291783E-04   8.5427391E+04   -1.6868230E+00
   4.4496327E-04   8.4766128E+04   -1.6862840E+00
   4.4701816E-04   8.4110193E+04   -1.6857456E+00
   4.4908253E-04   8.3459541E+04   -1.6852079E+00
   4.5115644E-04   8.2814126E+04   -1.6846709E+00
   4.5323993E-04   8.2173907E+04   -1.6841345E+00
   4.5533304E-04   8.1538838E+04   -1.6835987E+00
   4.5743582E-04   8.0908877E+04   -1.6830636E+00
   4.5954830E-04   8.0283980E+04   -1.6825291E+00
   4.6167054E-04   7.9664106E+04   -1.6819953E+00
   4.6380259E-04   7.9049213E+04   -1.6814622E+00
   4.6594448E-04   7.8439258E+04   -1.6809298E+00
   4.6809626E-04   7.7834200E+04   -1.6803980E+00
   4.7025797E-04   7.7233999E+04   -1.6798669E+00
   4.7242967E-04   7.6638613E+04   -1.6793365E+00
   4.7461140E-04   7.6048003E+04   -1.6788068E+00
   4.7680321E-04   7.5462128E+04   -1.6782777E+00
   4.7900514E-04   7.4880949E+04   -1.6777494E+00
   4.8121723E-04   7.4304428E+04   -1.6772218E+00
   4.8343954E-04   7.3732524E+04   -1.6766949E+00
   4.8567212E-04   7.3165199E+04   -1.6761687E+00
   4.8791500E-04   7.2602416E+04   -1.6756432E+00
   4.9016825E-04   7.2044135E+04   -1.6751184E+00
   4.9243189E-04   7.1490321E+04   -1.6745944E+00
   4.9470600E-04   7.0940934E+04   -1.6740710E+00
   4.9699060E-04   7.0395940E+04   -1.6735484E+00
   4.9928575E-04   6.9855300E+04   -1.6730266E+00
   5.0159151E-04   6.9318979E+04   -1.6725055E+00
   5.0390791E-04   6.8786940E+04   -1.6719851E+00
   5.0623501E-04   6.8259149E+04   -1.6714654E+00
   5.0857286E-04   6.7735569E+04   -1.6709466E+00
   5.1092150E-04   6.7216166E+04   -1.6704284E+00
   5.1328099E-04   6.6700905E+04   -1.6699111E+00
   5.1565137E-04   6.6189752E+04   -1.6693945E+00
   5.1803270E-04   6.5682672E+04   -1.6688786E+00
   5.2042503E-04   6.5179631E+04   -1.6683636E+00
   5.2282841E-04   6.4680597E+04   -1.6678493E+00
   5.2524289E-04   6.4185535E+04   -1.6673357E+00
   5.2766851E-04   6.3694413E+04   -1.6668230E+00
   5.3010534E-04   6.3207198E+04   -1.6663110E+00
   5.3255342E-04   6.2723857E+04   -1.6657999E+00
   5.3501281E-04   6.2244360E+04   -1.6652895E+00
   5.3748356E-04   6.1768672E+04   -1.6647799E+00
   5.3996571E-04   6.1296764E+04   -1.6642711E+00
   5.4245933E-04   6.0828604E+04   -1.6637632E+00
   5.4496446E-04   6.0364161E+04   -1.6632560E+00
   5.4748117E-04   5.9903404E+04   -1.6627496E+00
   5.5000949E-04   5.9446302E+04   -1.6622441E+00
   5.5254949E-04   5.8992826E+04   -1.6617393E+00
   5.5510123E-04   5.8542944E+04   -1.6612354E+00
   5.5766474E-04   5.8096629E+04   -1.6607323E+00
   5.6024010E-04   5.7653849E+04   -1.6602301E+00
   5.6282734E-04   5.7214577E+04   -1.6597286E+00
   5.6542654E-04   5.6778782E+04   -1.6592280E+00
   5.6803774E-04   5.6346437E+04   -1.6587283E+00
   5.7066099E-04   5.5917512E+04   -1.6582293E+00
   5.7329637E-04   5.5491980E+04   -1.6577312E+00
   5.7594391E-04   5.5069812E+04   -1.6572340E+00
   5.7860368E-04   5.4650982E+04   -1.6567376E+00
   5.8127573E-04   5.4235460E+04   -1.6562421E+00
   5.8396012E-04   5.3823221E+04   -1.6557474E+00
   5.8665691E-04   5.3414237E+04   -1.6552535E+00
   5.8936616E-04   5.3008481E+04   -1.6547606E+00
   5.9208791E-04   5.2605927E+04   -1.6542684E+00
   5.9482223E-04   5.2206548E+04   -1.6537772E+00
   5.9756919E-04   5.1810318E+04   -1.6532868E+00
   6.0032882E-04   5.1417211E+04   -1.6527973E+00
   6.0310120E-04   5.1027202E+04   -1.6523087E+00
   6.0588639E-04   5.0640266E+04   -1.6518210E+00
   6.0868443E-04   5.0256376E+04   -1.6513341E+00
   6.1149540E-04   4.9875508E+04   -1.6508481E+00
   6.1431935E-04   4.9497638E+04   -1.6503630E+00
   6.1715634E-04   4.9122740E+04   -1.6498788E+00
   6.2000644E-04   4.8750790E+04   -1.6493955E+00
   6.2286969E-04   4.8381764E+04   -1.6489131E+00
