#        a       HoverH0(a)       dlogHdloga_of_a(a)
   1.0000000E-04   1.1771008E+06   -1.8855128E+00
   1.0046181E-04   1.1669202E+06   -1.8851055E+00
   1.0092575E-04   1.1568298E+06   -1.8846973E+00
   1.0139184E-04   1.1468288E+06   -1.8842880E+00
   1.0186008E-04   1.1369164E+06   -1.8838777E+00
   1.0233048E-04   1.1270919E+06   -1.8834664E+00
   1.0280305E-04   1.1173543E+06   -1.8830541E+00
   1.0327781E-04   1.1077030E+06   -1.8826408E+00
   1.0375475E-04   1.0981372E+06   -1.8822265E+00
   1.0423390E-04   1.0886560E+06   -1.8818111E+00
   1.0471527E-04   1.0792587E+06   -1.8813948E+00
   1.0519885E-04   1.0699447E+06   -1.8809774E+00
   1.0568467E-04   1.0607130E+06   -1.8805591E+00
   1.0617274E-04   1.0515631E+06   -1.8801397E+00
   1.0666305E-04   1.0424940E+06   -1.8797193E+00
   1.0715563E-04   1.0335052E+06   -1.8792979E+00
   1.0765049E-04   1.0245959E+06   -1.8788755E+00
   1.0814763E-04   1.0157654E+06   -1.8784521E+00
   1.0864707E-04   1.0070130E+06   -1.8780277E+00
   1.0914881E-04   9.9833789E+05   -1.8776023E+00
   1.0965287E-04   9.8973949E+05   -1.8771759E+00
   1.1015926E-04   9.8121707E+05   -1.8767485E+00
   1.1066799E-04   9.7276996E+05   -1.8763201E+00
   1.1117906E-04   9.6439747E+05   -1.8758907E+00
   1.1169250E-04   9.5609893E+05   -1.8754602E+00
   1.1220831E-04   9.4787369E+05   -1.8750288E+00
   1.1272650E-04   9.3972107E+05   -1.8745964E+00
   1.1324708E-04   9.3164044E+05   -1.8741630E+00
   1.1377007E-04   9.2363114E+05   -1.8737287E+00
   1.1429547E-04   9.1569253E+05   -1.8732933E+00
   1.1482330E-04   9.0782397E+05   -1.8728569E+00
   1.1535356E-04   9.0002484E+05   -1.8724196E+00
   1.1588628E-04   8.9229451E+05   -1.8719812E+00
   1.1642145E-04   8.8463237E+05   -1.8715419E+00
   1.1695910E-04   8.7703780E+05   -1.8711016E+00
   1.1749923E-04   8.6951019E+05   -1.8706603E+00
   1.1804185E-04   8.6204895E+05   -1.8702180E+00
   1.1858698E-04   8.5465347E+05   -1.8697747E+00
   1.1913463E-04   8.4732318E+05   -1.8693305E+00
   1.1968481E-04   8.4005747E+05   -1.8688852E+00
   1.2023752E-04   8.3285578E+05   -1.8684390E+00
   1.2079279E-04   8.2571753E+05   -1.8679919E+00
   1.2135063E-04   8.1864215E+05   -1.8675437E+00
   1.2191104E-04   8.1162907E+05   -1.8670946E+00
   1.2247403E-04   8.0467774E+05   -1.8666445E+00
   1.2303963E-04   7.9778760E+05   -1.8661934E+00
   1.2360784E-04   7.9095811E+05   -1.8657414E+00
   1.2417868E-04   7.8418871E+05   -1.8652884E+00
   1.2475215E-04   7.7747887E+05   -1.8648345E+00
   1.2532826E-04   7.7082806E+05   -1.8643796E+00
   1.2590704E-04   7.6423575E+05   -1.8639237E+00
   1.2648850E-04   7.5770140E+05   -1.8634668E+00
   1.2707263E-04   7.5122451E+05   -1.8630090E+00
   1.2765947E-04   7.4480456E+05   -1.8625503E+00
   1.2824901E-04   7.3844104E+05   -1.8620906E+00
   1.2884128E-04   7.3213344E+05   -1.8616299E+00
   1.2943628E-04   7.2588125E+05   -1.8611683E+00
   1.3003403E-04   7.1968400E+05   -1.8607058E+00
   1.3063454E-04   7.1354117E+05   -1.8602423E+00
   1.3123783E-04   7.0745229E+05   -1.8597779E+00
   1.3184390E-04   7.0141686E+05   -1.8593125E+00
   1.3245277E-04   6.9543442E+05   -1.8588462E+00
   1.3306445E-04   6.8950449E+05   -1.8583789E+00
   1.3367895E-04   6.8362660E+05   -1.8579107E+00
   1.3429630E-04   6.7780027E+05   -1.8574416E+00
   1.3491649E-04   6.7202506E+05   -1.8569716E+00
   1.3553955E-04   6.6630050E+05   -1.8565006E+00
   1.3616548E-04   6.6062613E+05   -1.8560287E+00
   1.3679431E-04   6.5500152E+05   -1.8555559E+00
   1.3742604E-04   6.4942622E+05   -1.8550821E+00
   1.3806069E-04   6.4389977E+05   -1.8546075E+00
   1.3869827E-04   6.3842175E+05   -1.8541319E+00
   1.3933879E-04   6.3299173E+05   -1.8536554E+00
   1.3998227E-04   6.2760927E+05   -1.8531780E+00
   1.4062872E-04   6.2227394E+05   -1.8526997E+00
   1.4127816E-04   6.1698533E+05   -1.8522205E+00
   1.4193060E-04   6.1174303E+05   -1.8517403E+00
   1.4258605E-04   6.0654660E+05   -1.8512593E+00
   1.4324453E-04   6.0139565E+05   -1.8507774E+00
   1.4390605E-04   5.9628977E+05   -1.8502946E+00
   1.4457062E-04   5.9122856E+05   -1.8498109E+00
   1.4523826E-04   5.8621161E+05   -1.8493262E+00
   1.4590899E-04   5.8123854E+05   -1.8488408E+00
   1.4658281E-04   5.7630894E+05   -1.8483544E+00
   1.4725974E-04   5.7142243E+05   -1.8478671E+00
   1.4793981E-04   5.6657863E+05   -1.8473790E+00
   1.4862301E-04   5.6177716E+05   -1.8468900E+00
   1.4930936E-04   5.5701762E+05   -1.8464001E+00
   1.4999889E-04   5.5229967E+05   -1.8459093E+00
   1.5069160E-04   5.4762291E+05   -1.8454177E+00
   1.5138751E-04   5.4298698E+05   -1.8449252E+00
   1.5208663E-04   5.3839152E+05   -1.8444318E+00
   1.5278899E-04   5.3383617E+05   -1.8439376E+00
   1.5349458E-04   5.2932057E+05   -1.8434425E+00
   1.5420343E-04   5.2484437E+05   -1.8429466E+00
   1.5491556E-04   5.2040721E+05   -1.8424498E+00
   1.5563098E-04   5.1600874E+05   -1.8419522E+00
   1.5634970E-04   5.1164862E+05   -1.8414537E+00
   1.5707174E-04   5.0732651E+05   -1.8409544E+00
   1.5779711E-04   5.0304207E+05   -1.8404542E+00
   1.5852584E-04   4.9879496E+05   -1.8399533E+00
   1.5925792E-04   4.9458486E+05   -1.8394514E+00
   1.5999339E-04   4.9041142E+05   -1.8389488E+00
   1.6073226E-04   4.8627432E+05   -1.8384453E+00
   1.6147454E-04   4.8217325E+05   -1.8379410E+00
   1.6222024E-04   4.7810787E+05   -1.8374359E+00
   1.6296939E-04   4.7407788E+05   -1.8369300E+00
   1.6372200E-04   4.7008295E+05   -1.8364233E+00
   1.6447809E-04   4.6612278E+05   -1.8359157E+00
   1.6523767E-04   4.6219705E+05   -1.8354074E+00
   1.6600075E-04   4.5830545E+05   -1.8348982E+00
   1.6676736E-04   4.5444769E+05   -1.8343883E+00
   1.6753751E-04   4.5062347E+05   -1.8338775E+00
   1.6831122E-04   4.4683247E+05   -1.8333660E+00
   1.6908849E-04   4.4307441E+05   -1.8328537E+00
   1.6986936E-04   4.3934900E+05   -1.8323406E+00
   1.7065384E-04   4.3565594E+05   -1.8318267E+00
   1.7144193E-04   4.3199495E+05   -1.8313121E+00
   1.7223367E-04   4.2836574E+05   -1.8307966E+00
   1.7302906E-04   4.2476803E+05   -1.8302804E+00
   1.7382813E-04   4.2120154E+05   -1.8297635E+00
   1.7463089E-04   4.1766598E+05   -1.8292457E+00
   1.7543735E-04   4.1416110E+05   -1.8287273E+00
   1.7624754E-04   4.1068661E+05   -1.8282080E+00
   1.7706147E-04   4.0724224E+05   -1.8276880E+00
   1.7787916E-04   4.0382772E+05   -1.8271673E+00
   1.7870062E-04   4.0044280E+05   -1.8266459E+00
   1.7952588E-04   3.9708720E+05   -1.8261236E+00
   1.8035495E-04   3.9376068E+05   -1.8256007E+00
   1.8118785E-04   3.9046295E+05   -1.8250770E+00
   1.8202459E-04   3.8719379E+05   -1.8245526E+00
   1.8286520E-04   3.8395292E+05   -1.8240275E+00
   1.8370969E-04   3.8074010E+05   -1.8235017E+00
   1.8455808E-04   3.7755508E+05   -1.8229752E+00
   1.8541039E-04   3.7439762E+05   -1.8224479E+00
   1.8626663E-04   3.7126746E+05   -1.8219199E+00
   1.8712683E-04   3.6816437E+05   -1.8213913E+00
   1.8799100E-04   3.6508810E+05   -1.8208619E+00
   1.8885917E-04   3.6203842E+05   -1.8203319E+00
   1.8973134E-04   3.5901509E+05   -1.8198011E+00
   1.9060754E-04   3.5601788E+05   -1.8192697E+00
   1.9148778E-04   3.5304656E+05   -1.8187376E+00
   1.9237209E-04   3.5010090E+05   -1.8182048E+00
   1.9326049E-04   3.4718066E+05   -1.8176714E+00
   1.9415299E-04   3.4428563E+05   -1.8171373E+00
   1.9504960E-04   3.4141559E+05   -1.8166025E+00
   1.9595036E-04   3.3857030E+05   -1.8160671E+00
   1.9685528E-04   3.3574955E+05   -1.8155310E+00
   1.9776438E-04   3.3295313E+05   -1.8149943E+00
   1.9867768E-04   3.3018082E+05   -1.8144569E+00
   1.9959519E-04   3.2743239E+05   -1.8139189E+00
   2.0051694E-04   3.2470766E+05   -1.8133802E+00
   2.0144295E-04   3.2200639E+05   -1.8128410E+00
   2.0237324E-04   3.1932840E+05   -1.8123011E+00
   2.0330782E-04   3.1667346E+05   -1.8117605E+00
   2.0424671E-04   3.1404138E+05   -1.8112194E+00
   2.0518995E-04   3.1143195E+05   -1.8106777E+00
   2.0613754E-04   3.0884497E+05   -1.8101353E+00
   2.0708950E-04   3.0628025E+05   -1.8095923E+00
   2.0804586E-04   3.0373759E+05   -1.8090488E+00
   2.0900664E-04   3.0121680E+05   -1.8085046E+00
   2.0997185E-04   2.9871767E+05   -1.8079599E+00
   2.1094152E-04   2.9624002E+05   -1.8074146E+00
   2.1191567E-04   2.9378366E+05   -1.8068687E+00
   2.1289432E-04   2.9134840E+05   -1.8063222E+00
   2.1387749E-04   2.8893406E+05   -1.8057752E+00
   2.1486520E-04   2.8654044E+05   -1.8052276E+00
   2.1585747E-04   2.8416737E+05   -1.8046794E+00
   2.1685432E-04   2.8181467E+05   -1.8041307E+00
   2.1785578E-04   2.7948215E+05   -1.8035815E+00
   2.1886186E-04   2.7716964E+05   -1.8030317E+00
   2.1987259E-04   2.7487696E+05   -1.8024813E+00
   2.2088798E-04   2.7260394E+05   -1.8019305E+00
   2.2190807E-04   2.7035040E+05   -1.8013791E+00
   2.2293286E-04   2.6811617E+05   -1.8008271E+00
   2.2396239E-04   2.6590108E+05   -1.8002747E+00
   2.2499667E-04   2.6370497E+05   -1.7997217E+00
   2.2603573E-04   2.6152766E+05   -1.7991683E+00
   2.2707958E-04   2.5936898E+05   -1.7986143E+00
   2.2812826E-04   2.5722878E+05   -1.7980599E+00
   2.2918178E-04   2.5510690E+05   -1.7975049E+00
   2.3024017E-04   2.5300316E+05   -1.7969495E+00
   2.3130344E-04   2.5091742E+05   -1.7963936E+00
   2.3237162E-04   2.4884950E+05   -1.7958372E+00
   2.3344474E-04   2.4679927E+05   -1.7952803E+00
   2.3452281E-04   2.4476655E+05   -1.7947230E+00
   2.3560586E-04   2.4275120E+05   -1.7941652E+00
   2.3669392E-04   2.4075306E+05   -1.7936069E+00
   2.3778699E-04   2.3877198E+05   -1.7930482E+00
   2.3888512E-04   2.3680782E+05   -1.7924891E+00
   2.3998831E-04   2.3486042E+05   -1.7919295E+00
   2.4109661E-04   2.3292963E+05   -1.7913695E+00
   2.4221001E-04   2.3101531E+05   -1.7908091E+00
   2.4332857E-04   2.2911732E+05   -1.7902482E+00
   2.4445228E-04   2.2723550E+05   -1.7896869E+00
   2.4558119E-04   2.2536973E+05   -1.7891252E+00
   2.4671531E-04   2.2351985E+05   -1.7885632E+00
   2.4785467E-04   2.2168574E+05   -1.7880007E+00
   2.4899928E-04   2.1986724E+05   -1.7874378E+00
   2.5014919E-04   2.1806423E+05   -1.7868745E+00
   2.5130440E-04   2.1627656E+05   -1.7863108E+00
   2.5246495E-04   2.1450411E+05   -1.7857468E+00
   2.5363086E-04   2.1274673E+05   -1.7851824E+00
   2.5480216E-04   2.1100430E+05   -1.7846176E+00
   2.5597886E-04   2.0927669E+05   -1.7840525E+00
   2.5716100E-04   2.0756376E+05   -1.7834870E+00
   2.5834859E-04   2.0586539E+05   -1.7829211E+00
   2.5954168E-04   2.0418145E+05   -1.7823550E+00
   2.6074027E-04   2.0251181E+05   -1.7817884E+00
   2.6194439E-04   2.0085635E+05   -1.7812216E+00
   2.6315408E-04   1.9921494E+05   -1.7806544E+00
   2.6436935E-04   1.9758746E+05   -1.7800869E+00
   2.6559024E-04   1.9597379E+05   -1.7795191E+00
   2.6681676E-04   1.9437381E+05   -1.7789509E+00
   2.6804895E-04   1.9278739E+05   -1.7783825E+00
   2.6928683E-04   1.9121443E+05   -1.7778138E+00
   2.7053042E-04   1.8965479E+05   -1.7772448E+00
   2.7177976E-04   1.8810837E+05   -1.7766754E+00
   2.7303487E-04   1.8657505E+05   -1.7761059E+00
   2.7429577E-04   1.8505471E+05   -1.7755360E+00
   2.7556250E-04   1.8354724E+05   -1.7749659E+00
   2.7683507E-04   1.8205253E+05   -1.7743955E+00
   2.7811353E-04   1.8057047E+05   -1.7738248E+00
   2.7939788E-04   1.7910094E+05   -1.7732539E+00
   2.8068817E-04   1.7764385E+05   -1.7726828E+00
   2.8198442E-04   1.7619906E+05   -1.7721114E+00
   2.8328665E-04   1.7476649E+05   -1.7715397E+00
   2.8459490E-04   1.7334603E+05   -1.7709679E+00
   2.8590919E-04   1.7193756E+05   -1.7703958E+00
   2.8722955E-04   1.7054099E+05   -1.7698235E+00
   2.8855600E-04   1.6915620E+05   -1.7692510E+00
   2.8988859E-04   1.6778310E+05   -1.7686783E+00
   2.9122732E-04   1.6642159E+05   -1.7681054E+00
   2.9257224E-04   1.6507156E+05   -1.7675324E+00
   2.9392337E-04   1.6373292E+05   -1.7669591E+00
   2.9528074E-04   1.6240556E+05   -1.7663856E+00
   2.9664438E-04   1.6108939E+05   -1.7658120E+00
   2.9801431E-04   1.5978430E+05   -1.7652382E+00
   2.9939057E-04   1.5849021E+05   -1.7646642E+00
   3.0077319E-04   1.5720702E+05   -1.7640901E+00
   3.0216219E-04   1.5593462E+05   -1.7635159E+00
   3.0355761E-04   1.5467294E+05   -1.7629414E+00
   3.0495947E-04   1.5342187E+05   -1.7623669E+00
   3.0636780E-04   1.5218132E+05   -1.7617922E+00
   3.0778264E-04   1.5095120E+05   -1.7612174E+00
   3.0920401E-04   1.4973142E+05   -1.7606425E+00
   3.1063195E-04   1.4852189E+05   -1.7600675E+00
   3.1206648E-04   1.4732252E+05   -1.7594923E+00
   3.1350764E-04   1.4613323E+05   -1.7589171E+00
   3.1495545E-04   1.4495392E+05   -1.7583417E+00
   3.1640994E-04   1.4378451E+05   -1.7577663E+00
   3.1787116E-04   1.4262491E+05   -1.7571908E+00
   3.1933912E-04   1.4147504E+05   -1.7566152E+00
   3.2081386E-04   1.4033481E+05   -1.7560396E+00
   3.2229541E-04   1.3920414E+05   -1.7554638E+00
   3.2378381E-04   1.3808295E+05   -1.7548880E+00
   3.2527908E-04   1.3697114E+05   -1.7543122E+00
   3.2678125E-04   1.3586866E+05   -1.7537363E+00
   3.2829036E-04   1.3477540E+05   -1.7531604E+00
   3.2980644E-04   1.3369130E+05   -1.7525844E+00
   3.3132952E-04   1.3261626E+05   -1.7520085E+00
   3.3285963E-04   1.3155022E+05   -1.7514325E+00
   3.3439681E-04   1.3049310E+05   -1.7508564E+00
   3.3594109E-04   1.2944482E+05   -1.7502804E+00
   3.3749250E-04   1.2840529E+05   -1.7497044E+00
   3.3905108E-04   1.2737446E+05   -1.7491283E+00
   3.4061685E-04   1.2635223E+05   -1.7485523E+00
   3.4218986E-04   1.2533854E+05   -1.7479763E+00
   3.4377013E-04   1.2433331E+05   -1.7474003E+00
   3.4535769E-04   1.2333648E+05   -1.7468244E+00
   3.4695259E-04   1.2234796E+05   -1.7462484E+00
   3.4855485E-04   1.2136768E+05   -1.7456725E+00
   3.5016452E-04   1.2039558E+05   -1.7450967E+00
   3.5178161E-04   1.1943158E+05   -1.7445209E+00
   3.5340618E-04   1.1847561E+05   -1.7439452E+00
   3.5503824E-04   1.1752761E+05   -1.7433695E+00
   3.5667785E-04   1.1658750E+05   -1.7427939E+00
   3.5832502E-04   1.1565522E+05   -1.7422184E+00
   3.5997981E-04   1.1473070E+05   -1.7416429E+00
   3.6164223E-04   1.1381387E+05   -1.7410675E+00
   3.6331233E-04   1.1290466E+05   -1.7404923E+00
   3.6499015E-04   1.1200302E+05   -1.7399171E+00
   3.6667571E-04   1.1110887E+05   -1.7393421E+00
   3.6836906E-04   1.1022215E+05   -1.7387671E+00
   3.7007022E-04   1.0934280E+05   -1.7381923E+00
   3.7177925E-04   1.0847075E+05   -1.7376176E+00
   3.7349616E-04   1.0760594E+05   -1.7370430E+00
   3.7522101E-04   1.0674830E+05   -1.7364686E+00
   3.7695382E-04   1.0589779E+05   -1.7358943E+00
   3.7869463E-04   1.0505432E+05   -1.7353201E+00
   3.8044348E-04   1.0421786E+05   -1.7347461E+00
   3.8220041E-04   1.0338832E+05   -1.7341723E+00
   3.8396545E-04   1.0256566E+05   -1.7335987E+00
   3.8573864E-04   1.0174981E+05   -1.7330252E+00
   3.8752002E-04   1.0094072E+05   -1.7324518E+00
   3.8930963E-04   1.0013833E+05   -1.7318787E+00
   3.9110750E-04   9.9342578E+04   -1.7313058E+00
   3.9291368E-04   9.8553410E+04   -1.7307330E+00
   3.9472820E-04   9.7770769E+04   -1.7301605E+00
   3.9655109E-04   9.6994599E+04   -1.7295882E+00
   3.9838241E-04   9.6224844E+04   -1.7290161E+00
   4.0022218E-04   9.5461450E+04   -1.7284442E+00
   4.0207045E-04   9.4704362E+04   -1.7278725E+00
   4.0392725E-04   9.3953525E+04   -1.7273011E+00
   4.0579263E-04   9.3208887E+04   -1.7267299E+00
   4.0766662E-04   9.2470394E+04   -1.7261589E+00
   4.0954927E-04   9.1737993E+04   -1.7255882E+00
   4.1144061E-04   9.1011632E+04   -1.7250177E+00
   4.1334068E-04   9.0291259E+04   -1.7244476E+00
   4.1524953E-04   8.9576824E+04   -1.7238776E+00
   4.1716720E-04   8.8868275E+04   -1.7233080E+00
   4.1909372E-04   8.8165562E+04   -1.7227386E+00
   4.2102914E-04   8.7468635E+04   -1.7221695E+00
   4.2297350E-04   8.6777444E+04   -1.7216008E+00
   4.2492683E-04   8.6091941E+04   -1.7210323E+00
   4.2688919E-04   8.5412077E+04   -1.7204641E+00
   4.2886061E-04   8.4737803E+04   -1.7198962E+00
   4.3084113E-04   8.4069072E+04   -1.7193286E+00
   4.3283080E-04   8.3405837E+04   -1.7187614E+00
   4.3482966E-04   8.2748051E+04   -1.7181944E+00
   4.3683775E-04   8.2095666E+04   -1.7176278E+00
   4.3885511E-04   8.1448637E+04   -1.7170616E+00
   4.4088179E-04   8.0806919E+04   -1.7164957E+00
   4.4291783E-04   8.0170465E+04   -1.7159301E+00
   4.4496327E-04   7.9539232E+04   -1.7153649E+00
   4.4701816E-04   7.8913174E+04   -1.7148000E+00
   4.4908253E-04   7.8292248E+04   -1.7142356E+00
   4.5115644E-04   7.7676409E+04   -1.7136714E+00
   4.5323993E-04   7.7065615E+04   -1.7131077E+00
   4.5533304E-04   7.6459822E+04   -1.7125443E+00
   4.5743582E-04   7.5858988E+04   -1.7119814E+00
   4.5954830E-04   7.5263070E+04   -1.7114188E+00
   4.6167054E-04   7.4672027E+04   -1.7108566E+00
   4.6380259E-04   7.4085818E+04   -1.7102949E+00
   4.6594448E-04   7.3504401E+04   -1.7097335E+00
   4.6809626E-04   7.2927735E+04   -1.7091725E+00
   4.7025797E-04   7.2355780E+04   -1.7086120E+00
   4.7242967E-04   7.1788496E+04   -1.7080519E+00
   4.7461140E-04   7.1225844E+04   -1.7074922E+00
   4.7680321E-04   7.0667784E+04   -1.7069330E+00
   4.7900514E-04   7.0114276E+04   -1.7063742E+00
   4.8121723E-04   6.9565283E+04   -1.7058159E+00
   4.8343954E-04   6.9020767E+04   -1.7052580E+00
   4.8567212E-04   6.8480688E+04   -1.7047006E+00
   4.8791500E-04   6.7945010E+04   -1.7041436E+00
   4.9016825E-04   6.7413695E+04   -1.7035871E+00
   4.9243189E-04   6.6886706E+04   -1.7030311E+00
   4.9470600E-04   6.6364007E+04   -1.7024756E+00
   4.9699060E-04   6.5845561E+04   -1.7019205E+00
   4.9928575E-04   6.5331332E+04   -1.7013659E+00
   5.0159151E-04   6.4821284E+04   -1.7008119E+00
   5.0390791E-04   6.4315383E+04   -1.7002583E+00
   5.0623501E-04   6.3813592E+04   -1.6997052E+00
   5.0857286E-04   6.3315878E+04   -1.6991527E+00
   5.1092150E-04   6.2822206E+04   -1.6986007E+00
   5.1328099E-04   6.2332542E+04   -1.6980491E+00
   5.1565137E-04   6.1846851E+04   -1.6974982E+00
   5.1803270E-04   6.1365100E+04   -1.6969477E+00
   5.2042503E-04   6.0887256E+04   -1.6963978E+00
   5.2282841E-04   6.0413286E+04   -1.6958484E+00
   5.2524289E-04   5.9943158E+04   -1.6952996E+00
   5.2766851E-04   5.9476838E+04   -1.6947513E+00
   5.3010534E-04   5.9014295E+04   -1.6942036E+00
   5.3255342E-04   5.8555496E+04   -1.6936564E+00
   5.3501281E-04   5.8100411E+04   -1.6931098E+00
   5.3748356E-04   5.7649008E+04   -1.6925638E+00
   5.3996571E-04   5.7201255E+04   -1.6920184E+00
   5.4245933E-04   5.6757123E+04   -1.6914735E+00
   5.4496446E-04   5.6316581E+04   -1.6909292E+00
   5.4748117E-04   5.5879599E+04   -1.6903855E+00
   5.5000949E-04   5.5446145E+04   -1.6898425E+00
   5.5254949E-04   5.5016192E+04   -1.6893000E+00
   5.5510123E-04   5.4589709E+04   -1.6887581E+00
   5.5766474E-04   5.4166667E+04   -1.6882168E+00
   5.6024010E-04   5.3747038E+04   -1.6876761E+00
   5.6282734E-04   5.3330792E+04   -1.6871361E+00
   5.6542654E-04   5.2917901E+04   -1.6865967E+00
   5.6803774E-04   5.2508338E+04   -1.6860579E+00
   5.7066099E-04   5.2102073E+04   -1.6855197E+00
   5.7329637E-04   5.1699080E+04   -1.6849822E+00
   5.7594391E-04   5.1299331E+04   -1.6844454E+00
   5.7860368E-04   5.0902799E+04   -1.6839091E+00
   5.8127573E-04   5.0509457E+04   -1.6833736E+00
   5.8396012E-04   5.0119278E+04   -1.6828386E+00
   5.8665691E-04   4.9732235E+04   -1.6823044E+00
   5.8936616E-04   4.9348303E+04   -1.6817708E+00
   5.9208791E-04   4.8967455E+04   -1.6812378E+00
   5.9482223E-04   4.8589665E+04   -1.6807056E+00
   5.9756919E-04   4.8214908E+04   -1.6801740E+00
   6.0032882E-04   4.7843159E+04   -1.6796431E+00
   6.0310120E-04   4.7474392E+04   -1.6791129E+00
   6.0588639E-04   4.7108582E+04   -1.6785834E+00
   6.0868443E-04   4.6745705E+04   -1.6780546E+00
   6.1149540E-04   4.6385736E+04   -1.6775265E+00
   6.1431935E-04   4.6028652E+04   -1.6769991E+00
   6.1715634E-04   4.5674427E+04   -1.6764723E+00
   6.2000644E-04   4.5323038E+04   -1.6759463E+00
   6.2286969E-04   4.4974461E+04   -1.6754211E+00
