#        a       HoverH0(a)       dlogHdloga_of_a(a)
   1.0000000E-04   1.1099261E+06   -1.8437940E+00
   1.0046181E-04   1.1005382E+06   -1.8432987E+00
   1.0092575E-04   1.0912322E+06   -1.8428025E+00
   1.0139184E-04   1.0820074E+06   -1.8423055E+00
   1.0186008E-04   1.0728630E+06   -1.8418077E+00
   1.0233048E-04   1.0637984E+06   -1.8413090E+00
   1.0280305E-04   1.0548127E+06   -1.8408094E+00
   1.0327781E-04   1.0459054E+06   -1.8403091E+00
   1.0375475E-04   1.0370757E+06   -1.8398079E+00
   1.0423390E-04   1.0283229E+06   -1.8393058E+00
   1.0471527E-04   1.0196463E+06   -1.8388030E+00
   1.0519885E-04   1.0110453E+06   -1.8382993E+00
   1.0568467E-04   1.0025191E+06   -1.8377948E+00
   1.0617274E-04   9.9406720E+05   -1.8372894E+00
   1.0666305E-04   9.8568882E+05   -1.8367833E+00
   1.0715563E-04   9.7738335E+05   -1.8362763E+00
   1.0765049E-04   9.6915012E+05   -1.8357686E+00
   1.0814763E-04   9.6098850E+05   -1.8352600E+00
   1.0864707E-04   9.5289784E+05   -1.8347507E+00
   1.0914881E-04   9.4487752E+05   -1.8342405E+00
   1.0965287E-04   9.3692691E+05   -1.8337295E+00
   1.1015926E-04   9.2904538E+05   -1.8332178E+00
   1.1066799E-04   9.2123233E+05   -1.8327053E+00
   1.1117906E-04   9.1348715E+05   -1.8321920E+00
   1.1169250E-04   9.0580922E+05   -1.8316779E+00
   1.1220831E-04   8.9819796E+05   -1.8311630E+00
   1.1272650E-04   8.9065277E+05   -1.8306474E+00
   1.1324708E-04   8.8317306E+05   -1.8301310E+00
   1.1377007E-04   8.7575825E+05   -1.8296138E+00
   1.1429547E-04   8.6840776E+05   -1.8290959E+00
   1.1482330E-04   8.6112103E+05   -1.8285772E+00
   1.1535356E-04   8.5389748E+05   -1.8280578E+00
   1.1588628E-04   8.4673655E+05   -1.8275376E+00
   1.1642145E-04   8.3963769E+05   -1.8270167E+00
   1.1695910E-04   8.3260034E+05   -1.8264950E+00
   1.1749923E-04   8.2562396E+05   -1.8259727E+00
   1.1804185E-04   8.1870801E+05   -1.8254495E+00
   1.1858698E-04   8.1185195E+05   -1.8249257E+00
   1.1913463E-04   8.0505525E+05   -1.8244011E+00
   1.1968481E-04   7.9831738E+05   -1.8238758E+00
   1.2023752E-04   7.9163782E+05   -1.8233498E+00
   1.2079279E-04   7.8501605E+05   -1.8228230E+00
   1.2135063E-04   7.7845156E+05   -1.8222956E+00
   1.2191104E-04   7.7194384E+05   -1.8217675E+00
   1.2247403E-04   7.6549240E+05   -1.8212386E+00
   1.2303963E-04   7.5909671E+05   -1.8207091E+00
   1.2360784E-04   7.5275631E+05   -1.8201789E+00
   1.2417868E-04   7.4647068E+05   -1.8196480E+00
   1.2475215E-04   7.4023935E+05   -1.8191164E+00
   1.2532826E-04   7.3406184E+05   -1.8185841E+00
   1.2590704E-04   7.2793767E+05   -1.8180512E+00
   1.2648850E-04   7.2186636E+05   -1.8175175E+00
   1.2707263E-04   7.1584746E+05   -1.8169833E+00
   1.2765947E-04   7.0988048E+05   -1.8164483E+00
   1.2824901E-04   7.0396499E+05   -1.8159127E+00
   1.2884128E-04   6.9810051E+05   -1.8153765E+00
   1.2943628E-04   6.9228659E+05   -1.8148396E+00
   1.3003403E-04   6.8652280E+05   -1.8143021E+00
   1.3063454E-04   6.8080868E+05   -1.8137639E+00
   1.3123783E-04   6.7514380E+05   -1.8132251E+00
   1.3184390E-04   6.6952771E+05   -1.8126857E+00
   1.3245277E-04   6.6395999E+05   -1.8121456E+00
   1.3306445E-04   6.5844022E+05   -1.8116049E+00
   1.3367895E-04   6.5296795E+05   -1.8110637E+00
   1.3429630E-04   6.4754279E+05   -1.8105218E+00
   1.3491649E-04   6.4216430E+05   -1.8099793E+00
   1.3553955E-04   6.3683208E+05   -1.8094361E+00
   1.3616548E-04   6.3154571E+05   -1.8088924E+00
   1.3679431E-04   6.2630480E+05   -1.8083482E+00
   1.3742604E-04   6.2110894E+05   -1.8078033E+00
   1.3806069E-04   6.1595773E+05   -1.8072578E+00
   1.3869827E-04   6.1085078E+05   -1.8067118E+00
   1.3933879E-04   6.0578770E+05   -1.8061652E+00
   1.3998227E-04   6.0076810E+05   -1.8056180E+00
   1.4062872E-04   5.9579159E+05   -1.8050703E+00
   1.4127816E-04   5.9085779E+05   -1.8045220E+00
   1.4193060E-04   5.8596634E+05   -1.8039732E+00
   1.4258605E-04   5.8111685E+05   -1.8034238E+00
   1.4324453E-04   5.7630895E+05   -1.8028739E+00
   1.4390605E-04   5.7154228E+05   -1.8023234E+00
   1.4457062E-04   5.6681647E+05   -1.8017724E+00
   1.4523826E-04   5.6213117E+05   -1.8012209E+00
   1.4590899E-04   5.5748602E+05   -1.8006688E+00
   1.4658281E-04   5.5288065E+05   -1.8001163E+00
   1.4725974E-04   5.4831473E+05   -1.7995632E+00
   1.4793981E-04   5.4378790E+05   -1.7990096E+00
   1.4862301E-04   5.3929982E+05   -1.7984556E+00
   1.4930936E-04   5.3485014E+05   -1.7979010E+00
   1.4999889E-04   5.3043854E+05   -1.7973459E+00
   1.5069160E-04   5.2606467E+05   -1.7967904E+00
   1.5138751E-04   5.2172820E+05   -1.7962344E+00
   1.5208663E-04   5.1742881E+05   -1.7956779E+00
   1.5278899E-04   5.1316616E+05   -1.7951209E+00
   1.5349458E-04   5.0893993E+05   -1.7945635E+00
   1.5420343E-04   5.0474981E+05   -1.7940056E+00
   1.5491556E-04   5.0059547E+05   -1.7934473E+00
   1.5563098E-04   4.9647661E+05   -1.7928885E+00
   1.5634970E-04   4.9239290E+05   -1.7923292E+00
   1.5707174E-04   4.8834403E+05   -1.7917696E+00
   1.5779711E-04   4.8432972E+05   -1.7912095E+00
   1.5852584E-04   4.8034964E+05   -1.7906490E+00
   1.5925792E-04   4.7640349E+05   -1.7900880E+00
   1.5999339E-04   4.7249099E+05   -1.7895267E+00
   1.6073226E-04   4.6861183E+05   -1.7889649E+00
   1.6147454E-04   4.6476572E+05   -1.7884027E+00
   1.6222024E-04   4.6095238E+05   -1.7878401E+00
   1.6296939E-04   4.5717150E+05   -1.7872772E+00
   1.6372200E-04   4.5342282E+05   -1.7867138E+00
   1.6447809E-04   4.4970604E+05   -1.7861501E+00
   1.6523767E-04   4.4602089E+05   -1.7855860E+00
   1.6600075E-04   4.4236709E+05   -1.7850215E+00
   1.6676736E-04   4.3874436E+05   -1.7844567E+00
   1.6753751E-04   4.3515243E+05   -1.7838915E+00
   1.6831122E-04   4.3159103E+05   -1.7833259E+00
   1.6908849E-04   4.2805989E+05   -1.7827600E+00
   1.6986936E-04   4.2455876E+05   -1.7821938E+00
   1.7065384E-04   4.2108735E+05   -1.7816272E+00
   1.7144193E-04   4.1764542E+05   -1.7810603E+00
   1.7223367E-04   4.1423271E+05   -1.7804931E+00
   1.7302906E-04   4.1084896E+05   -1.7799255E+00
   1.7382813E-04   4.0749392E+05   -1.7793576E+00
   1.7463089E-04   4.0416733E+05   -1.7787895E+00
   1.7543735E-04   4.0086895E+05   -1.7782210E+00
   1.7624754E-04   3.9759852E+05   -1.7776522E+00
   1.7706147E-04   3.9435581E+05   -1.7770831E+00
   1.7787916E-04   3.9114058E+05   -1.7765138E+00
   1.7870062E-04   3.8795257E+05   -1.7759442E+00
   1.7952588E-04   3.8479156E+05   -1.7753743E+00
   1.8035495E-04   3.8165731E+05   -1.7748041E+00
   1.8118785E-04   3.7854959E+05   -1.7742337E+00
   1.8202459E-04   3.7546815E+05   -1.7736630E+00
   1.8286520E-04   3.7241278E+05   -1.7730921E+00
   1.8370969E-04   3.6938324E+05   -1.7725209E+00
   1.8455808E-04   3.6637931E+05   -1.7719495E+00
   1.8541039E-04   3.6340077E+05   -1.7713778E+00
   1.8626663E-04   3.6044739E+05   -1.7708060E+00
   1.8712683E-04   3.5751896E+05   -1.7702339E+00
   1.8799100E-04   3.5461525E+05   -1.7696616E+00
   1.8885917E-04   3.5173606E+05   -1.7690891E+00
   1.8973134E-04   3.4888116E+05   -1.7685164E+00
   1.9060754E-04   3.4605035E+05   -1.7679435E+00
   1.9148778E-04   3.4324341E+05   -1.7673704E+00
   1.9237209E-04   3.4046014E+05   -1.7667971E+00
   1.9326049E-04   3.3770033E+05   -1.7662236E+00
   1.9415299E-04   3.3496377E+05   -1.7656500E+00
   1.9504960E-04   3.3225027E+05   -1.7650762E+00
   1.9595036E-04   3.2955963E+05   -1.7645022E+00
   1.9685528E-04   3.2689164E+05   -1.7639281E+00
   1.9776438E-04   3.2424610E+05   -1.7633539E+00
   1.9867768E-04   3.2162283E+05   -1.7627795E+00
   1.9959519E-04   3.1902162E+05   -1.7622049E+00
   2.0051694E-04   3.1644229E+05   -1.7616303E+00
   2.0144295E-04   3.1388465E+05   -1.7610555E+00
   2.0237324E-04   3.1134850E+05   -1.7604806E+00
   2.0330782E-04   3.0883366E+05   -1.7599056E+00
   2.0424671E-04   3.0633994E+05   -1.7593305E+00
   2.0518995E-04   3.0386717E+05   -1.7587552E+00
   2.0613754E-04   3.0141516E+05   -1.7581799E+00
   2.0708950E-04   2.9898372E+05   -1.7576045E+00
   2.0804586E-04   2.9657269E+05   -1.7570290E+00
   2.0900664E-04   2.9418188E+05   -1.7564535E+00
   2.0997185E-04   2.9181111E+05   -1.7558779E+00
   2.1094152E-04   2.8946022E+05   -1.7553022E+00
   2.1191567E-04   2.8712903E+05   -1.7547264E+00
   2.1289432E-04   2.8481737E+05   -1.7541506E+00
   2.1387749E-04   2.8252507E+05   -1.7535748E+00
   2.1486520E-04   2.8025196E+05   -1.7529989E+00
   2.1585747E-04   2.7799788E+05   -1.7524230E+00
   2.1685432E-04   2.7576266E+05   -1.7518471E+00
   2.1785578E-04   2.7354614E+05   -1.7512711E+00
   2.1886186E-04   2.7134816E+05   -1.7506952E+00
   2.1987259E-04   2.6916855E+05   -1.7501192E+00
   2.2088798E-04   2.6700715E+05   -1.7495432E+00
   2.2190807E-04   2.6486382E+05   -1.7489672E+00
   2.2293286E-04   2.6273839E+05   -1.7483913E+00
   2.2396239E-04   2.6063070E+05   -1.7478153E+00
   2.2499667E-04   2.5854061E+05   -1.7472394E+00
   2.2603573E-04   2.5646796E+05   -1.7466635E+00
   2.2707958E-04   2.5441260E+05   -1.7460877E+00
   2.2812826E-04   2.5237439E+05   -1.7455118E+00
   2.2918178E-04   2.5035316E+05   -1.7449361E+00
   2.3024017E-04   2.4834879E+05   -1.7443603E+00
   2.3130344E-04   2.4636111E+05   -1.7437847E+00
   2.3237162E-04   2.4438999E+05   -1.7432091E+00
   2.3344474E-04   2.4243528E+05   -1.7426336E+00
   2.3452281E-04   2.4049685E+05   -1.7420581E+00
   2.3560586E-04   2.3857455E+05   -1.7414828E+00
   2.3669392E-04   2.3666824E+05   -1.7409075E+00
   2.3778699E-04   2.3477778E+05   -1.7403323E+00
   2.3888512E-04   2.3290304E+05   -1.7397573E+00
   2.3998831E-04   2.3104389E+05   -1.7391823E+00
   2.4109661E-04   2.2920018E+05   -1.7386075E+00
   2.4221001E-04   2.2737179E+05   -1.7380327E+00
   2.4332857E-04   2.2555858E+05   -1.7374581E+00
   2.4445228E-04   2.2376042E+05   -1.7368837E+00
   2.4558119E-04   2.2197718E+05   -1.7363093E+00
   2.4671531E-04   2.2020874E+05   -1.7357352E+00
   2.4785467E-04   2.1845497E+05   -1.7351611E+00
   2.4899928E-04   2.1671573E+05   -1.7345872E+00
   2.5014919E-04   2.1499091E+05   -1.7340135E+00
   2.5130440E-04   2.1328038E+05   -1.7334400E+00
   2.5246495E-04   2.1158402E+05   -1.7328666E+00
   2.5363086E-04   2.0990171E+05   -1.7322934E+00
   2.5480216E-04   2.0823333E+05   -1.7317204E+00
   2.5597886E-04   2.0657874E+05   -1.7311476E+00
   2.5716100E-04   2.0493785E+05   -1.7305750E+00
   2.5834859E-04   2.0331053E+05   -1.7300026E+00
   2.5954168E-04   2.0169666E+05   -1.7294304E+00
   2.6074027E-04   2.0009613E+05   -1.7288584E+00
   2.6194439E-04   1.9850882E+05   -1.7282866E+00
   2.6315408E-04   1.9693463E+05   -1.7277151E+00
   2.6436935E-04   1.9537343E+05   -1.7271438E+00
   2.6559024E-04   1.9382512E+05   -1.7265728E+00
   2.6681676E-04   1.9228958E+05   -1.7260019E+00
   2.6804895E-04   1.9076671E+05   -1.7254314E+00
   2.6928683E-04   1.8925640E+05   -1.7248611E+00
   2.7053042E-04   1.8775854E+05   -1.7242911E+00
   2.7177976E-04   1.8627302E+05   -1.7237213E+00
   2.7303487E-04   1.8479974E+05   -1.7231518E+00
   2.7429577E-04   1.8333860E+05   -1.7225826E+00
   2.7556250E-04   1.8188948E+05   -1.7220137E+00
   2.7683507E-04   1.8045229E+05   -1.7214450E+00
   2.7811353E-04   1.7902693E+05   -1.7208767E+00
   2.7939788E-04   1.7761329E+05   -1.7203087E+00
   2.8068817E-04   1.7621127E+05   -1.7197410E+00
   2.8198442E-04   1.7482078E+05   -1.7191736E+00
   2.8328665E-04   1.7344171E+05   -1.7186065E+00
   2.8459490E-04   1.7207397E+05   -1.7180397E+00
   2.8590919E-04   1.7071746E+05   -1.7174733E+00
   2.8722955E-04   1.6937209E+05   -1.7169072E+00
   2.8855600E-04   1.6803776E+05   -1.7163415E+00
   2.8988859E-04   1.6671438E+05   -1.7157761E+00
   2.9122732E-04   1.6540184E+05   -1.7152111E+00
   2.9257224E-04   1.6410007E+05   -1.7146464E+00
   2.9392337E-04   1.6280897E+05   -1.7140821E+00
   2.9528074E-04   1.6152845E+05   -1.7135182E+00
   2.9664438E-04   1.6025841E+05   -1.7129547E+00
   2.9801431E-04   1.5899877E+05   -1.7123915E+00
   2.9939057E-04   1.5774944E+05   -1.7118287E+00
   3.0077319E-04   1.5651034E+05   -1.7112663E+00
   3.0216219E-04   1.5528137E+05   -1.7107044E+00
   3.0355761E-04   1.5406245E+05   -1.7101428E+00
   3.0495947E-04   1.5285349E+05   -1.7095816E+00
   3.0636780E-04   1.5165441E+05   -1.7090209E+00
   3.0778264E-04   1.5046513E+05   -1.7084606E+00
   3.0920401E-04   1.4928555E+05   -1.7079007E+00
   3.1063195E-04   1.4811561E+05   -1.7073412E+00
   3.1206648E-04   1.4695521E+05   -1.7067822E+00
   3.1350764E-04   1.4580428E+05   -1.7062236E+00
   3.1495545E-04   1.4466274E+05   -1.7056655E+00
   3.1640994E-04   1.4353050E+05   -1.7051079E+00
   3.1787116E-04   1.4240749E+05   -1.7045507E+00
   3.1933912E-04   1.4129363E+05   -1.7039939E+00
   3.2081386E-04   1.4018885E+05   -1.7034376E+00
   3.2229541E-04   1.3909305E+05   -1.7028819E+00
   3.2378381E-04   1.3800618E+05   -1.7023265E+00
   3.2527908E-04   1.3692815E+05   -1.7017717E+00
   3.2678125E-04   1.3585888E+05   -1.7012174E+00
   3.2829036E-04   1.3479831E+05   -1.7006636E+00
   3.2980644E-04   1.3374636E+05   -1.7001102E+00
   3.3132952E-04   1.3270296E+05   -1.6995574E+00
   3.3285963E-04   1.3166803E+05   -1.6990051E+00
   3.3439681E-04   1.3064151E+05   -1.6984533E+00
   3.3594109E-04   1.2962332E+05   -1.6979020E+00
   3.3749250E-04   1.2861339E+05   -1.6973513E+00
   3.3905108E-04   1.2761165E+05   -1.6968011E+00
   3.4061685E-04   1.2661804E+05   -1.6962514E+00
   3.4218986E-04   1.2563248E+05   -1.6957023E+00
   3.4377013E-04   1.2465491E+05   -1.6951537E+00
   3.4535769E-04   1.2368525E+05   -1.6946057E+00
   3.4695259E-04   1.2272345E+05   -1.6940583E+00
   3.4855485E-04   1.2176944E+05   -1.6935114E+00
   3.5016452E-04   1.2082314E+05   -1.6929650E+00
   3.5178161E-04   1.1988450E+05   -1.6924193E+00
   3.5340618E-04   1.1895346E+05   -1.6918741E+00
   3.5503824E-04   1.1802994E+05   -1.6913295E+00
   3.5667785E-04   1.1711388E+05   -1.6907855E+00
   3.5832502E-04   1.1620522E+05   -1.6902421E+00
   3.5997981E-04   1.1530390E+05   -1.6896993E+00
   3.6164223E-04   1.1440986E+05   -1.6891571E+00
   3.6331233E-04   1.1352304E+05   -1.6886155E+00
   3.6499015E-04   1.1264337E+05   -1.6880745E+00
   3.6667571E-04   1.1177079E+05   -1.6875341E+00
   3.6836906E-04   1.1090525E+05   -1.6869943E+00
   3.7007022E-04   1.1004669E+05   -1.6864552E+00
   3.7177925E-04   1.0919504E+05   -1.6859167E+00
   3.7349616E-04   1.0835025E+05   -1.6853788E+00
   3.7522101E-04   1.0751227E+05   -1.6848416E+00
   3.7695382E-04   1.0668103E+05   -1.6843050E+00
   3.7869463E-04   1.0585648E+05   -1.6837691E+00
   3.8044348E-04   1.0503856E+05   -1.6832338E+00
   3.8220041E-04   1.0422721E+05   -1.6826992E+00
   3.8396545E-04   1.0342239E+05   -1.6821652E+00
   3.8573864E-04   1.0262404E+05   -1.6816319E+00
   3.8752002E-04   1.0183210E+05   -1.6810993E+00
   3.8930963E-04   1.0104652E+05   -1.6805674E+00
   3.9110750E-04   1.0026724E+05   -1.6800361E+00
   3.9291368E-04   9.9494217E+04   -1.6795055E+00
   3.9472820E-04   9.8727395E+04   -1.6789756E+00
   3.9655109E-04   9.7966722E+04   -1.6784464E+00
   3.9838241E-04   9.7212146E+04   -1.6779179E+00
   4.0022218E-04   9.6463618E+04   -1.6773901E+00
   4.0207045E-04   9.5721085E+04   -1.6768630E+00
   4.0392725E-04   9.4984499E+04   -1.6763366E+00
   4.0579263E-04   9.4253810E+04   -1.6758109E+00
   4.0766662E-04   9.3528968E+04   -1.6752860E+00
   4.0954927E-04   9.2809924E+04   -1.6747617E+00
   4.1144061E-04   9.2096631E+04   -1.6742382E+00
   4.1334068E-04   9.1389040E+04   -1.6737155E+00
   4.1524953E-04   9.0687104E+04   -1.6731934E+00
   4.1716720E-04   8.9990775E+04   -1.6726721E+00
   4.1909372E-04   8.9300008E+04   -1.6721515E+00
   4.2102914E-04   8.8614755E+04   -1.6716317E+00
   4.2297350E-04   8.7934971E+04   -1.6711126E+00
   4.2492683E-04   8.7260610E+04   -1.6705943E+00
   4.2688919E-04   8.6591627E+04   -1.6700767E+00
   4.2886061E-04   8.5927978E+04   -1.6695599E+00
   4.3084113E-04   8.5269619E+04   -1.6690439E+00
   4.3283080E-04   8.4616504E+04   -1.6685286E+00
   4.3482966E-04   8.3968592E+04   -1.6680141E+00
   4.3683775E-04   8.3325837E+04   -1.6675004E+00
   4.3885511E-04   8.2688198E+04   -1.6669875E+00
   4.4088179E-04   8.2055633E+04   -1.6664753E+00
   4.4291783E-04   8.1428099E+04   -1.6659640E+00
   4.4496327E-04   8.0805554E+04   -1.6654534E+00
   4.4701816E-04   8.0187957E+04   -1.6649436E+00
   4.4908253E-04   7.9575267E+04   -1.6644346E+00
   4.5115644E-04   7.8967443E+04   -1.6639264E+00
   4.5323993E-04   7.8364446E+04   -1.6634191E+00
   4.5533304E-04   7.7766235E+04   -1.6629125E+00
   4.5743582E-04   7.7172770E+04   -1.6624067E+00
   4.5954830E-04   7.6584013E+04   -1.6619018E+00
   4.6167054E-04   7.5999924E+04   -1.6613976E+00
   4.6380259E-04   7.5420465E+04   -1.6608943E+00
   4.6594448E-04   7.4845597E+04   -1.6603919E+00
   4.6809626E-04   7.4275283E+04   -1.6598902E+00
   4.7025797E-04   7.3709484E+04   -1.6593894E+00
   4.7242967E-04   7.3148165E+04   -1.6588894E+00
   4.7461140E-04   7.2591287E+04   -1.6583903E+00
   4.7680321E-04   7.2038814E+04   -1.6578920E+00
   4.7900514E-04   7.1490710E+04   -1.6573945E+00
   4.8121723E-04   7.0946938E+04   -1.6568979E+00
   4.8343954E-04   7.0407464E+04   -1.6564021E+00
   4.8567212E-04   6.9872251E+04   -1.6559072E+00
   4.8791500E-04   6.9341265E+04   -1.6554132E+00
   4.9016825E-04   6.8814470E+04   -1.6549200E+00
   4.9243189E-04   6.8291833E+04   -1.6544276E+00
   4.9470600E-04   6.7773318E+04   -1.6539362E+00
   4.9699060E-04   6.7258893E+04   -1.6534456E+00
   4.9928575E-04   6.6748523E+04   -1.6529558E+00
   5.0159151E-04   6.6242175E+04   -1.6524670E+00
   5.0390791E-04   6.5739816E+04   -1.6519790E+00
   5.0623501E-04   6.5241413E+04   -1.6514919E+00
   5.0857286E-04   6.4746934E+04   -1.6510057E+00
   5.1092150E-04   6.4256347E+04   -1.6505204E+00
   5.1328099E-04   6.3769619E+04   -1.6500360E+00
   5.1565137E-04   6.3286720E+04   -1.6495524E+00
   5.1803270E-04   6.2807617E+04   -1.6490698E+00
   5.2042503E-04   6.2332279E+04   -1.6485880E+00
   5.2282841E-04   6.1860676E+04   -1.6481071E+00
   5.2524289E-04   6.1392777E+04   -1.6476272E+00
   5.2766851E-04   6.0928552E+04   -1.6471481E+00
   5.3010534E-04   6.0467970E+04   -1.6466700E+00
   5.3255342E-04   6.0011002E+04   -1.6461928E+00
   5.3501281E-04   5.9557619E+04   -1.6457164E+00
   5.3748356E-04   5.9107790E+04   -1.6452410E+00
   5.3996571E-04   5.8661487E+04   -1.6447665E+00
   5.4245933E-04   5.8218681E+04   -1.6442929E+00
   5.4496446E-04   5.7779344E+04   -1.6438203E+00
   5.4748117E-04   5.7343447E+04   -1.6433486E+00
   5.5000949E-04   5.6910961E+04   -1.6428777E+00
   5.5254949E-04   5.6481861E+04   -1.6424079E+00
   5.5510123E-04   5.6056116E+04   -1.6419389E+00
   5.5766474E-04   5.5633701E+04   -1.6414709E+00
   5.6024010E-04   5.5214588E+04   -1.6410038E+00
   5.6282734E-04   5.4798750E+04   -1.6405377E+00
   5.6542654E-04   5.4386161E+04   -1.6400724E+00
   5.6803774E-04   5.3976793E+04   -1.6396082E+00
   5.7066099E-04   5.3570622E+04   -1.6391449E+00
   5.7329637E-04   5.3167620E+04   -1.6386825E+00
   5.7594391E-04   5.2767762E+04   -1.6382210E+00
   5.7860368E-04   5.2371023E+04   -1.6377606E+00
   5.8127573E-04   5.1977377E+04   -1.6373010E+00
   5.8396012E-04   5.1586799E+04   -1.6368424E+00
   5.8665691E-04   5.1199263E+04   -1.6363848E+00
   5.8936616E-04   5.0814747E+04   -1.6359281E+00
   5.9208791E-04   5.0433223E+04   -1.6354724E+00
   5.9482223E-04   5.0054670E+04   -1.6350177E+00
   5.9756919E-04   4.9679062E+04   -1.6345639E+00
   6.0032882E-04   4.9306375E+04   -1.6341110E+00
   6.0310120E-04   4.8936586E+04   -1.6336592E+00
   6.0588639E-04   4.8569672E+04   -1.6332083E+00
   6.0868443E-04   4.8205608E+04   -1.6327584E+00
   6.1149540E-04   4.7844373E+04   -1.6323094E+00
   6.1431935E-04   4.7485942E+04   -1.6318614E+00
   6.1715634E-04   4.7130295E+04   -1.6314144E+00
   6.2000644E-04   4.6777407E+04   -1.6309684E+00
   6.2286969E-04   4.6427256E+04   -1.6305233E+00
