#        a       HoverH0(a)       dlogHdloga_of_a(a)
   1.0000000E-04   1.1515579E+06   -1.8885984E+00
   1.0046181E-04   1.1415820E+06   -1.8881989E+00
   1.0092575E-04   1.1316945E+06   -1.8877985E+00
   1.0139184E-04   1.1218948E+06   -1.8873970E+00
   1.0186008E-04   1.1121820E+06   -1.8869945E+00
   1.0233048E-04   1.1025553E+06   -1.8865910E+00
   1.0280305E-04   1.0930140E+06   -1.8861865E+00
   1.0327781E-04   1.0835573E+06   -1.8857809E+00
   1.0375475E-04   1.0741844E+06   -1.8853743E+00
   1.0423390E-04   1.0648945E+06   -1.8849668E+00
   1.0471527E-04   1.0556870E+06   -1.8845582E+00
   1.0519885E-04   1.0465611E+06   -1.8841486E+00
   1.0568467E-04   1.0375160E+06   -1.8837379E+00
   1.0617274E-04   1.0285511E+06   -1.8833263E+00
   1.0666305E-04   1.0196655E+06   -1.8829136E+00
   1.0715563E-04   1.0108587E+06   -1.8825000E+00
   1.0765049E-04   1.0021298E+06   -1.8820853E+00
   1.0814763E-04   9.9347820E+05   -1.8816696E+00
   1.0864707E-04   9.8490318E+05   -1.8812529E+00
   1.0914881E-04   9.7640404E+05   -1.8808352E+00
   1.0965287E-04   9.6798011E+05   -1.8804165E+00
   1.1015926E-04   9.5963072E+05   -1.8799968E+00
   1.1066799E-04   9.5135518E+05   -1.8795760E+00
   1.1117906E-04   9.4315284E+05   -1.8791543E+00
   1.1169250E-04   9.3502303E+05   -1.8787316E+00
   1.1220831E-04   9.2696511E+05   -1.8783078E+00
   1.1272650E-04   9.1897843E+05   -1.8778831E+00
   1.1324708E-04   9.1106235E+05   -1.8774573E+00
   1.1377007E-04   9.0321623E+05   -1.8770306E+00
   1.1429547E-04   8.9543945E+05   -1.8766028E+00
   1.1482330E-04   8.8773138E+05   -1.8761741E+00
   1.1535356E-04   8.8009140E+05   -1.8757443E+00
   1.1588628E-04   8.7251890E+05   -1.8753136E+00
   1.1642145E-04   8.6501327E+05   -1.8748818E+00
   1.1695910E-04   8.5757392E+05   -1.8744491E+00
   1.1749923E-04   8.5020024E+05   -1.8740154E+00
   1.1804185E-04   8.4289165E+05   -1.8735806E+00
   1.1858698E-04   8.3564756E+05   -1.8731449E+00
   1.1913463E-04   8.2846740E+05   -1.8727082E+00
   1.1968481E-04   8.2135059E+05   -1.8722705E+00
   1.2023752E-04   8.1429655E+05   -1.8718318E+00
   1.2079279E-04   8.0730473E+05   -1.8713922E+00
   1.2135063E-04   8.0037458E+05   -1.8709515E+00
   1.2191104E-04   7.9350552E+05   -1.8705099E+00
   1.2247403E-04   7.8669702E+05   -1.8700672E+00
   1.2303963E-04   7.7994853E+05   -1.8696236E+00
   1.2360784E-04   7.7325951E+05   -1.8691791E+00
   1.2417868E-04   7.6662943E+05   -1.8687335E+00
   1.2475215E-04   7.6005776E+05   -1.8682870E+00
   1.2532826E-04   7.5354397E+05   -1.8678395E+00
   1.2590704E-04   7.4708755E+05   -1.8673910E+00
   1.2648850E-04   7.4068798E+05   -1.8669415E+00
   1.2707263E-04   7.3434476E+05   -1.8664911E+00
   1.2765947E-04   7.2805737E+05   -1.8660397E+00
   1.2824901E-04   7.2182531E+05   -1.8655874E+00
   1.2884128E-04   7.1564810E+05   -1.8651340E+00
   1.2943628E-04   7.0952523E+05   -1.8646798E+00
   1.3003403E-04   7.0345622E+05   -1.8642245E+00
   1.3063454E-04   6.9744058E+05   -1.8637683E+00
   1.3123783E-04   6.9147785E+05   -1.8633111E+00
   1.3184390E-04   6.8556753E+05   -1.8628530E+00
   1.3245277E-04   6.7970917E+05   -1.8623939E+00
   1.3306445E-04   6.7390230E+05   -1.8619339E+00
   1.3367895E-04   6.6814646E+05   -1.8614729E+00
   1.3429630E-04   6.6244118E+05   -1.8610110E+00
   1.3491649E-04   6.5678602E+05   -1.8605481E+00
   1.3553955E-04   6.5118053E+05   -1.8600843E+00
   1.3616548E-04   6.4562426E+05   -1.8596196E+00
   1.3679431E-04   6.4011678E+05   -1.8591539E+00
   1.3742604E-04   6.3465764E+05   -1.8586872E+00
   1.3806069E-04   6.2924641E+05   -1.8582197E+00
   1.3869827E-04   6.2388266E+05   -1.8577512E+00
   1.3933879E-04   6.1856597E+05   -1.8572817E+00
   1.3998227E-04   6.1329591E+05   -1.8568114E+00
   1.4062872E-04   6.0807208E+05   -1.8563401E+00
   1.4127816E-04   6.0289405E+05   -1.8558679E+00
   1.4193060E-04   5.9776141E+05   -1.8553947E+00
   1.4258605E-04   5.9267377E+05   -1.8549207E+00
   1.4324453E-04   5.8763071E+05   -1.8544457E+00
   1.4390605E-04   5.8263184E+05   -1.8539698E+00
   1.4457062E-04   5.7767676E+05   -1.8534930E+00
   1.4523826E-04   5.7276508E+05   -1.8530153E+00
   1.4590899E-04   5.6789641E+05   -1.8525366E+00
   1.4658281E-04   5.6307038E+05   -1.8520571E+00
   1.4725974E-04   5.5828659E+05   -1.8515767E+00
   1.4793981E-04   5.5354467E+05   -1.8510953E+00
   1.4862301E-04   5.4884424E+05   -1.8506131E+00
   1.4930936E-04   5.4418493E+05   -1.8501300E+00
   1.4999889E-04   5.3956639E+05   -1.8496460E+00
   1.5069160E-04   5.3498823E+05   -1.8491611E+00
   1.5138751E-04   5.3045011E+05   -1.8486753E+00
   1.5208663E-04   5.2595166E+05   -1.8481886E+00
   1.5278899E-04   5.2149253E+05   -1.8477010E+00
   1.5349458E-04   5.1707237E+05   -1.8472126E+00
   1.5420343E-04   5.1269083E+05   -1.8467233E+00
   1.5491556E-04   5.0834756E+05   -1.8462331E+00
   1.5563098E-04   5.0404223E+05   -1.8457420E+00
   1.5634970E-04   4.9977449E+05   -1.8452501E+00
   1.5707174E-04   4.9554401E+05   -1.8447573E+00
   1.5779711E-04   4.9135046E+05   -1.8442636E+00
   1.5852584E-04   4.8719350E+05   -1.8437691E+00
   1.5925792E-04   4.8307281E+05   -1.8432737E+00
   1.5999339E-04   4.7898807E+05   -1.8427775E+00
   1.6073226E-04   4.7493896E+05   -1.8422805E+00
   1.6147454E-04   4.7092516E+05   -1.8417825E+00
   1.6222024E-04   4.6694635E+05   -1.8412838E+00
   1.6296939E-04   4.6300222E+05   -1.8407842E+00
   1.6372200E-04   4.5909247E+05   -1.8402837E+00
   1.6447809E-04   4.5521678E+05   -1.8397825E+00
   1.6523767E-04   4.5137485E+05   -1.8392804E+00
   1.6600075E-04   4.4756638E+05   -1.8387774E+00
   1.6676736E-04   4.4379108E+05   -1.8382737E+00
   1.6753751E-04   4.4004864E+05   -1.8377691E+00
   1.6831122E-04   4.3633878E+05   -1.8372637E+00
   1.6908849E-04   4.3266120E+05   -1.8367575E+00
   1.6986936E-04   4.2901562E+05   -1.8362505E+00
   1.7065384E-04   4.2540176E+05   -1.8357427E+00
   1.7144193E-04   4.2181932E+05   -1.8352341E+00
   1.7223367E-04   4.1826803E+05   -1.8347246E+00
   1.7302906E-04   4.1474761E+05   -1.8342144E+00
   1.7382813E-04   4.1125780E+05   -1.8337034E+00
   1.7463089E-04   4.0779830E+05   -1.8331916E+00
   1.7543735E-04   4.0436887E+05   -1.8326790E+00
   1.7624754E-04   4.0096922E+05   -1.8321656E+00
   1.7706147E-04   3.9759909E+05   -1.8316515E+00
   1.7787916E-04   3.9425822E+05   -1.8311366E+00
   1.7870062E-04   3.9094636E+05   -1.8306209E+00
   1.7952588E-04   3.8766323E+05   -1.8301044E+00
   1.8035495E-04   3.8440860E+05   -1.8295872E+00
   1.8118785E-04   3.8118219E+05   -1.8290692E+00
   1.8202459E-04   3.7798377E+05   -1.8285505E+00
   1.8286520E-04   3.7481308E+05   -1.8280310E+00
   1.8370969E-04   3.7166989E+05   -1.8275107E+00
   1.8455808E-04   3.6855393E+05   -1.8269898E+00
   1.8541039E-04   3.6546497E+05   -1.8264680E+00
   1.8626663E-04   3.6240278E+05   -1.8259456E+00
   1.8712683E-04   3.5936711E+05   -1.8254224E+00
   1.8799100E-04   3.5635773E+05   -1.8248985E+00
   1.8885917E-04   3.5337440E+05   -1.8243738E+00
   1.8973134E-04   3.5041689E+05   -1.8238485E+00
   1.9060754E-04   3.4748498E+05   -1.8233224E+00
   1.9148778E-04   3.4457844E+05   -1.8227956E+00
   1.9237209E-04   3.4169703E+05   -1.8222681E+00
   1.9326049E-04   3.3884055E+05   -1.8217399E+00
   1.9415299E-04   3.3600876E+05   -1.8212110E+00
   1.9504960E-04   3.3320145E+05   -1.8206814E+00
   1.9595036E-04   3.3041841E+05   -1.8201511E+00
   1.9685528E-04   3.2765941E+05   -1.8196201E+00
   1.9776438E-04   3.2492424E+05   -1.8190885E+00
   1.9867768E-04   3.2221270E+05   -1.8185562E+00
   1.9959519E-04   3.1952457E+05   -1.8180231E+00
   2.0051694E-04   3.1685964E+05   -1.8174895E+00
   2.0144295E-04   3.1421771E+05   -1.8169551E+00
   2.0237324E-04   3.1159858E+05   -1.8164201E+00
   2.0330782E-04   3.0900204E+05   -1.8158845E+00
   2.0424671E-04   3.0642789E+05   -1.8153482E+00
   2.0518995E-04   3.0387594E+05   -1.8148112E+00
   2.0613754E-04   3.0134599E+05   -1.8142736E+00
   2.0708950E-04   2.9883784E+05   -1.8137354E+00
   2.0804586E-04   2.9635131E+05   -1.8131965E+00
   2.0900664E-04   2.9388619E+05   -1.8126570E+00
   2.0997185E-04   2.9144231E+05   -1.8121169E+00
   2.1094152E-04   2.8901946E+05   -1.8115762E+00
   2.1191567E-04   2.8661747E+05   -1.8110348E+00
   2.1289432E-04   2.8423616E+05   -1.8104929E+00
   2.1387749E-04   2.8187533E+05   -1.8099503E+00
   2.1486520E-04   2.7953481E+05   -1.8094071E+00
   2.1585747E-04   2.7721442E+05   -1.8088634E+00
   2.1685432E-04   2.7491398E+05   -1.8083190E+00
   2.1785578E-04   2.7263332E+05   -1.8077741E+00
   2.1886186E-04   2.7037225E+05   -1.8072286E+00
   2.1987259E-04   2.6813061E+05   -1.8066825E+00
   2.2088798E-04   2.6590823E+05   -1.8061358E+00
   2.2190807E-04   2.6370493E+05   -1.8055886E+00
   2.2293286E-04   2.6152054E+05   -1.8050408E+00
   2.2396239E-04   2.5935491E+05   -1.8044924E+00
   2.2499667E-04   2.5720785E+05   -1.8039435E+00
   2.2603573E-04   2.5507922E+05   -1.8033941E+00
   2.2707958E-04   2.5296885E+05   -1.8028441E+00
   2.2812826E-04   2.5087657E+05   -1.8022936E+00
   2.2918178E-04   2.4880223E+05   -1.8017425E+00
   2.3024017E-04   2.4674566E+05   -1.8011909E+00
   2.3130344E-04   2.4470672E+05   -1.8006388E+00
   2.3237162E-04   2.4268524E+05   -1.8000862E+00
   2.3344474E-04   2.4068108E+05   -1.7995331E+00
   2.3452281E-04   2.3869407E+05   -1.7989794E+00
   2.3560586E-04   2.3672408E+05   -1.7984253E+00
   2.3669392E-04   2.3477094E+05   -1.7978707E+00
   2.3778699E-04   2.3283451E+05   -1.7973156E+00
   2.3888512E-04   2.3091464E+05   -1.7967600E+00
   2.3998831E-04   2.2901120E+05   -1.7962039E+00
   2.4109661E-04   2.2712402E+05   -1.7956473E+00
   2.4221001E-04   2.2525297E+05   -1.7950903E+00
   2.4332857E-04   2.2339791E+05   -1.7945328E+00
   2.4445228E-04   2.2155870E+05   -1.7939748E+00
   2.4558119E-04   2.1973520E+05   -1.7934164E+00
   2.4671531E-04   2.1792726E+05   -1.7928576E+00
   2.4785467E-04   2.1613475E+05   -1.7922983E+00
   2.4899928E-04   2.1435755E+05   -1.7917386E+00
   2.5014919E-04   2.1259550E+05   -1.7911784E+00
   2.5130440E-04   2.1084848E+05   -1.7906178E+00
   2.5246495E-04   2.0911636E+05   -1.7900568E+00
   2.5363086E-04   2.0739901E+05   -1.7894954E+00
   2.5480216E-04   2.0569629E+05   -1.7889336E+00
   2.5597886E-04   2.0400808E+05   -1.7883713E+00
   2.5716100E-04   2.0233424E+05   -1.7878087E+00
   2.5834859E-04   2.0067467E+05   -1.7872457E+00
   2.5954168E-04   1.9902922E+05   -1.7866822E+00
   2.6074027E-04   1.9739777E+05   -1.7861185E+00
   2.6194439E-04   1.9578021E+05   -1.7855543E+00
   2.6315408E-04   1.9417640E+05   -1.7849897E+00
   2.6436935E-04   1.9258624E+05   -1.7844248E+00
   2.6559024E-04   1.9100960E+05   -1.7838596E+00
   2.6681676E-04   1.8944635E+05   -1.7832940E+00
   2.6804895E-04   1.8789639E+05   -1.7827280E+00
   2.6928683E-04   1.8635960E+05   -1.7821617E+00
   2.7053042E-04   1.8483586E+05   -1.7815950E+00
   2.7177976E-04   1.8332505E+05   -1.7810281E+00
   2.7303487E-04   1.8182708E+05   -1.7804608E+00
   2.7429577E-04   1.8034181E+05   -1.7798932E+00
   2.7556250E-04   1.7886914E+05   -1.7793252E+00
   2.7683507E-04   1.7740896E+05   -1.7787570E+00
   2.7811353E-04   1.7596117E+05   -1.7781884E+00
   2.7939788E-04   1.7452564E+05   -1.7776196E+00
   2.8068817E-04   1.7310228E+05   -1.7770505E+00
   2.8198442E-04   1.7169098E+05   -1.7764811E+00
   2.8328665E-04   1.7029164E+05   -1.7759114E+00
   2.8459490E-04   1.6890414E+05   -1.7753414E+00
   2.8590919E-04   1.6752838E+05   -1.7747712E+00
   2.8722955E-04   1.6616427E+05   -1.7742007E+00
   2.8855600E-04   1.6481170E+05   -1.7736300E+00
   2.8988859E-04   1.6347057E+05   -1.7730590E+00
   2.9122732E-04   1.6214078E+05   -1.7724877E+00
   2.9257224E-04   1.6082223E+05   -1.7719162E+00
   2.9392337E-04   1.5951483E+05   -1.7713445E+00
   2.9528074E-04   1.5821846E+05   -1.7707726E+00
   2.9664438E-04   1.5693305E+05   -1.7702005E+00
   2.9801431E-04   1.5565849E+05   -1.7696281E+00
   2.9939057E-04   1.5439469E+05   -1.7690555E+00
   3.0077319E-04   1.5314156E+05   -1.7684827E+00
   3.0216219E-04   1.5189899E+05   -1.7679098E+00
   3.0355761E-04   1.5066691E+05   -1.7673366E+00
   3.0495947E-04   1.4944522E+05   -1.7667633E+00
   3.0636780E-04   1.4823382E+05   -1.7661898E+00
   3.0778264E-04   1.4703263E+05   -1.7656161E+00
   3.0920401E-04   1.4584156E+05   -1.7650422E+00
   3.1063195E-04   1.4466052E+05   -1.7644682E+00
   3.1206648E-04   1.4348942E+05   -1.7638940E+00
   3.1350764E-04   1.4232819E+05   -1.7633197E+00
   3.1495545E-04   1.4117672E+05   -1.7627452E+00
   3.1640994E-04   1.4003494E+05   -1.7621706E+00
   3.1787116E-04   1.3890276E+05   -1.7615959E+00
   3.1933912E-04   1.3778010E+05   -1.7610210E+00
   3.2081386E-04   1.3666688E+05   -1.7604461E+00
   3.2229541E-04   1.3556301E+05   -1.7598710E+00
   3.2378381E-04   1.3446841E+05   -1.7592958E+00
   3.2527908E-04   1.3338300E+05   -1.7587205E+00
   3.2678125E-04   1.3230671E+05   -1.7581452E+00
   3.2829036E-04   1.3123945E+05   -1.7575697E+00
   3.2980644E-04   1.3018114E+05   -1.7569941E+00
   3.3132952E-04   1.2913171E+05   -1.7564185E+00
   3.3285963E-04   1.2809108E+05   -1.7558428E+00
   3.3439681E-04   1.2705917E+05   -1.7552671E+00
   3.3594109E-04   1.2603591E+05   -1.7546913E+00
   3.3749250E-04   1.2502122E+05   -1.7541154E+00
   3.3905108E-04   1.2401503E+05   -1.7535395E+00
   3.4061685E-04   1.2301727E+05   -1.7529636E+00
   3.4218986E-04   1.2202785E+05   -1.7523876E+00
   3.4377013E-04   1.2104672E+05   -1.7518116E+00
   3.4535769E-04   1.2007379E+05   -1.7512356E+00
   3.4695259E-04   1.1910900E+05   -1.7506595E+00
   3.4855485E-04   1.1815227E+05   -1.7500835E+00
   3.5016452E-04   1.1720354E+05   -1.7495075E+00
   3.5178161E-04   1.1626274E+05   -1.7489314E+00
   3.5340618E-04   1.1532979E+05   -1.7483554E+00
   3.5503824E-04   1.1440464E+05   -1.7477794E+00
   3.5667785E-04   1.1348720E+05   -1.7472034E+00
   3.5832502E-04   1.1257743E+05   -1.7466274E+00
   3.5997981E-04   1.1167524E+05   -1.7460515E+00
   3.6164223E-04   1.1078057E+05   -1.7454756E+00
   3.6331233E-04   1.0989337E+05   -1.7448998E+00
   3.6499015E-04   1.0901356E+05   -1.7443240E+00
   3.6667571E-04   1.0814108E+05   -1.7437483E+00
   3.6836906E-04   1.0727587E+05   -1.7431726E+00
   3.7007022E-04   1.0641786E+05   -1.7425970E+00
   3.7177925E-04   1.0556700E+05   -1.7420215E+00
   3.7349616E-04   1.0472321E+05   -1.7414461E+00
   3.7522101E-04   1.0388645E+05   -1.7408708E+00
   3.7695382E-04   1.0305664E+05   -1.7402955E+00
   3.7869463E-04   1.0223374E+05   -1.7397204E+00
   3.8044348E-04   1.0141767E+05   -1.7391454E+00
   3.8220041E-04   1.0060838E+05   -1.7385705E+00
   3.8396545E-04   9.9805820E+04   -1.7379957E+00
   3.8573864E-04   9.9009920E+04   -1.7374210E+00
   3.8752002E-04   9.8220628E+04   -1.7368465E+00
   3.8930963E-04   9.7437885E+04   -1.7362721E+00
   3.9110750E-04   9.6661637E+04   -1.7356978E+00
   3.9291368E-04   9.5891825E+04   -1.7351237E+00
   3.9472820E-04   9.5128396E+04   -1.7345498E+00
   3.9655109E-04   9.4371295E+04   -1.7339760E+00
   3.9838241E-04   9.3620467E+04   -1.7334024E+00
   4.0022218E-04   9.2875857E+04   -1.7328289E+00
   4.0207045E-04   9.2137414E+04   -1.7322557E+00
   4.0392725E-04   9.1405083E+04   -1.7316826E+00
   4.0579263E-04   9.0678813E+04   -1.7311097E+00
   4.0766662E-04   8.9958550E+04   -1.7305370E+00
   4.0954927E-04   8.9244244E+04   -1.7299646E+00
   4.1144061E-04   8.8535843E+04   -1.7293923E+00
   4.1334068E-04   8.7833297E+04   -1.7288202E+00
   4.1524953E-04   8.7136555E+04   -1.7282484E+00
   4.1716720E-04   8.6445568E+04   -1.7276768E+00
   4.1909372E-04   8.5760286E+04   -1.7271054E+00
   4.2102914E-04   8.5080661E+04   -1.7265343E+00
   4.2297350E-04   8.4406643E+04   -1.7259634E+00
   4.2492683E-04   8.3738185E+04   -1.7253928E+00
   4.2688919E-04   8.3075240E+04   -1.7248224E+00
   4.2886061E-04   8.2417760E+04   -1.7242523E+00
   4.3084113E-04   8.1765697E+04   -1.7236825E+00
   4.3283080E-04   8.1119007E+04   -1.7231129E+00
   4.3482966E-04   8.0477643E+04   -1.7225437E+00
   4.3683775E-04   7.9841558E+04   -1.7219747E+00
   4.3885511E-04   7.9210709E+04   -1.7214060E+00
   4.4088179E-04   7.8585051E+04   -1.7208376E+00
   4.4291783E-04   7.7964538E+04   -1.7202695E+00
   4.4496327E-04   7.7349127E+04   -1.7197017E+00
   4.4701816E-04   7.6738774E+04   -1.7191342E+00
   4.4908253E-04   7.6133437E+04   -1.7185671E+00
   4.5115644E-04   7.5533072E+04   -1.7180002E+00
   4.5323993E-04   7.4937638E+04   -1.7174337E+00
   4.5533304E-04   7.4347091E+04   -1.7168676E+00
   4.5743582E-04   7.3761390E+04   -1.7163018E+00
   4.5954830E-04   7.3180495E+04   -1.7157363E+00
   4.6167054E-04   7.2604362E+04   -1.7151712E+00
   4.6380259E-04   7.2032954E+04   -1.7146065E+00
   4.6594448E-04   7.1466228E+04   -1.7140421E+00
   4.6809626E-04   7.0904145E+04   -1.7134781E+00
   4.7025797E-04   7.0346666E+04   -1.7129145E+00
   4.7242967E-04   6.9793751E+04   -1.7123513E+00
   4.7461140E-04   6.9245361E+04   -1.7117884E+00
   4.7680321E-04   6.8701459E+04   -1.7112260E+00
   4.7900514E-04   6.8162005E+04   -1.7106639E+00
   4.8121723E-04   6.7626962E+04   -1.7101023E+00
   4.8343954E-04   6.7096293E+04   -1.7095410E+00
   4.8567212E-04   6.6569960E+04   -1.7089802E+00
   4.8791500E-04   6.6047926E+04   -1.7084198E+00
   4.9016825E-04   6.5530155E+04   -1.7078599E+00
   4.9243189E-04   6.5016611E+04   -1.7073003E+00
   4.9470600E-04   6.4507258E+04   -1.7067412E+00
   4.9699060E-04   6.4002059E+04   -1.7061826E+00
   4.9928575E-04   6.3500981E+04   -1.7056244E+00
   5.0159151E-04   6.3003988E+04   -1.7050667E+00
   5.0390791E-04   6.2511044E+04   -1.7045094E+00
   5.0623501E-04   6.2022117E+04   -1.7039526E+00
   5.0857286E-04   6.1537172E+04   -1.7033962E+00
   5.1092150E-04   6.1056175E+04   -1.7028403E+00
   5.1328099E-04   6.0579093E+04   -1.7022850E+00
   5.1565137E-04   6.0105892E+04   -1.7017301E+00
   5.1803270E-04   5.9636540E+04   -1.7011757E+00
   5.2042503E-04   5.9171005E+04   -1.7006217E+00
   5.2282841E-04   5.8709253E+04   -1.7000683E+00
   5.2524289E-04   5.8251252E+04   -1.6995154E+00
   5.2766851E-04   5.7796972E+04   -1.6989630E+00
   5.3010534E-04   5.7346381E+04   -1.6984112E+00
   5.3255342E-04   5.6899447E+04   -1.6978598E+00
   5.3501281E-04   5.6456140E+04   -1.6973090E+00
   5.3748356E-04   5.6016428E+04   -1.6967587E+00
   5.3996571E-04   5.5580282E+04   -1.6962090E+00
   5.4245933E-04   5.5147672E+04   -1.6956598E+00
   5.4496446E-04   5.4718567E+04   -1.6951111E+00
   5.4748117E-04   5.4292938E+04   -1.6945630E+00
   5.5000949E-04   5.3870756E+04   -1.6940155E+00
   5.5254949E-04   5.3451992E+04   -1.6934685E+00
   5.5510123E-04   5.3036616E+04   -1.6929221E+00
   5.5766474E-04   5.2624601E+04   -1.6923763E+00
   5.6024010E-04   5.2215918E+04   -1.6918310E+00
   5.6282734E-04   5.1810539E+04   -1.6912863E+00
   5.6542654E-04   5.1408436E+04   -1.6907422E+00
   5.6803774E-04   5.1009581E+04   -1.6901987E+00
   5.7066099E-04   5.0613947E+04   -1.6896558E+00
   5.7329637E-04   5.0221508E+04   -1.6891135E+00
   5.7594391E-04   4.9832236E+04   -1.6885719E+00
   5.7860368E-04   4.9446105E+04   -1.6880308E+00
   5.8127573E-04   4.9063088E+04   -1.6874903E+00
   5.8396012E-04   4.8683158E+04   -1.6869505E+00
   5.8665691E-04   4.8306291E+04   -1.6864113E+00
   5.8936616E-04   4.7932461E+04   -1.6858727E+00
   5.9208791E-04   4.7561641E+04   -1.6853347E+00
   5.9482223E-04   4.7193807E+04   -1.6847974E+00
   5.9756919E-04   4.6828934E+04   -1.6842607E+00
   6.0032882E-04   4.6466996E+04   -1.6837247E+00
   6.0310120E-04   4.6107970E+04   -1.6831894E+00
   6.0588639E-04   4.5751830E+04   -1.6826546E+00
   6.0868443E-04   4.5398554E+04   -1.6821206E+00
   6.1149540E-04   4.5048115E+04   -1.6815872E+00
   6.1431935E-04   4.4700492E+04   -1.6810545E+00
   6.1715634E-04   4.4355660E+04   -1.6805225E+00
   6.2000644E-04   4.4013596E+04   -1.6799911E+00
   6.2286969E-04   4.3674276E+04   -1.6794604E+00
