#        a       HoverH0(a)       dlogHdloga_of_a(a)
   1.0000000E-04   1.1368548E+06   -1.8804256E+00
   1.0046181E-04   1.1270487E+06   -1.8800059E+00
   1.0092575E-04   1.1173293E+06   -1.8795852E+00
   1.0139184E-04   1.1076960E+06   -1.8791635E+00
   1.0186008E-04   1.0981478E+06   -1.8787408E+00
   1.0233048E-04   1.0886840E+06   -1.8783171E+00
   1.0280305E-04   1.0793039E+06   -1.8778923E+00
   1.0327781E-04   1.0700068E+06   -1.8774666E+00
   1.0375475E-04   1.0607918E+06   -1.8770399E+00
   1.0423390E-04   1.0516582E+06   -1.8766122E+00
   1.0471527E-04   1.0426053E+06   -1.8761834E+00
   1.0519885E-04   1.0336324E+06   -1.8757537E+00
   1.0568467E-04   1.0247388E+06   -1.8753230E+00
   1.0617274E-04   1.0159237E+06   -1.8748913E+00
   1.0666305E-04   1.0071864E+06   -1.8744586E+00
   1.0715563E-04   9.9852627E+05   -1.8740248E+00
   1.0765049E-04   9.8994258E+05   -1.8735901E+00
   1.0814763E-04   9.8143465E+05   -1.8731545E+00
   1.0864707E-04   9.7300179E+05   -1.8727178E+00
   1.0914881E-04   9.6464334E+05   -1.8722801E+00
   1.0965287E-04   9.5635862E+05   -1.8718414E+00
   1.1015926E-04   9.4814696E+05   -1.8714018E+00
   1.1066799E-04   9.4000773E+05   -1.8709612E+00
   1.1117906E-04   9.3194025E+05   -1.8705196E+00
   1.1169250E-04   9.2394390E+05   -1.8700770E+00
   1.1220831E-04   9.1601803E+05   -1.8696334E+00
   1.1272650E-04   9.0816200E+05   -1.8691888E+00
   1.1324708E-04   9.0037520E+05   -1.8687433E+00
   1.1377007E-04   8.9265700E+05   -1.8682968E+00
   1.1429547E-04   8.8500679E+05   -1.8678493E+00
   1.1482330E-04   8.7742395E+05   -1.8674008E+00
   1.1535356E-04   8.6990788E+05   -1.8669514E+00
   1.1588628E-04   8.6245798E+05   -1.8665010E+00
   1.1642145E-04   8.5507365E+05   -1.8660497E+00
   1.1695910E-04   8.4775432E+05   -1.8655973E+00
   1.1749923E-04   8.4049939E+05   -1.8651440E+00
   1.1804185E-04   8.3330829E+05   -1.8646898E+00
   1.1858698E-04   8.2618045E+05   -1.8642345E+00
   1.1913463E-04   8.1911529E+05   -1.8637784E+00
   1.1968481E-04   8.1211226E+05   -1.8633212E+00
   1.2023752E-04   8.0517081E+05   -1.8628631E+00
   1.2079279E-04   7.9829037E+05   -1.8624041E+00
   1.2135063E-04   7.9147040E+05   -1.8619441E+00
   1.2191104E-04   7.8471037E+05   -1.8614831E+00
   1.2247403E-04   7.7800972E+05   -1.8610212E+00
   1.2303963E-04   7.7136794E+05   -1.8605584E+00
   1.2360784E-04   7.6478448E+05   -1.8600946E+00
   1.2417868E-04   7.5825884E+05   -1.8596299E+00
   1.2475215E-04   7.5179049E+05   -1.8591642E+00
   1.2532826E-04   7.4537892E+05   -1.8586976E+00
   1.2590704E-04   7.3902362E+05   -1.8582300E+00
   1.2648850E-04   7.3272409E+05   -1.8577616E+00
   1.2707263E-04   7.2647982E+05   -1.8572921E+00
   1.2765947E-04   7.2029033E+05   -1.8568218E+00
   1.2824901E-04   7.1415512E+05   -1.8563505E+00
   1.2884128E-04   7.0807371E+05   -1.8558783E+00
   1.2943628E-04   7.0204561E+05   -1.8554052E+00
   1.3003403E-04   6.9607035E+05   -1.8549312E+00
   1.3063454E-04   6.9014746E+05   -1.8544562E+00
   1.3123783E-04   6.8427646E+05   -1.8539804E+00
   1.3184390E-04   6.7845690E+05   -1.8535036E+00
   1.3245277E-04   6.7268831E+05   -1.8530259E+00
   1.3306445E-04   6.6697023E+05   -1.8525473E+00
   1.3367895E-04   6.6130222E+05   -1.8520678E+00
   1.3429630E-04   6.5568383E+05   -1.8515874E+00
   1.3491649E-04   6.5011461E+05   -1.8511061E+00
   1.3553955E-04   6.4459413E+05   -1.8506239E+00
   1.3616548E-04   6.3912195E+05   -1.8501408E+00
   1.3679431E-04   6.3369763E+05   -1.8496568E+00
   1.3742604E-04   6.2832075E+05   -1.8491719E+00
   1.3806069E-04   6.2299089E+05   -1.8486861E+00
   1.3869827E-04   6.1770762E+05   -1.8481995E+00
   1.3933879E-04   6.1247054E+05   -1.8477119E+00
   1.3998227E-04   6.0727922E+05   -1.8472235E+00
   1.4062872E-04   6.0213325E+05   -1.8467342E+00
   1.4127816E-04   5.9703224E+05   -1.8462440E+00
   1.4193060E-04   5.9197578E+05   -1.8457530E+00
   1.4258605E-04   5.8696348E+05   -1.8452611E+00
   1.4324453E-04   5.8199493E+05   -1.8447683E+00
   1.4390605E-04   5.7706976E+05   -1.8442747E+00
   1.4457062E-04   5.7218756E+05   -1.8437802E+00
   1.4523826E-04   5.6734797E+05   -1.8432849E+00
   1.4590899E-04   5.6255060E+05   -1.8427887E+00
   1.4658281E-04   5.5779506E+05   -1.8422916E+00
   1.4725974E-04   5.5308100E+05   -1.8417937E+00
   1.4793981E-04   5.4840803E+05   -1.8412950E+00
   1.4862301E-04   5.4377580E+05   -1.8407954E+00
   1.4930936E-04   5.3918393E+05   -1.8402950E+00
   1.4999889E-04   5.3463208E+05   -1.8397938E+00
   1.5069160E-04   5.3011987E+05   -1.8392917E+00
   1.5138751E-04   5.2564697E+05   -1.8387888E+00
   1.5208663E-04   5.2121301E+05   -1.8382851E+00
   1.5278899E-04   5.1681766E+05   -1.8377805E+00
   1.5349458E-04   5.1246057E+05   -1.8372751E+00
   1.5420343E-04   5.0814139E+05   -1.8367690E+00
   1.5491556E-04   5.0385979E+05   -1.8362620E+00
   1.5563098E-04   4.9961544E+05   -1.8357542E+00
   1.5634970E-04   4.9540800E+05   -1.8352456E+00
   1.5707174E-04   4.9123714E+05   -1.8347362E+00
   1.5779711E-04   4.8710254E+05   -1.8342260E+00
   1.5852584E-04   4.8300388E+05   -1.8337150E+00
   1.5925792E-04   4.7894084E+05   -1.8332032E+00
   1.5999339E-04   4.7491309E+05   -1.8326906E+00
   1.6073226E-04   4.7092033E+05   -1.8321773E+00
   1.6147454E-04   4.6696224E+05   -1.8316632E+00
   1.6222024E-04   4.6303852E+05   -1.8311483E+00
   1.6296939E-04   4.5914886E+05   -1.8306326E+00
   1.6372200E-04   4.5529295E+05   -1.8301162E+00
   1.6447809E-04   4.5147051E+05   -1.8295990E+00
   1.6523767E-04   4.4768122E+05   -1.8290810E+00
   1.6600075E-04   4.4392479E+05   -1.8285623E+00
   1.6676736E-04   4.4020094E+05   -1.8280428E+00
   1.6753751E-04   4.3650937E+05   -1.8275226E+00
   1.6831122E-04   4.3284980E+05   -1.8270017E+00
   1.6908849E-04   4.2922194E+05   -1.8264800E+00
   1.6986936E-04   4.2562551E+05   -1.8259575E+00
   1.7065384E-04   4.2206023E+05   -1.8254344E+00
   1.7144193E-04   4.1852582E+05   -1.8249105E+00
   1.7223367E-04   4.1502201E+05   -1.8243858E+00
   1.7302906E-04   4.1154854E+05   -1.8238605E+00
   1.7382813E-04   4.0810512E+05   -1.8233344E+00
   1.7463089E-04   4.0469149E+05   -1.8228077E+00
   1.7543735E-04   4.0130740E+05   -1.8222802E+00
   1.7624754E-04   3.9795257E+05   -1.8217520E+00
   1.7706147E-04   3.9462674E+05   -1.8212231E+00
   1.7787916E-04   3.9132967E+05   -1.8206936E+00
   1.7870062E-04   3.8806109E+05   -1.8201633E+00
   1.7952588E-04   3.8482075E+05   -1.8196324E+00
   1.8035495E-04   3.8160840E+05   -1.8191007E+00
   1.8118785E-04   3.7842379E+05   -1.8185684E+00
   1.8202459E-04   3.7526669E+05   -1.8180354E+00
   1.8286520E-04   3.7213683E+05   -1.8175018E+00
   1.8370969E-04   3.6903399E+05   -1.8169675E+00
   1.8455808E-04   3.6595792E+05   -1.8164325E+00
   1.8541039E-04   3.6290839E+05   -1.8158969E+00
   1.8626663E-04   3.5988515E+05   -1.8153606E+00
   1.8712683E-04   3.5688799E+05   -1.8148237E+00
   1.8799100E-04   3.5391666E+05   -1.8142861E+00
   1.8885917E-04   3.5097094E+05   -1.8137479E+00
   1.8973134E-04   3.4805060E+05   -1.8132090E+00
   1.9060754E-04   3.4515542E+05   -1.8126696E+00
   1.9148778E-04   3.4228517E+05   -1.8121295E+00
   1.9237209E-04   3.3943963E+05   -1.8115887E+00
   1.9326049E-04   3.3661859E+05   -1.8110474E+00
   1.9415299E-04   3.3382183E+05   -1.8105055E+00
   1.9504960E-04   3.3104913E+05   -1.8099629E+00
   1.9595036E-04   3.2830029E+05   -1.8094198E+00
   1.9685528E-04   3.2557508E+05   -1.8088761E+00
   1.9776438E-04   3.2287331E+05   -1.8083317E+00
   1.9867768E-04   3.2019476E+05   -1.8077868E+00
   1.9959519E-04   3.1753922E+05   -1.8072413E+00
   2.0051694E-04   3.1490651E+05   -1.8066952E+00
   2.0144295E-04   3.1229640E+05   -1.8061486E+00
   2.0237324E-04   3.0970871E+05   -1.8056014E+00
   2.0330782E-04   3.0714324E+05   -1.8050536E+00
   2.0424671E-04   3.0459979E+05   -1.8045053E+00
   2.0518995E-04   3.0207816E+05   -1.8039564E+00
   2.0613754E-04   2.9957817E+05   -1.8034070E+00
   2.0708950E-04   2.9709962E+05   -1.8028570E+00
   2.0804586E-04   2.9464232E+05   -1.8023065E+00
   2.0900664E-04   2.9220609E+05   -1.8017555E+00
   2.0997185E-04   2.8979074E+05   -1.8012039E+00
   2.1094152E-04   2.8739608E+05   -1.8006518E+00
   2.1191567E-04   2.8502194E+05   -1.8000992E+00
   2.1289432E-04   2.8266813E+05   -1.7995461E+00
   2.1387749E-04   2.8033447E+05   -1.7989925E+00
   2.1486520E-04   2.7802079E+05   -1.7984384E+00
   2.1585747E-04   2.7572691E+05   -1.7978838E+00
   2.1685432E-04   2.7345265E+05   -1.7973287E+00
   2.1785578E-04   2.7119785E+05   -1.7967731E+00
   2.1886186E-04   2.6896233E+05   -1.7962171E+00
   2.1987259E-04   2.6674592E+05   -1.7956605E+00
   2.2088798E-04   2.6454845E+05   -1.7951035E+00
   2.2190807E-04   2.6236976E+05   -1.7945460E+00
   2.2293286E-04   2.6020968E+05   -1.7939881E+00
   2.2396239E-04   2.5806805E+05   -1.7934297E+00
   2.2499667E-04   2.5594470E+05   -1.7928709E+00
   2.2603573E-04   2.5383948E+05   -1.7923116E+00
   2.2707958E-04   2.5175222E+05   -1.7917519E+00
   2.2812826E-04   2.4968277E+05   -1.7911918E+00
   2.2918178E-04   2.4763097E+05   -1.7906312E+00
   2.3024017E-04   2.4559666E+05   -1.7900702E+00
   2.3130344E-04   2.4357970E+05   -1.7895088E+00
   2.3237162E-04   2.4157993E+05   -1.7889470E+00
   2.3344474E-04   2.3959719E+05   -1.7883848E+00
   2.3452281E-04   2.3763135E+05   -1.7878222E+00
   2.3560586E-04   2.3568224E+05   -1.7872592E+00
   2.3669392E-04   2.3374973E+05   -1.7866958E+00
   2.3778699E-04   2.3183367E+05   -1.7861320E+00
   2.3888512E-04   2.2993391E+05   -1.7855679E+00
   2.3998831E-04   2.2805031E+05   -1.7850034E+00
   2.4109661E-04   2.2618273E+05   -1.7844385E+00
   2.4221001E-04   2.2433102E+05   -1.7838732E+00
   2.4332857E-04   2.2249506E+05   -1.7833076E+00
   2.4445228E-04   2.2067470E+05   -1.7827417E+00
   2.4558119E-04   2.1886980E+05   -1.7821754E+00
   2.4671531E-04   2.1708023E+05   -1.7816088E+00
   2.4785467E-04   2.1530585E+05   -1.7810418E+00
   2.4899928E-04   2.1354654E+05   -1.7804745E+00
   2.5014919E-04   2.1180216E+05   -1.7799069E+00
   2.5130440E-04   2.1007257E+05   -1.7793390E+00
   2.5246495E-04   2.0835765E+05   -1.7787708E+00
   2.5363086E-04   2.0665728E+05   -1.7782023E+00
   2.5480216E-04   2.0497132E+05   -1.7776335E+00
   2.5597886E-04   2.0329964E+05   -1.7770644E+00
   2.5716100E-04   2.0164213E+05   -1.7764950E+00
   2.5834859E-04   1.9999866E+05   -1.7759253E+00
   2.5954168E-04   1.9836910E+05   -1.7753554E+00
   2.6074027E-04   1.9675334E+05   -1.7747852E+00
   2.6194439E-04   1.9515125E+05   -1.7742147E+00
   2.6315408E-04   1.9356271E+05   -1.7736440E+00
   2.6436935E-04   1.9198761E+05   -1.7730730E+00
   2.6559024E-04   1.9042583E+05   -1.7725018E+00
   2.6681676E-04   1.8887725E+05   -1.7719303E+00
   2.6804895E-04   1.8734176E+05   -1.7713586E+00
   2.6928683E-04   1.8581924E+05   -1.7707867E+00
   2.7053042E-04   1.8430958E+05   -1.7702146E+00
   2.7177976E-04   1.8281266E+05   -1.7696422E+00
   2.7303487E-04   1.8132839E+05   -1.7690697E+00
   2.7429577E-04   1.7985663E+05   -1.7684969E+00
   2.7556250E-04   1.7839730E+05   -1.7679240E+00
   2.7683507E-04   1.7695027E+05   -1.7673508E+00
   2.7811353E-04   1.7551544E+05   -1.7667775E+00
   2.7939788E-04   1.7409271E+05   -1.7662040E+00
   2.8068817E-04   1.7268196E+05   -1.7656303E+00
   2.8198442E-04   1.7128310E+05   -1.7650565E+00
   2.8328665E-04   1.6989603E+05   -1.7644825E+00
   2.8459490E-04   1.6852063E+05   -1.7639083E+00
   2.8590919E-04   1.6715680E+05   -1.7633340E+00
   2.8722955E-04   1.6580446E+05   -1.7627596E+00
   2.8855600E-04   1.6446349E+05   -1.7621850E+00
   2.8988859E-04   1.6313379E+05   -1.7616103E+00
   2.9122732E-04   1.6181528E+05   -1.7610355E+00
   2.9257224E-04   1.6050785E+05   -1.7604605E+00
   2.9392337E-04   1.5921140E+05   -1.7598855E+00
   2.9528074E-04   1.5792584E+05   -1.7593103E+00
   2.9664438E-04   1.5665108E+05   -1.7587350E+00
   2.9801431E-04   1.5538702E+05   -1.7581597E+00
   2.9939057E-04   1.5413357E+05   -1.7575842E+00
   3.0077319E-04   1.5289064E+05   -1.7570087E+00
   3.0216219E-04   1.5165813E+05   -1.7564331E+00
   3.0355761E-04   1.5043595E+05   -1.7558574E+00
   3.0495947E-04   1.4922403E+05   -1.7552817E+00
   3.0636780E-04   1.4802225E+05   -1.7547059E+00
   3.0778264E-04   1.4683055E+05   -1.7541301E+00
   3.0920401E-04   1.4564882E+05   -1.7535542E+00
   3.1063195E-04   1.4447699E+05   -1.7529783E+00
   3.1206648E-04   1.4331497E+05   -1.7524023E+00
   3.1350764E-04   1.4216267E+05   -1.7518263E+00
   3.1495545E-04   1.4102001E+05   -1.7512503E+00
   3.1640994E-04   1.3988691E+05   -1.7506743E+00
   3.1787116E-04   1.3876328E+05   -1.7500983E+00
   3.1933912E-04   1.3764904E+05   -1.7495223E+00
   3.2081386E-04   1.3654411E+05   -1.7489463E+00
   3.2229541E-04   1.3544840E+05   -1.7483702E+00
   3.2378381E-04   1.3436185E+05   -1.7477942E+00
   3.2527908E-04   1.3328437E+05   -1.7472183E+00
   3.2678125E-04   1.3221588E+05   -1.7466423E+00
   3.2829036E-04   1.3115630E+05   -1.7460664E+00
   3.2980644E-04   1.3010556E+05   -1.7454906E+00
   3.3132952E-04   1.2906358E+05   -1.7449147E+00
   3.3285963E-04   1.2803028E+05   -1.7443390E+00
   3.3439681E-04   1.2700559E+05   -1.7437633E+00
   3.3594109E-04   1.2598944E+05   -1.7431876E+00
   3.3749250E-04   1.2498175E+05   -1.7426121E+00
   3.3905108E-04   1.2398245E+05   -1.7420366E+00
   3.4061685E-04   1.2299147E+05   -1.7414612E+00
   3.4218986E-04   1.2200873E+05   -1.7408859E+00
   3.4377013E-04   1.2103416E+05   -1.7403106E+00
   3.4535769E-04   1.2006769E+05   -1.7397355E+00
   3.4695259E-04   1.1910926E+05   -1.7391605E+00
   3.4855485E-04   1.1815879E+05   -1.7385856E+00
   3.5016452E-04   1.1721622E+05   -1.7380108E+00
   3.5178161E-04   1.1628147E+05   -1.7374362E+00
   3.5340618E-04   1.1535449E+05   -1.7368617E+00
   3.5503824E-04   1.1443519E+05   -1.7362873E+00
   3.5667785E-04   1.1352352E+05   -1.7357131E+00
   3.5832502E-04   1.1261942E+05   -1.7351390E+00
   3.5997981E-04   1.1172281E+05   -1.7345650E+00
   3.6164223E-04   1.1083363E+05   -1.7339913E+00
   3.6331233E-04   1.0995181E+05   -1.7334177E+00
   3.6499015E-04   1.0907731E+05   -1.7328443E+00
   3.6667571E-04   1.0821004E+05   -1.7322710E+00
   3.6836906E-04   1.0734995E+05   -1.7316980E+00
   3.7007022E-04   1.0649698E+05   -1.7311251E+00
   3.7177925E-04   1.0565107E+05   -1.7305524E+00
   3.7349616E-04   1.0481215E+05   -1.7299800E+00
   3.7522101E-04   1.0398017E+05   -1.7294077E+00
   3.7695382E-04   1.0315506E+05   -1.7288357E+00
   3.7869463E-04   1.0233677E+05   -1.7282639E+00
   3.8044348E-04   1.0152524E+05   -1.7276923E+00
   3.8220041E-04   1.0072041E+05   -1.7271209E+00
   3.8396545E-04   9.9922222E+04   -1.7265498E+00
   3.8573864E-04   9.9130621E+04   -1.7259790E+00
   3.8752002E-04   9.8345550E+04   -1.7254084E+00
   3.8930963E-04   9.7566952E+04   -1.7248380E+00
   3.9110750E-04   9.6794774E+04   -1.7242679E+00
   3.9291368E-04   9.6028958E+04   -1.7236981E+00
   3.9472820E-04   9.5269452E+04   -1.7231286E+00
   3.9655109E-04   9.4516200E+04   -1.7225593E+00
   3.9838241E-04   9.3769150E+04   -1.7219903E+00
   4.0022218E-04   9.3028249E+04   -1.7214216E+00
   4.0207045E-04   9.2293444E+04   -1.7208532E+00
   4.0392725E-04   9.1564682E+04   -1.7202852E+00
   4.0579263E-04   9.0841912E+04   -1.7197174E+00
   4.0766662E-04   9.0125084E+04   -1.7191499E+00
   4.0954927E-04   8.9414145E+04   -1.7185828E+00
   4.1144061E-04   8.8709046E+04   -1.7180160E+00
   4.1334068E-04   8.8009738E+04   -1.7174495E+00
   4.1524953E-04   8.7316170E+04   -1.7168834E+00
   4.1716720E-04   8.6628293E+04   -1.7163176E+00
   4.1909372E-04   8.5946060E+04   -1.7157522E+00
   4.2102914E-04   8.5269421E+04   -1.7151871E+00
   4.2297350E-04   8.4598330E+04   -1.7146224E+00
   4.2492683E-04   8.3932738E+04   -1.7140580E+00
   4.2688919E-04   8.3272600E+04   -1.7134940E+00
   4.2886061E-04   8.2617869E+04   -1.7129304E+00
   4.3084113E-04   8.1968498E+04   -1.7123672E+00
   4.3283080E-04   8.1324442E+04   -1.7118044E+00
   4.3482966E-04   8.0685656E+04   -1.7112420E+00
   4.3683775E-04   8.0052095E+04   -1.7106799E+00
   4.3885511E-04   7.9423714E+04   -1.7101183E+00
   4.4088179E-04   7.8800470E+04   -1.7095571E+00
   4.4291783E-04   7.8182318E+04   -1.7089963E+00
   4.4496327E-04   7.7569216E+04   -1.7084359E+00
   4.4701816E-04   7.6961120E+04   -1.7078760E+00
   4.4908253E-04   7.6357988E+04   -1.7073164E+00
   4.5115644E-04   7.5759779E+04   -1.7067574E+00
   4.5323993E-04   7.5166449E+04   -1.7061987E+00
   4.5533304E-04   7.4577958E+04   -1.7056406E+00
   4.5743582E-04   7.3994265E+04   -1.7050828E+00
   4.5954830E-04   7.3415329E+04   -1.7045256E+00
   4.6167054E-04   7.2841109E+04   -1.7039688E+00
   4.6380259E-04   7.2271565E+04   -1.7034124E+00
   4.6594448E-04   7.1706659E+04   -1.7028566E+00
   4.6809626E-04   7.1146351E+04   -1.7023012E+00
   4.7025797E-04   7.0590601E+04   -1.7017463E+00
   4.7242967E-04   7.0039371E+04   -1.7011919E+00
   4.7461140E-04   6.9492623E+04   -1.7006381E+00
   4.7680321E-04   6.8950319E+04   -1.7000847E+00
   4.7900514E-04   6.8412421E+04   -1.6995318E+00
   4.8121723E-04   6.7878893E+04   -1.6989794E+00
   4.8343954E-04   6.7349697E+04   -1.6984276E+00
   4.8567212E-04   6.6824796E+04   -1.6978762E+00
   4.8791500E-04   6.6304155E+04   -1.6973254E+00
   4.9016825E-04   6.5787737E+04   -1.6967752E+00
   4.9243189E-04   6.5275506E+04   -1.6962254E+00
   4.9470600E-04   6.4767428E+04   -1.6956763E+00
   4.9699060E-04   6.4263467E+04   -1.6951276E+00
   4.9928575E-04   6.3763588E+04   -1.6945795E+00
   5.0159151E-04   6.3267757E+04   -1.6940320E+00
   5.0390791E-04   6.2775941E+04   -1.6934851E+00
   5.0623501E-04   6.2288104E+04   -1.6929387E+00
   5.0857286E-04   6.1804214E+04   -1.6923928E+00
   5.1092150E-04   6.1324237E+04   -1.6918476E+00
   5.1328099E-04   6.0848140E+04   -1.6913029E+00
   5.1565137E-04   6.0375891E+04   -1.6907589E+00
   5.1803270E-04   5.9907458E+04   -1.6902154E+00
   5.2042503E-04   5.9442808E+04   -1.6896725E+00
   5.2282841E-04   5.8981908E+04   -1.6891302E+00
   5.2524289E-04   5.8524729E+04   -1.6885886E+00
   5.2766851E-04   5.8071238E+04   -1.6880475E+00
   5.3010534E-04   5.7621405E+04   -1.6875071E+00
   5.3255342E-04   5.7175199E+04   -1.6869672E+00
   5.3501281E-04   5.6732588E+04   -1.6864280E+00
   5.3748356E-04   5.6293544E+04   -1.6858895E+00
   5.3996571E-04   5.5858036E+04   -1.6853515E+00
   5.4245933E-04   5.5426035E+04   -1.6848142E+00
   5.4496446E-04   5.4997511E+04   -1.6842776E+00
   5.4748117E-04   5.4572435E+04   -1.6837416E+00
   5.5000949E-04   5.4150778E+04   -1.6832062E+00
   5.5254949E-04   5.3732512E+04   -1.6826716E+00
   5.5510123E-04   5.3317607E+04   -1.6821375E+00
   5.5766474E-04   5.2906036E+04   -1.6816042E+00
   5.6024010E-04   5.2497771E+04   -1.6810715E+00
   5.6282734E-04   5.2092785E+04   -1.6805395E+00
   5.6542654E-04   5.1691049E+04   -1.6800081E+00
   5.6803774E-04   5.1292537E+04   -1.6794775E+00
   5.7066099E-04   5.0897221E+04   -1.6789475E+00
   5.7329637E-04   5.0505076E+04   -1.6784182E+00
   5.7594391E-04   5.0116074E+04   -1.6778896E+00
   5.7860368E-04   4.9730189E+04   -1.6773618E+00
   5.8127573E-04   4.9347396E+04   -1.6768346E+00
   5.8396012E-04   4.8967668E+04   -1.6763081E+00
   5.8665691E-04   4.8590979E+04   -1.6757824E+00
   5.8936616E-04   4.8217305E+04   -1.6752574E+00
   5.9208791E-04   4.7846621E+04   -1.6747330E+00
   5.9482223E-04   4.7478901E+04   -1.6742095E+00
   5.9756919E-04   4.7114120E+04   -1.6736866E+00
   6.0032882E-04   4.6752254E+04   -1.6731645E+00
   6.0310120E-04   4.6393280E+04   -1.6726431E+00
   6.0588639E-04   4.6037172E+04   -1.6721225E+00
   6.0868443E-04   4.5683907E+04   -1.6716026E+00
   6.1149540E-04   4.5333461E+04   -1.6710834E+00
   6.1431935E-04   4.4985812E+04   -1.6705650E+00
   6.1715634E-04   4.4640935E+04   -1.6700474E+00
   6.2000644E-04   4.4298807E+04   -1.6695305E+00
   6.2286969E-04   4.3959406E+04   -1.6690144E+00
