#        a       HoverH0(a)       dlogHdloga_of_a(a)
   1.0000000E-04   1.1367355E+06   -1.8905811E+00
   1.0046181E-04   1.1268777E+06   -1.8901867E+00
   1.0092575E-04   1.1171073E+06   -1.8897914E+00
   1.0139184E-04   1.1074237E+06   -1.8893950E+00
   1.0186008E-04   1.0978261E+06   -1.8889976E+00
   1.0233048E-04   1.0883136E+06   -1.8885992E+00
   1.0280305E-04   1.0788855E+06   -1.8881997E+00
   1.0327781E-04   1.0695411E+06   -1.8877993E+00
   1.0375475E-04   1.0602796E+06   -1.8873978E+00
   1.0423390E-04   1.0511002E+06   -1.8869953E+00
   1.0471527E-04   1.0420022E+06   -1.8865918E+00
   1.0519885E-04   1.0329849E+06   -1.8861872E+00
   1.0568467E-04   1.0240475E+06   -1.8857817E+00
   1.0617274E-04   1.0151894E+06   -1.8853751E+00
   1.0666305E-04   1.0064098E+06   -1.8849675E+00
   1.0715563E-04   9.9770795E+05   -1.8845589E+00
   1.0765049E-04   9.8908323E+05   -1.8841493E+00
   1.0814763E-04   9.8053492E+05   -1.8837387E+00
   1.0864707E-04   9.7206233E+05   -1.8833271E+00
   1.0914881E-04   9.6366479E+05   -1.8829144E+00
   1.0965287E-04   9.5534160E+05   -1.8825008E+00
   1.1015926E-04   9.4709211E+05   -1.8820861E+00
   1.1066799E-04   9.3891566E+05   -1.8816704E+00
   1.1117906E-04   9.3081157E+05   -1.8812537E+00
   1.1169250E-04   9.2277921E+05   -1.8808360E+00
   1.1220831E-04   9.1481793E+05   -1.8804173E+00
   1.1272650E-04   9.0692708E+05   -1.8799976E+00
   1.1324708E-04   8.9910604E+05   -1.8795768E+00
   1.1377007E-04   8.9135417E+05   -1.8791551E+00
   1.1429547E-04   8.8367086E+05   -1.8787324E+00
   1.1482330E-04   8.7605549E+05   -1.8783086E+00
   1.1535356E-04   8.6850744E+05   -1.8778839E+00
   1.1588628E-04   8.6102612E+05   -1.8774581E+00
   1.1642145E-04   8.5361091E+05   -1.8770314E+00
   1.1695910E-04   8.4626123E+05   -1.8766036E+00
   1.1749923E-04   8.3897648E+05   -1.8761749E+00
   1.1804185E-04   8.3175609E+05   -1.8757451E+00
   1.1858698E-04   8.2459947E+05   -1.8753144E+00
   1.1913463E-04   8.1750606E+05   -1.8748826E+00
   1.1968481E-04   8.1047528E+05   -1.8744499E+00
   1.2023752E-04   8.0350657E+05   -1.8740162E+00
   1.2079279E-04   7.9659937E+05   -1.8735814E+00
   1.2135063E-04   7.8975313E+05   -1.8731457E+00
   1.2191104E-04   7.8296731E+05   -1.8727090E+00
   1.2247403E-04   7.7624135E+05   -1.8722713E+00
   1.2303963E-04   7.6957473E+05   -1.8718326E+00
   1.2360784E-04   7.6296691E+05   -1.8713930E+00
   1.2417868E-04   7.5641735E+05   -1.8709523E+00
   1.2475215E-04   7.4992555E+05   -1.8705107E+00
   1.2532826E-04   7.4349097E+05   -1.8700681E+00
   1.2590704E-04   7.3711311E+05   -1.8696245E+00
   1.2648850E-04   7.3079145E+05   -1.8691799E+00
   1.2707263E-04   7.2452550E+05   -1.8687343E+00
   1.2765947E-04   7.1831475E+05   -1.8682878E+00
   1.2824901E-04   7.1215870E+05   -1.8678403E+00
   1.2884128E-04   7.0605687E+05   -1.8673918E+00
   1.2943628E-04   7.0000877E+05   -1.8669423E+00
   1.3003403E-04   6.9401392E+05   -1.8664919E+00
   1.3063454E-04   6.8807184E+05   -1.8660405E+00
   1.3123783E-04   6.8218205E+05   -1.8655882E+00
   1.3184390E-04   6.7634409E+05   -1.8651349E+00
   1.3245277E-04   6.7055749E+05   -1.8646806E+00
   1.3306445E-04   6.6482179E+05   -1.8642253E+00
   1.3367895E-04   6.5913653E+05   -1.8637691E+00
   1.3429630E-04   6.5350127E+05   -1.8633120E+00
   1.3491649E-04   6.4791556E+05   -1.8628538E+00
   1.3553955E-04   6.4237894E+05   -1.8623948E+00
   1.3616548E-04   6.3689099E+05   -1.8619347E+00
   1.3679431E-04   6.3145126E+05   -1.8614738E+00
   1.3742604E-04   6.2605932E+05   -1.8610118E+00
   1.3806069E-04   6.2071475E+05   -1.8605490E+00
   1.3869827E-04   6.1541711E+05   -1.8600852E+00
   1.3933879E-04   6.1016600E+05   -1.8596204E+00
   1.3998227E-04   6.0496098E+05   -1.8591547E+00
   1.4062872E-04   5.9980166E+05   -1.8586881E+00
   1.4127816E-04   5.9468762E+05   -1.8582205E+00
   1.4193060E-04   5.8961845E+05   -1.8577520E+00
   1.4258605E-04   5.8459375E+05   -1.8572826E+00
   1.4324453E-04   5.7961313E+05   -1.8568122E+00
   1.4390605E-04   5.7467619E+05   -1.8563409E+00
   1.4457062E-04   5.6978254E+05   -1.8558687E+00
   1.4523826E-04   5.6493180E+05   -1.8553955E+00
   1.4590899E-04   5.6012357E+05   -1.8549215E+00
   1.4658281E-04   5.5535748E+05   -1.8544465E+00
   1.4725974E-04   5.5063315E+05   -1.8539706E+00
   1.4793981E-04   5.4595020E+05   -1.8534938E+00
   1.4862301E-04   5.4130828E+05   -1.8530161E+00
   1.4930936E-04   5.3670700E+05   -1.8525375E+00
   1.4999889E-04   5.3214601E+05   -1.8520579E+00
   1.5069160E-04   5.2762495E+05   -1.8515775E+00
   1.5138751E-04   5.2314345E+05   -1.8510962E+00
   1.5208663E-04   5.1870118E+05   -1.8506139E+00
   1.5278899E-04   5.1429776E+05   -1.8501308E+00
   1.5349458E-04   5.0993287E+05   -1.8496468E+00
   1.5420343E-04   5.0560615E+05   -1.8491619E+00
   1.5491556E-04   5.0131727E+05   -1.8486761E+00
   1.5563098E-04   4.9706587E+05   -1.8481894E+00
   1.5634970E-04   4.9285164E+05   -1.8477019E+00
   1.5707174E-04   4.8867424E+05   -1.8472134E+00
   1.5779711E-04   4.8453333E+05   -1.8467241E+00
   1.5852584E-04   4.8042860E+05   -1.8462339E+00
   1.5925792E-04   4.7635972E+05   -1.8457428E+00
   1.5999339E-04   4.7232636E+05   -1.8452509E+00
   1.6073226E-04   4.6832823E+05   -1.8447581E+00
   1.6147454E-04   4.6436498E+05   -1.8442645E+00
   1.6222024E-04   4.6043633E+05   -1.8437700E+00
   1.6296939E-04   4.5654196E+05   -1.8432746E+00
   1.6372200E-04   4.5268156E+05   -1.8427784E+00
   1.6447809E-04   4.4885482E+05   -1.8422813E+00
   1.6523767E-04   4.4506146E+05   -1.8417834E+00
   1.6600075E-04   4.4130117E+05   -1.8412846E+00
   1.6676736E-04   4.3757366E+05   -1.8407850E+00
   1.6753751E-04   4.3387863E+05   -1.8402846E+00
   1.6831122E-04   4.3021579E+05   -1.8397833E+00
   1.6908849E-04   4.2658486E+05   -1.8392812E+00
   1.6986936E-04   4.2298556E+05   -1.8387783E+00
   1.7065384E-04   4.1941760E+05   -1.8382745E+00
   1.7144193E-04   4.1588070E+05   -1.8377699E+00
   1.7223367E-04   4.1237459E+05   -1.8372646E+00
   1.7302906E-04   4.0889898E+05   -1.8367584E+00
   1.7382813E-04   4.0545362E+05   -1.8362513E+00
   1.7463089E-04   4.0203823E+05   -1.8357435E+00
   1.7543735E-04   3.9865254E+05   -1.8352349E+00
   1.7624754E-04   3.9529629E+05   -1.8347255E+00
   1.7706147E-04   3.9196922E+05   -1.8342152E+00
   1.7787916E-04   3.8867107E+05   -1.8337042E+00
   1.7870062E-04   3.8540157E+05   -1.8331924E+00
   1.7952588E-04   3.8216048E+05   -1.8326798E+00
   1.8035495E-04   3.7894754E+05   -1.8321665E+00
   1.8118785E-04   3.7576250E+05   -1.8316523E+00
   1.8202459E-04   3.7260512E+05   -1.8311374E+00
   1.8286520E-04   3.6947514E+05   -1.8306217E+00
   1.8370969E-04   3.6637233E+05   -1.8301052E+00
   1.8455808E-04   3.6329644E+05   -1.8295880E+00
   1.8541039E-04   3.6024724E+05   -1.8290700E+00
   1.8626663E-04   3.5722448E+05   -1.8285513E+00
   1.8712683E-04   3.5422793E+05   -1.8280318E+00
   1.8799100E-04   3.5125735E+05   -1.8275116E+00
   1.8885917E-04   3.4831253E+05   -1.8269906E+00
   1.8973134E-04   3.4539322E+05   -1.8264689E+00
   1.9060754E-04   3.4249920E+05   -1.8259464E+00
   1.9148778E-04   3.3963025E+05   -1.8254232E+00
   1.9237209E-04   3.3678615E+05   -1.8248993E+00
   1.9326049E-04   3.3396666E+05   -1.8243746E+00
   1.9415299E-04   3.3117159E+05   -1.8238493E+00
   1.9504960E-04   3.2840070E+05   -1.8233232E+00
   1.9595036E-04   3.2565378E+05   -1.8227964E+00
   1.9685528E-04   3.2293063E+05   -1.8222689E+00
   1.9776438E-04   3.2023103E+05   -1.8217407E+00
   1.9867768E-04   3.1755477E+05   -1.8212118E+00
   1.9959519E-04   3.1490164E+05   -1.8206822E+00
   2.0051694E-04   3.1227144E+05   -1.8201519E+00
   2.0144295E-04   3.0966396E+05   -1.8196210E+00
   2.0237324E-04   3.0707901E+05   -1.8190893E+00
   2.0330782E-04   3.0451639E+05   -1.8185570E+00
   2.0424671E-04   3.0197589E+05   -1.8180240E+00
   2.0518995E-04   2.9945732E+05   -1.8174903E+00
   2.0613754E-04   2.9696049E+05   -1.8169559E+00
   2.0708950E-04   2.9448520E+05   -1.8164209E+00
   2.0804586E-04   2.9203127E+05   -1.8158853E+00
   2.0900664E-04   2.8959850E+05   -1.8153490E+00
   2.0997185E-04   2.8718670E+05   -1.8148120E+00
   2.1094152E-04   2.8479570E+05   -1.8142744E+00
   2.1191567E-04   2.8242530E+05   -1.8137362E+00
   2.1289432E-04   2.8007533E+05   -1.8131973E+00
   2.1387749E-04   2.7774560E+05   -1.8126578E+00
   2.1486520E-04   2.7543593E+05   -1.8121177E+00
   2.1585747E-04   2.7314615E+05   -1.8115770E+00
   2.1685432E-04   2.7087608E+05   -1.8110356E+00
   2.1785578E-04   2.6862555E+05   -1.8104937E+00
   2.1886186E-04   2.6639438E+05   -1.8099511E+00
   2.1987259E-04   2.6418241E+05   -1.8094079E+00
   2.2088798E-04   2.6198946E+05   -1.8088642E+00
   2.2190807E-04   2.5981536E+05   -1.8083198E+00
   2.2293286E-04   2.5765995E+05   -1.8077749E+00
   2.2396239E-04   2.5552306E+05   -1.8072293E+00
   2.2499667E-04   2.5340454E+05   -1.8066833E+00
   2.2603573E-04   2.5130421E+05   -1.8061366E+00
   2.2707958E-04   2.4922191E+05   -1.8055894E+00
   2.2812826E-04   2.4715750E+05   -1.8050416E+00
   2.2918178E-04   2.4511080E+05   -1.8044932E+00
   2.3024017E-04   2.4308167E+05   -1.8039443E+00
   2.3130344E-04   2.4106994E+05   -1.8033949E+00
   2.3237162E-04   2.3907547E+05   -1.8028449E+00
   2.3344474E-04   2.3709810E+05   -1.8022943E+00
   2.3452281E-04   2.3513768E+05   -1.8017433E+00
   2.3560586E-04   2.3319407E+05   -1.8011917E+00
   2.3669392E-04   2.3126710E+05   -1.8006396E+00
   2.3778699E-04   2.2935665E+05   -1.8000870E+00
   2.3888512E-04   2.2746256E+05   -1.7995338E+00
   2.3998831E-04   2.2558468E+05   -1.7989802E+00
   2.4109661E-04   2.2372288E+05   -1.7984261E+00
   2.4221001E-04   2.2187701E+05   -1.7978714E+00
   2.4332857E-04   2.2004693E+05   -1.7973163E+00
   2.4445228E-04   2.1823250E+05   -1.7967607E+00
   2.4558119E-04   2.1643359E+05   -1.7962046E+00
   2.4671531E-04   2.1465006E+05   -1.7956480E+00
   2.4785467E-04   2.1288178E+05   -1.7950910E+00
   2.4899928E-04   2.1112860E+05   -1.7945335E+00
   2.5014919E-04   2.0939040E+05   -1.7939756E+00
   2.5130440E-04   2.0766704E+05   -1.7934172E+00
   2.5246495E-04   2.0595840E+05   -1.7928583E+00
   2.5363086E-04   2.0426434E+05   -1.7922990E+00
   2.5480216E-04   2.0258474E+05   -1.7917393E+00
   2.5597886E-04   2.0091947E+05   -1.7911791E+00
   2.5716100E-04   1.9926840E+05   -1.7906185E+00
   2.5834859E-04   1.9763140E+05   -1.7900575E+00
   2.5954168E-04   1.9600837E+05   -1.7894961E+00
   2.6074027E-04   1.9439916E+05   -1.7889343E+00
   2.6194439E-04   1.9280367E+05   -1.7883720E+00
   2.6315408E-04   1.9122177E+05   -1.7878094E+00
   2.6436935E-04   1.8965333E+05   -1.7872464E+00
   2.6559024E-04   1.8809825E+05   -1.7866829E+00
   2.6681676E-04   1.8655641E+05   -1.7861191E+00
   2.6804895E-04   1.8502768E+05   -1.7855550E+00
   2.6928683E-04   1.8351196E+05   -1.7849904E+00
   2.7053042E-04   1.8200913E+05   -1.7844255E+00
   2.7177976E-04   1.8051908E+05   -1.7838603E+00
   2.7303487E-04   1.7904169E+05   -1.7832946E+00
   2.7429577E-04   1.7757686E+05   -1.7827287E+00
   2.7556250E-04   1.7612447E+05   -1.7821624E+00
   2.7683507E-04   1.7468441E+05   -1.7815957E+00
   2.7811353E-04   1.7325658E+05   -1.7810287E+00
   2.7939788E-04   1.7184087E+05   -1.7804614E+00
   2.8068817E-04   1.7043718E+05   -1.7798938E+00
   2.8198442E-04   1.6904539E+05   -1.7793259E+00
   2.8328665E-04   1.6766541E+05   -1.7787576E+00
   2.8459490E-04   1.6629713E+05   -1.7781891E+00
   2.8590919E-04   1.6494044E+05   -1.7776203E+00
   2.8722955E-04   1.6359526E+05   -1.7770511E+00
   2.8855600E-04   1.6226147E+05   -1.7764817E+00
   2.8988859E-04   1.6093897E+05   -1.7759120E+00
   2.9122732E-04   1.5962768E+05   -1.7753421E+00
   2.9257224E-04   1.5832748E+05   -1.7747718E+00
   2.9392337E-04   1.5703829E+05   -1.7742013E+00
   2.9528074E-04   1.5576000E+05   -1.7736306E+00
   2.9664438E-04   1.5449253E+05   -1.7730596E+00
   2.9801431E-04   1.5323577E+05   -1.7724883E+00
   2.9939057E-04   1.5198964E+05   -1.7719169E+00
   3.0077319E-04   1.5075404E+05   -1.7713452E+00
   3.0216219E-04   1.4952887E+05   -1.7707732E+00
   3.0355761E-04   1.4831406E+05   -1.7702011E+00
   3.0495947E-04   1.4710950E+05   -1.7696287E+00
   3.0636780E-04   1.4591511E+05   -1.7690561E+00
   3.0778264E-04   1.4473080E+05   -1.7684833E+00
   3.0920401E-04   1.4355648E+05   -1.7679104E+00
   3.1063195E-04   1.4239206E+05   -1.7673372E+00
   3.1206648E-04   1.4123746E+05   -1.7667639E+00
   3.1350764E-04   1.4009259E+05   -1.7661903E+00
   3.1495545E-04   1.3895738E+05   -1.7656166E+00
   3.1640994E-04   1.3783172E+05   -1.7650428E+00
   3.1787116E-04   1.3671555E+05   -1.7644687E+00
   3.1933912E-04   1.3560877E+05   -1.7638946E+00
   3.2081386E-04   1.3451131E+05   -1.7633202E+00
   3.2229541E-04   1.3342308E+05   -1.7627458E+00
   3.2378381E-04   1.3234401E+05   -1.7621712E+00
   3.2527908E-04   1.3127401E+05   -1.7615964E+00
   3.2678125E-04   1.3021301E+05   -1.7610216E+00
   3.2829036E-04   1.2916093E+05   -1.7604466E+00
   3.2980644E-04   1.2811768E+05   -1.7598715E+00
   3.3132952E-04   1.2708320E+05   -1.7592963E+00
   3.3285963E-04   1.2605740E+05   -1.7587211E+00
   3.3439681E-04   1.2504022E+05   -1.7581457E+00
   3.3594109E-04   1.2403158E+05   -1.7575702E+00
   3.3749250E-04   1.2303139E+05   -1.7569947E+00
   3.3905108E-04   1.2203960E+05   -1.7564190E+00
   3.4061685E-04   1.2105612E+05   -1.7558433E+00
   3.4218986E-04   1.2008089E+05   -1.7552676E+00
   3.4377013E-04   1.1911382E+05   -1.7546918E+00
   3.4535769E-04   1.1815486E+05   -1.7541159E+00
   3.4695259E-04   1.1720393E+05   -1.7535400E+00
   3.4855485E-04   1.1626097E+05   -1.7529640E+00
   3.5016452E-04   1.1532589E+05   -1.7523881E+00
   3.5178161E-04   1.1439864E+05   -1.7518121E+00
   3.5340618E-04   1.1347915E+05   -1.7512360E+00
   3.5503824E-04   1.1256735E+05   -1.7506600E+00
   3.5667785E-04   1.1166316E+05   -1.7500840E+00
   3.5832502E-04   1.1076654E+05   -1.7495079E+00
   3.5997981E-04   1.0987741E+05   -1.7489319E+00
   3.6164223E-04   1.0899570E+05   -1.7483558E+00
   3.6331233E-04   1.0812135E+05   -1.7477798E+00
   3.6499015E-04   1.0725431E+05   -1.7472038E+00
   3.6667571E-04   1.0639450E+05   -1.7466279E+00
   3.6836906E-04   1.0554186E+05   -1.7460519E+00
   3.7007022E-04   1.0469633E+05   -1.7454760E+00
   3.7177925E-04   1.0385785E+05   -1.7449002E+00
   3.7349616E-04   1.0302636E+05   -1.7443244E+00
   3.7522101E-04   1.0220180E+05   -1.7437487E+00
   3.7695382E-04   1.0138411E+05   -1.7431730E+00
   3.7869463E-04   1.0057322E+05   -1.7425974E+00
   3.8044348E-04   9.9769090E+04   -1.7420219E+00
   3.8220041E-04   9.8971648E+04   -1.7414465E+00
   3.8396545E-04   9.8180840E+04   -1.7408711E+00
   3.8573864E-04   9.7396609E+04   -1.7402959E+00
   3.8752002E-04   9.6618897E+04   -1.7397208E+00
   3.8930963E-04   9.5847650E+04   -1.7391457E+00
   3.9110750E-04   9.5082811E+04   -1.7385708E+00
   3.9291368E-04   9.4324325E+04   -1.7379960E+00
   3.9472820E-04   9.3572138E+04   -1.7374213E+00
   3.9655109E-04   9.2826194E+04   -1.7368468E+00
   3.9838241E-04   9.2086441E+04   -1.7362724E+00
   4.0022218E-04   9.1352825E+04   -1.7356981E+00
   4.0207045E-04   9.0625293E+04   -1.7351240E+00
   4.0392725E-04   8.9903793E+04   -1.7345501E+00
   4.0579263E-04   8.9188273E+04   -1.7339763E+00
   4.0766662E-04   8.8478681E+04   -1.7334026E+00
   4.0954927E-04   8.7774967E+04   -1.7328292E+00
   4.1144061E-04   8.7077080E+04   -1.7322559E+00
   4.1334068E-04   8.6384969E+04   -1.7316829E+00
   4.1524953E-04   8.5698587E+04   -1.7311100E+00
   4.1716720E-04   8.5017882E+04   -1.7305373E+00
   4.1909372E-04   8.4342806E+04   -1.7299648E+00
   4.2102914E-04   8.3673312E+04   -1.7293925E+00
   4.2297350E-04   8.3009350E+04   -1.7288205E+00
   4.2492683E-04   8.2350875E+04   -1.7282486E+00
   4.2688919E-04   8.1697838E+04   -1.7276770E+00
   4.2886061E-04   8.1050193E+04   -1.7271057E+00
   4.3084113E-04   8.0407893E+04   -1.7265345E+00
   4.3283080E-04   7.9770894E+04   -1.7259636E+00
   4.3482966E-04   7.9139149E+04   -1.7253930E+00
   4.3683775E-04   7.8512614E+04   -1.7248226E+00
   4.3885511E-04   7.7891243E+04   -1.7242525E+00
   4.4088179E-04   7.7274993E+04   -1.7236827E+00
   4.4291783E-04   7.6663820E+04   -1.7231131E+00
   4.4496327E-04   7.6057680E+04   -1.7225438E+00
   4.4701816E-04   7.5456530E+04   -1.7219748E+00
   4.4908253E-04   7.4860328E+04   -1.7214061E+00
   4.5115644E-04   7.4269032E+04   -1.7208377E+00
   4.5323993E-04   7.3682599E+04   -1.7202696E+00
   4.5533304E-04   7.3100987E+04   -1.7197018E+00
   4.5743582E-04   7.2524157E+04   -1.7191343E+00
   4.5954830E-04   7.1952066E+04   -1.7185672E+00
   4.6167054E-04   7.1384674E+04   -1.7180003E+00
   4.6380259E-04   7.0821941E+04   -1.7174338E+00
   4.6594448E-04   7.0263828E+04   -1.7168677E+00
   4.6809626E-04   6.9710295E+04   -1.7163019E+00
   4.7025797E-04   6.9161303E+04   -1.7157364E+00
   4.7242967E-04   6.8616813E+04   -1.7151713E+00
   4.7461140E-04   6.8076787E+04   -1.7146065E+00
   4.7680321E-04   6.7541186E+04   -1.7140422E+00
   4.7900514E-04   6.7009974E+04   -1.7134782E+00
   4.8121723E-04   6.6483112E+04   -1.7129145E+00
   4.8343954E-04   6.5960564E+04   -1.7123513E+00
   4.8567212E-04   6.5442293E+04   -1.7117884E+00
   4.8791500E-04   6.4928263E+04   -1.7112260E+00
   4.9016825E-04   6.4418437E+04   -1.7106639E+00
   4.9243189E-04   6.3912780E+04   -1.7101023E+00
   4.9470600E-04   6.3411256E+04   -1.7095410E+00
   4.9699060E-04   6.2913829E+04   -1.7089802E+00
   4.9928575E-04   6.2420467E+04   -1.7084198E+00
   5.0159151E-04   6.1931133E+04   -1.7078598E+00
   5.0390791E-04   6.1445793E+04   -1.7073003E+00
   5.0623501E-04   6.0964414E+04   -1.7067412E+00
   5.0857286E-04   6.0486962E+04   -1.7061825E+00
   5.1092150E-04   6.0013404E+04   -1.7056243E+00
   5.1328099E-04   5.9543706E+04   -1.7050666E+00
   5.1565137E-04   5.9077836E+04   -1.7045093E+00
   5.1803270E-04   5.8615762E+04   -1.7039525E+00
   5.2042503E-04   5.8157451E+04   -1.7033961E+00
   5.2282841E-04   5.7702871E+04   -1.7028402E+00
   5.2524289E-04   5.7251991E+04   -1.7022848E+00
   5.2766851E-04   5.6804779E+04   -1.7017299E+00
   5.3010534E-04   5.6361205E+04   -1.7011755E+00
   5.3255342E-04   5.5921237E+04   -1.7006216E+00
   5.3501281E-04   5.5484845E+04   -1.7000682E+00
   5.3748356E-04   5.5051999E+04   -1.6995153E+00
   5.3996571E-04   5.4622669E+04   -1.6989629E+00
   5.4245933E-04   5.4196825E+04   -1.6984110E+00
   5.4496446E-04   5.3774437E+04   -1.6978596E+00
   5.4748117E-04   5.3355477E+04   -1.6973088E+00
   5.5000949E-04   5.2939915E+04   -1.6967585E+00
   5.5254949E-04   5.2527723E+04   -1.6962088E+00
   5.5510123E-04   5.2118873E+04   -1.6956595E+00
   5.5766474E-04   5.1713335E+04   -1.6951109E+00
   5.6024010E-04   5.1311083E+04   -1.6945628E+00
   5.6282734E-04   5.0912088E+04   -1.6940152E+00
   5.6542654E-04   5.0516323E+04   -1.6934682E+00
   5.6803774E-04   5.0123760E+04   -1.6929218E+00
   5.7066099E-04   4.9734373E+04   -1.6923760E+00
   5.7329637E-04   4.9348136E+04   -1.6918307E+00
   5.7594391E-04   4.8965021E+04   -1.6912860E+00
   5.7860368E-04   4.8585002E+04   -1.6907419E+00
   5.8127573E-04   4.8208053E+04   -1.6901984E+00
   5.8396012E-04   4.7834149E+04   -1.6896555E+00
   5.8665691E-04   4.7463263E+04   -1.6891132E+00
   5.8936616E-04   4.7095370E+04   -1.6885715E+00
   5.9208791E-04   4.6730446E+04   -1.6880304E+00
   5.9482223E-04   4.6368465E+04   -1.6874899E+00
   5.9756919E-04   4.6009402E+04   -1.6869501E+00
   6.0032882E-04   4.5653233E+04   -1.6864108E+00
   6.0310120E-04   4.5299934E+04   -1.6858723E+00
   6.0588639E-04   4.4949480E+04   -1.6853343E+00
   6.0868443E-04   4.4601848E+04   -1.6847970E+00
   6.1149540E-04   4.4257015E+04   -1.6842603E+00
   6.1431935E-04   4.3914956E+04   -1.6837243E+00
   6.1715634E-04   4.3575648E+04   -1.6831889E+00
   6.2000644E-04   4.3239068E+04   -1.6826542E+00
   6.2286969E-04   4.2905194E+04   -1.6821201E+00
