#        a       HoverH0(a)       dlogHdloga_of_a(a)
   1.0000000E-04   1.1308531E+06   -1.8708253E+00
   1.0046181E-04   1.1211485E+06   -1.8703834E+00
   1.0092575E-04   1.1115293E+06   -1.8699405E+00
   1.0139184E-04   1.1019950E+06   -1.8694967E+00
   1.0186008E-04   1.0925447E+06   -1.8690518E+00
   1.0233048E-04   1.0831776E+06   -1.8686060E+00
   1.0280305E-04   1.0738931E+06   -1.8681592E+00
   1.0327781E-04   1.0646903E+06   -1.8677114E+00
   1.0375475E-04   1.0555686E+06   -1.8672626E+00
   1.0423390E-04   1.0465272E+06   -1.8668129E+00
   1.0471527E-04   1.0375654E+06   -1.8663622E+00
   1.0519885E-04   1.0286825E+06   -1.8659106E+00
   1.0568467E-04   1.0198777E+06   -1.8654579E+00
   1.0617274E-04   1.0111504E+06   -1.8650043E+00
   1.0666305E-04   1.0024999E+06   -1.8645498E+00
   1.0715563E-04   9.9392551E+05   -1.8640943E+00
   1.0765049E-04   9.8542651E+05   -1.8636378E+00
   1.0814763E-04   9.7700224E+05   -1.8631804E+00
   1.0864707E-04   9.6865203E+05   -1.8627220E+00
   1.0914881E-04   9.6037522E+05   -1.8622627E+00
   1.0965287E-04   9.5217115E+05   -1.8618024E+00
   1.1015926E-04   9.4403916E+05   -1.8613411E+00
   1.1066799E-04   9.3597862E+05   -1.8608789E+00
   1.1117906E-04   9.2798888E+05   -1.8604158E+00
   1.1169250E-04   9.2006930E+05   -1.8599517E+00
   1.1220831E-04   9.1221927E+05   -1.8594867E+00
   1.1272650E-04   9.0443815E+05   -1.8590208E+00
   1.1324708E-04   8.9672533E+05   -1.8585539E+00
   1.1377007E-04   8.8908020E+05   -1.8580860E+00
   1.1429547E-04   8.8150216E+05   -1.8576173E+00
   1.1482330E-04   8.7399059E+05   -1.8571476E+00
   1.1535356E-04   8.6654491E+05   -1.8566770E+00
   1.1588628E-04   8.5916452E+05   -1.8562054E+00
   1.1642145E-04   8.5184885E+05   -1.8557329E+00
   1.1695910E-04   8.4459730E+05   -1.8552595E+00
   1.1749923E-04   8.3740932E+05   -1.8547852E+00
   1.1804185E-04   8.3028432E+05   -1.8543100E+00
   1.1858698E-04   8.2322176E+05   -1.8538338E+00
   1.1913463E-04   8.1622105E+05   -1.8533568E+00
   1.1968481E-04   8.0928167E+05   -1.8528788E+00
   1.2023752E-04   8.0240305E+05   -1.8523999E+00
   1.2079279E-04   7.9558465E+05   -1.8519202E+00
   1.2135063E-04   7.8882594E+05   -1.8514395E+00
   1.2191104E-04   7.8212638E+05   -1.8509579E+00
   1.2247403E-04   7.7548545E+05   -1.8504754E+00
   1.2303963E-04   7.6890261E+05   -1.8499921E+00
   1.2360784E-04   7.6237735E+05   -1.8495078E+00
   1.2417868E-04   7.5590915E+05   -1.8490226E+00
   1.2475215E-04   7.4949751E+05   -1.8485366E+00
   1.2532826E-04   7.4314191E+05   -1.8480497E+00
   1.2590704E-04   7.3684187E+05   -1.8475619E+00
   1.2648850E-04   7.3059688E+05   -1.8470732E+00
   1.2707263E-04   7.2440645E+05   -1.8465836E+00
   1.2765947E-04   7.1827009E+05   -1.8460932E+00
   1.2824901E-04   7.1218733E+05   -1.8456019E+00
   1.2884128E-04   7.0615768E+05   -1.8451097E+00
   1.2943628E-04   7.0018066E+05   -1.8446167E+00
   1.3003403E-04   6.9425582E+05   -1.8441228E+00
   1.3063454E-04   6.8838268E+05   -1.8436281E+00
   1.3123783E-04   6.8256078E+05   -1.8431325E+00
   1.3184390E-04   6.7678966E+05   -1.8426360E+00
   1.3245277E-04   6.7106888E+05   -1.8421387E+00
   1.3306445E-04   6.6539797E+05   -1.8416406E+00
   1.3367895E-04   6.5977651E+05   -1.8411416E+00
   1.3429630E-04   6.5420404E+05   -1.8406418E+00
   1.3491649E-04   6.4868013E+05   -1.8401411E+00
   1.3553955E-04   6.4320435E+05   -1.8396396E+00
   1.3616548E-04   6.3777628E+05   -1.8391373E+00
   1.3679431E-04   6.3239547E+05   -1.8386341E+00
   1.3742604E-04   6.2706151E+05   -1.8381301E+00
   1.3806069E-04   6.2177399E+05   -1.8376253E+00
   1.3869827E-04   6.1653249E+05   -1.8371197E+00
   1.3933879E-04   6.1133660E+05   -1.8366133E+00
   1.3998227E-04   6.0618592E+05   -1.8361061E+00
   1.4062872E-04   6.0108003E+05   -1.8355980E+00
   1.4127816E-04   5.9601855E+05   -1.8350892E+00
   1.4193060E-04   5.9100108E+05   -1.8345796E+00
   1.4258605E-04   5.8602722E+05   -1.8340691E+00
   1.4324453E-04   5.8109659E+05   -1.8335579E+00
   1.4390605E-04   5.7620880E+05   -1.8330459E+00
   1.4457062E-04   5.7136347E+05   -1.8325331E+00
   1.4523826E-04   5.6656023E+05   -1.8320195E+00
   1.4590899E-04   5.6179870E+05   -1.8315051E+00
   1.4658281E-04   5.5707851E+05   -1.8309900E+00
   1.4725974E-04   5.5239929E+05   -1.8304741E+00
   1.4793981E-04   5.4776067E+05   -1.8299575E+00
   1.4862301E-04   5.4316230E+05   -1.8294400E+00
   1.4930936E-04   5.3860382E+05   -1.8289218E+00
   1.4999889E-04   5.3408487E+05   -1.8284029E+00
   1.5069160E-04   5.2960510E+05   -1.8278832E+00
   1.5138751E-04   5.2516416E+05   -1.8273628E+00
   1.5208663E-04   5.2076171E+05   -1.8268416E+00
   1.5278899E-04   5.1639741E+05   -1.8263197E+00
   1.5349458E-04   5.1207092E+05   -1.8257970E+00
   1.5420343E-04   5.0778190E+05   -1.8252736E+00
   1.5491556E-04   5.0353002E+05   -1.8247495E+00
   1.5563098E-04   4.9931495E+05   -1.8242247E+00
   1.5634970E-04   4.9513636E+05   -1.8236991E+00
   1.5707174E-04   4.9099393E+05   -1.8231729E+00
   1.5779711E-04   4.8688734E+05   -1.8226459E+00
   1.5852584E-04   4.8281627E+05   -1.8221182E+00
   1.5925792E-04   4.7878040E+05   -1.8215898E+00
   1.5999339E-04   4.7477943E+05   -1.8210607E+00
   1.6073226E-04   4.7081303E+05   -1.8205310E+00
   1.6147454E-04   4.6688092E+05   -1.8200005E+00
   1.6222024E-04   4.6298277E+05   -1.8194693E+00
   1.6296939E-04   4.5911830E+05   -1.8189375E+00
   1.6372200E-04   4.5528721E+05   -1.8184050E+00
   1.6447809E-04   4.5148918E+05   -1.8178718E+00
   1.6523767E-04   4.4772395E+05   -1.8173380E+00
   1.6600075E-04   4.4399120E+05   -1.8168034E+00
   1.6676736E-04   4.4029066E+05   -1.8162683E+00
   1.6753751E-04   4.3662204E+05   -1.8157325E+00
   1.6831122E-04   4.3298506E+05   -1.8151960E+00
   1.6908849E-04   4.2937944E+05   -1.8146589E+00
   1.6986936E-04   4.2580489E+05   -1.8141211E+00
   1.7065384E-04   4.2226115E+05   -1.8135827E+00
   1.7144193E-04   4.1874794E+05   -1.8130437E+00
   1.7223367E-04   4.1526499E+05   -1.8125040E+00
   1.7302906E-04   4.1181204E+05   -1.8119637E+00
   1.7382813E-04   4.0838882E+05   -1.8114228E+00
   1.7463089E-04   4.0499506E+05   -1.8108813E+00
   1.7543735E-04   4.0163051E+05   -1.8103392E+00
   1.7624754E-04   3.9829490E+05   -1.8097965E+00
   1.7706147E-04   3.9498799E+05   -1.8092532E+00
   1.7787916E-04   3.9170951E+05   -1.8087093E+00
   1.7870062E-04   3.8845922E+05   -1.8081648E+00
   1.7952588E-04   3.8523687E+05   -1.8076197E+00
   1.8035495E-04   3.8204220E+05   -1.8070740E+00
   1.8118785E-04   3.7887498E+05   -1.8065278E+00
   1.8202459E-04   3.7573496E+05   -1.8059810E+00
   1.8286520E-04   3.7262191E+05   -1.8054336E+00
   1.8370969E-04   3.6953558E+05   -1.8048857E+00
   1.8455808E-04   3.6647575E+05   -1.8043372E+00
   1.8541039E-04   3.6344216E+05   -1.8037881E+00
   1.8626663E-04   3.6043460E+05   -1.8032386E+00
   1.8712683E-04   3.5745283E+05   -1.8026884E+00
   1.8799100E-04   3.5449663E+05   -1.8021378E+00
   1.8885917E-04   3.5156577E+05   -1.8015866E+00
   1.8973134E-04   3.4866003E+05   -1.8010349E+00
   1.9060754E-04   3.4577918E+05   -1.8004826E+00
   1.9148778E-04   3.4292301E+05   -1.7999299E+00
   1.9237209E-04   3.4009130E+05   -1.7993766E+00
   1.9326049E-04   3.3728383E+05   -1.7988229E+00
   1.9415299E-04   3.3450039E+05   -1.7982686E+00
   1.9504960E-04   3.3174077E+05   -1.7977139E+00
   1.9595036E-04   3.2900476E+05   -1.7971586E+00
   1.9685528E-04   3.2629215E+05   -1.7966029E+00
   1.9776438E-04   3.2360273E+05   -1.7960467E+00
   1.9867768E-04   3.2093630E+05   -1.7954900E+00
   1.9959519E-04   3.1829266E+05   -1.7949329E+00
   2.0051694E-04   3.1567161E+05   -1.7943753E+00
   2.0144295E-04   3.1307294E+05   -1.7938172E+00
   2.0237324E-04   3.1049647E+05   -1.7932587E+00
   2.0330782E-04   3.0794199E+05   -1.7926998E+00
   2.0424671E-04   3.0540931E+05   -1.7921404E+00
   2.0518995E-04   3.0289825E+05   -1.7915805E+00
   2.0613754E-04   3.0040860E+05   -1.7910203E+00
   2.0708950E-04   2.9794019E+05   -1.7904596E+00
   2.0804586E-04   2.9549283E+05   -1.7898985E+00
   2.0900664E-04   2.9306633E+05   -1.7893370E+00
   2.0997185E-04   2.9066050E+05   -1.7887751E+00
   2.1094152E-04   2.8827517E+05   -1.7882127E+00
   2.1191567E-04   2.8591016E+05   -1.7876500E+00
   2.1289432E-04   2.8356529E+05   -1.7870869E+00
   2.1387749E-04   2.8124038E+05   -1.7865234E+00
   2.1486520E-04   2.7893525E+05   -1.7859595E+00
   2.1585747E-04   2.7664973E+05   -1.7853953E+00
   2.1685432E-04   2.7438366E+05   -1.7848307E+00
   2.1785578E-04   2.7213686E+05   -1.7842657E+00
   2.1886186E-04   2.6990915E+05   -1.7837003E+00
   2.1987259E-04   2.6770038E+05   -1.7831346E+00
   2.2088798E-04   2.6551038E+05   -1.7825686E+00
   2.2190807E-04   2.6333898E+05   -1.7820022E+00
   2.2293286E-04   2.6118602E+05   -1.7814355E+00
   2.2396239E-04   2.5905134E+05   -1.7808685E+00
   2.2499667E-04   2.5693478E+05   -1.7803011E+00
   2.2603573E-04   2.5483618E+05   -1.7797334E+00
   2.2707958E-04   2.5275538E+05   -1.7791654E+00
   2.2812826E-04   2.5069222E+05   -1.7785971E+00
   2.2918178E-04   2.4864656E+05   -1.7780285E+00
   2.3024017E-04   2.4661824E+05   -1.7774596E+00
   2.3130344E-04   2.4460710E+05   -1.7768904E+00
   2.3237162E-04   2.4261300E+05   -1.7763210E+00
   2.3344474E-04   2.4063579E+05   -1.7757512E+00
   2.3452281E-04   2.3867532E+05   -1.7751812E+00
   2.3560586E-04   2.3673144E+05   -1.7746110E+00
   2.3669392E-04   2.3480401E+05   -1.7740404E+00
   2.3778699E-04   2.3289289E+05   -1.7734696E+00
   2.3888512E-04   2.3099793E+05   -1.7728986E+00
   2.3998831E-04   2.2911899E+05   -1.7723273E+00
   2.4109661E-04   2.2725594E+05   -1.7717558E+00
   2.4221001E-04   2.2540862E+05   -1.7711841E+00
   2.4332857E-04   2.2357691E+05   -1.7706121E+00
   2.4445228E-04   2.2176067E+05   -1.7700399E+00
   2.4558119E-04   2.1995977E+05   -1.7694675E+00
   2.4671531E-04   2.1817406E+05   -1.7688949E+00
   2.4785467E-04   2.1640343E+05   -1.7683221E+00
   2.4899928E-04   2.1464773E+05   -1.7677491E+00
   2.5014919E-04   2.1290683E+05   -1.7671759E+00
   2.5130440E-04   2.1118062E+05   -1.7666026E+00
   2.5246495E-04   2.0946895E+05   -1.7660290E+00
   2.5363086E-04   2.0777171E+05   -1.7654553E+00
   2.5480216E-04   2.0608876E+05   -1.7648814E+00
   2.5597886E-04   2.0441998E+05   -1.7643074E+00
   2.5716100E-04   2.0276526E+05   -1.7637332E+00
   2.5834859E-04   2.0112446E+05   -1.7631589E+00
   2.5954168E-04   1.9949746E+05   -1.7625844E+00
   2.6074027E-04   1.9788416E+05   -1.7620098E+00
   2.6194439E-04   1.9628441E+05   -1.7614351E+00
   2.6315408E-04   1.9469812E+05   -1.7608602E+00
   2.6436935E-04   1.9312516E+05   -1.7602853E+00
   2.6559024E-04   1.9156541E+05   -1.7597102E+00
   2.6681676E-04   1.9001876E+05   -1.7591350E+00
   2.6804895E-04   1.8848510E+05   -1.7585597E+00
   2.6928683E-04   1.8696432E+05   -1.7579843E+00
   2.7053042E-04   1.8545630E+05   -1.7574089E+00
   2.7177976E-04   1.8396092E+05   -1.7568334E+00
   2.7303487E-04   1.8247809E+05   -1.7562577E+00
   2.7429577E-04   1.8100769E+05   -1.7556821E+00
   2.7556250E-04   1.7954962E+05   -1.7551063E+00
   2.7683507E-04   1.7810376E+05   -1.7545305E+00
   2.7811353E-04   1.7667002E+05   -1.7539547E+00
   2.7939788E-04   1.7524828E+05   -1.7533788E+00
   2.8068817E-04   1.7383845E+05   -1.7528029E+00
   2.8198442E-04   1.7244041E+05   -1.7522270E+00
   2.8328665E-04   1.7105407E+05   -1.7516510E+00
   2.8459490E-04   1.6967933E+05   -1.7510750E+00
   2.8590919E-04   1.6831608E+05   -1.7504990E+00
   2.8722955E-04   1.6696423E+05   -1.7499230E+00
   2.8855600E-04   1.6562368E+05   -1.7493470E+00
   2.8988859E-04   1.6429432E+05   -1.7487710E+00
   2.9122732E-04   1.6297607E+05   -1.7481950E+00
   2.9257224E-04   1.6166882E+05   -1.7476190E+00
   2.9392337E-04   1.6037249E+05   -1.7470431E+00
   2.9528074E-04   1.5908697E+05   -1.7464672E+00
   2.9664438E-04   1.5781217E+05   -1.7458913E+00
   2.9801431E-04   1.5654801E+05   -1.7453155E+00
   2.9939057E-04   1.5529438E+05   -1.7447397E+00
   3.0077319E-04   1.5405120E+05   -1.7441639E+00
   3.0216219E-04   1.5281838E+05   -1.7435883E+00
   3.0355761E-04   1.5159583E+05   -1.7430127E+00
   3.0495947E-04   1.5038346E+05   -1.7424371E+00
   3.0636780E-04   1.4918117E+05   -1.7418617E+00
   3.0778264E-04   1.4798890E+05   -1.7412863E+00
   3.0920401E-04   1.4680654E+05   -1.7407111E+00
   3.1063195E-04   1.4563401E+05   -1.7401359E+00
   3.1206648E-04   1.4447123E+05   -1.7395608E+00
   3.1350764E-04   1.4331811E+05   -1.7389859E+00
   3.1495545E-04   1.4217458E+05   -1.7384110E+00
   3.1640994E-04   1.4104054E+05   -1.7378363E+00
   3.1787116E-04   1.3991592E+05   -1.7372617E+00
   3.1933912E-04   1.3880063E+05   -1.7366873E+00
   3.2081386E-04   1.3769460E+05   -1.7361129E+00
   3.2229541E-04   1.3659774E+05   -1.7355388E+00
   3.2378381E-04   1.3550998E+05   -1.7349648E+00
   3.2527908E-04   1.3443123E+05   -1.7343909E+00
   3.2678125E-04   1.3336143E+05   -1.7338172E+00
   3.2829036E-04   1.3230049E+05   -1.7332437E+00
   3.2980644E-04   1.3124833E+05   -1.7326703E+00
   3.3132952E-04   1.3020489E+05   -1.7320972E+00
   3.3285963E-04   1.2917008E+05   -1.7315242E+00
   3.3439681E-04   1.2814384E+05   -1.7309514E+00
   3.3594109E-04   1.2712608E+05   -1.7303788E+00
   3.3749250E-04   1.2611674E+05   -1.7298065E+00
   3.3905108E-04   1.2511575E+05   -1.7292343E+00
   3.4061685E-04   1.2412303E+05   -1.7286623E+00
   3.4218986E-04   1.2313850E+05   -1.7280906E+00
   3.4377013E-04   1.2216211E+05   -1.7275191E+00
   3.4535769E-04   1.2119378E+05   -1.7269479E+00
   3.4695259E-04   1.2023344E+05   -1.7263769E+00
   3.4855485E-04   1.1928103E+05   -1.7258061E+00
   3.5016452E-04   1.1833647E+05   -1.7252356E+00
   3.5178161E-04   1.1739970E+05   -1.7246653E+00
   3.5340618E-04   1.1647065E+05   -1.7240954E+00
   3.5503824E-04   1.1554925E+05   -1.7235256E+00
   3.5667785E-04   1.1463545E+05   -1.7229562E+00
   3.5832502E-04   1.1372917E+05   -1.7223870E+00
   3.5997981E-04   1.1283035E+05   -1.7218182E+00
   3.6164223E-04   1.1193893E+05   -1.7212496E+00
   3.6331233E-04   1.1105484E+05   -1.7206813E+00
   3.6499015E-04   1.1017803E+05   -1.7201134E+00
   3.6667571E-04   1.0930842E+05   -1.7195457E+00
   3.6836906E-04   1.0844596E+05   -1.7189784E+00
   3.7007022E-04   1.0759058E+05   -1.7184114E+00
   3.7177925E-04   1.0674223E+05   -1.7178447E+00
   3.7349616E-04   1.0590085E+05   -1.7172784E+00
   3.7522101E-04   1.0506637E+05   -1.7167124E+00
   3.7695382E-04   1.0423874E+05   -1.7161467E+00
   3.7869463E-04   1.0341790E+05   -1.7155814E+00
   3.8044348E-04   1.0260379E+05   -1.7150164E+00
   3.8220041E-04   1.0179635E+05   -1.7144519E+00
   3.8396545E-04   1.0099553E+05   -1.7138876E+00
   3.8573864E-04   1.0020127E+05   -1.7133238E+00
   3.8752002E-04   9.9413517E+04   -1.7127603E+00
   3.8930963E-04   9.8632211E+04   -1.7121973E+00
   3.9110750E-04   9.7857299E+04   -1.7116346E+00
   3.9291368E-04   9.7088726E+04   -1.7110723E+00
   3.9472820E-04   9.6326440E+04   -1.7105104E+00
   3.9655109E-04   9.5570386E+04   -1.7099489E+00
   3.9838241E-04   9.4820511E+04   -1.7093879E+00
   4.0022218E-04   9.4076763E+04   -1.7088272E+00
   4.0207045E-04   9.3339090E+04   -1.7082670E+00
   4.0392725E-04   9.2607440E+04   -1.7077072E+00
   4.0579263E-04   9.1881762E+04   -1.7071479E+00
   4.0766662E-04   9.1162006E+04   -1.7065889E+00
   4.0954927E-04   9.0448120E+04   -1.7060305E+00
   4.1144061E-04   8.9740056E+04   -1.7054725E+00
   4.1334068E-04   8.9037764E+04   -1.7049149E+00
   4.1524953E-04   8.8341194E+04   -1.7043578E+00
   4.1716720E-04   8.7650299E+04   -1.7038012E+00
   4.1909372E-04   8.6965030E+04   -1.7032450E+00
   4.2102914E-04   8.6285340E+04   -1.7026893E+00
   4.2297350E-04   8.5611180E+04   -1.7021341E+00
   4.2492683E-04   8.4942506E+04   -1.7015794E+00
   4.2688919E-04   8.4279269E+04   -1.7010252E+00
   4.2886061E-04   8.3621425E+04   -1.7004715E+00
   4.3084113E-04   8.2968927E+04   -1.6999183E+00
   4.3283080E-04   8.2321730E+04   -1.6993656E+00
   4.3482966E-04   8.1679790E+04   -1.6988134E+00
   4.3683775E-04   8.1043061E+04   -1.6982618E+00
   4.3885511E-04   8.0411501E+04   -1.6977106E+00
   4.4088179E-04   7.9785064E+04   -1.6971600E+00
   4.4291783E-04   7.9163708E+04   -1.6966099E+00
   4.4496327E-04   7.8547391E+04   -1.6960604E+00
   4.4701816E-04   7.7936068E+04   -1.6955114E+00
   4.4908253E-04   7.7329700E+04   -1.6949630E+00
   4.5115644E-04   7.6728242E+04   -1.6944151E+00
   4.5323993E-04   7.6131655E+04   -1.6938678E+00
   4.5533304E-04   7.5539897E+04   -1.6933210E+00
   4.5743582E-04   7.4952927E+04   -1.6927748E+00
   4.5954830E-04   7.4370706E+04   -1.6922292E+00
   4.6167054E-04   7.3793192E+04   -1.6916842E+00
   4.6380259E-04   7.3220347E+04   -1.6911397E+00
   4.6594448E-04   7.2652130E+04   -1.6905959E+00
   4.6809626E-04   7.2088504E+04   -1.6900526E+00
   4.7025797E-04   7.1529430E+04   -1.6895099E+00
   4.7242967E-04   7.0974868E+04   -1.6889679E+00
   4.7461140E-04   7.0424782E+04   -1.6884264E+00
   4.7680321E-04   6.9879133E+04   -1.6878856E+00
   4.7900514E-04   6.9337885E+04   -1.6873454E+00
   4.8121723E-04   6.8801000E+04   -1.6868058E+00
   4.8343954E-04   6.8268442E+04   -1.6862668E+00
   4.8567212E-04   6.7740174E+04   -1.6857284E+00
   4.8791500E-04   6.7216161E+04   -1.6851907E+00
   4.9016825E-04   6.6696366E+04   -1.6846537E+00
   4.9243189E-04   6.6180755E+04   -1.6841172E+00
   4.9470600E-04   6.5669292E+04   -1.6835815E+00
   4.9699060E-04   6.5161943E+04   -1.6830464E+00
   4.9928575E-04   6.4658672E+04   -1.6825119E+00
   5.0159151E-04   6.4159446E+04   -1.6819781E+00
   5.0390791E-04   6.3664232E+04   -1.6814450E+00
   5.0623501E-04   6.3172994E+04   -1.6809125E+00
   5.0857286E-04   6.2685701E+04   -1.6803808E+00
   5.1092150E-04   6.2202319E+04   -1.6798497E+00
   5.1328099E-04   6.1722815E+04   -1.6793192E+00
   5.1565137E-04   6.1247158E+04   -1.6787895E+00
   5.1803270E-04   6.0775314E+04   -1.6782605E+00
   5.2042503E-04   6.0307252E+04   -1.6777322E+00
   5.2282841E-04   5.9842940E+04   -1.6772045E+00
   5.2524289E-04   5.9382348E+04   -1.6766776E+00
   5.2766851E-04   5.8925443E+04   -1.6761514E+00
   5.3010534E-04   5.8472196E+04   -1.6756259E+00
   5.3255342E-04   5.8022575E+04   -1.6751011E+00
   5.3501281E-04   5.7576551E+04   -1.6745771E+00
   5.3748356E-04   5.7134094E+04   -1.6740538E+00
   5.3996571E-04   5.6695173E+04   -1.6735312E+00
   5.4245933E-04   5.6259759E+04   -1.6730093E+00
   5.4496446E-04   5.5827823E+04   -1.6724882E+00
   5.4748117E-04   5.5399337E+04   -1.6719678E+00
   5.5000949E-04   5.4974271E+04   -1.6714482E+00
   5.5254949E-04   5.4552597E+04   -1.6709293E+00
   5.5510123E-04   5.4134287E+04   -1.6704111E+00
   5.5766474E-04   5.3719312E+04   -1.6698938E+00
   5.6024010E-04   5.3307646E+04   -1.6693772E+00
   5.6282734E-04   5.2899260E+04   -1.6688613E+00
   5.6542654E-04   5.2494127E+04   -1.6683462E+00
   5.6803774E-04   5.2092220E+04   -1.6678319E+00
   5.7066099E-04   5.1693513E+04   -1.6673184E+00
   5.7329637E-04   5.1297979E+04   -1.6668057E+00
   5.7594391E-04   5.0905592E+04   -1.6662937E+00
   5.7860368E-04   5.0516325E+04   -1.6657826E+00
   5.8127573E-04   5.0130153E+04   -1.6652722E+00
   5.8396012E-04   4.9747050E+04   -1.6647626E+00
   5.8665691E-04   4.9366990E+04   -1.6642538E+00
   5.8936616E-04   4.8989949E+04   -1.6637458E+00
   5.9208791E-04   4.8615901E+04   -1.6632387E+00
   5.9482223E-04   4.8244821E+04   -1.6627323E+00
   5.9756919E-04   4.7876686E+04   -1.6622267E+00
   6.0032882E-04   4.7511470E+04   -1.6617220E+00
   6.0310120E-04   4.7149150E+04   -1.6612181E+00
   6.0588639E-04   4.6789701E+04   -1.6607150E+00
   6.0868443E-04   4.6433100E+04   -1.6602127E+00
   6.1149540E-04   4.6079324E+04   -1.6597113E+00
   6.1431935E-04   4.5728348E+04   -1.6592107E+00
   6.1715634E-04   4.5380151E+04   -1.6587109E+00
   6.2000644E-04   4.5034708E+04   -1.6582120E+00
   6.2286969E-04   4.4691998E+04   -1.6577139E+00
