#        a       HoverH0(a)       dlogHdloga_of_a(a)
   1.0000000E-04   1.2020894E+06   -1.8711529E+00
   1.0046181E-04   1.1917716E+06   -1.8707117E+00
   1.0092575E-04   1.1815448E+06   -1.8702695E+00
   1.0139184E-04   1.1714081E+06   -1.8698264E+00
   1.0186008E-04   1.1613608E+06   -1.8693823E+00
   1.0233048E-04   1.1514019E+06   -1.8689372E+00
   1.0280305E-04   1.1415309E+06   -1.8684911E+00
   1.0327781E-04   1.1317468E+06   -1.8680440E+00
   1.0375475E-04   1.1220488E+06   -1.8675960E+00
   1.0423390E-04   1.1124363E+06   -1.8671470E+00
   1.0471527E-04   1.1029084E+06   -1.8666970E+00
   1.0519885E-04   1.0934643E+06   -1.8662461E+00
   1.0568467E-04   1.0841034E+06   -1.8657942E+00
   1.0617274E-04   1.0748249E+06   -1.8653413E+00
   1.0666305E-04   1.0656280E+06   -1.8648875E+00
   1.0715563E-04   1.0565120E+06   -1.8644327E+00
   1.0765049E-04   1.0474762E+06   -1.8639769E+00
   1.0814763E-04   1.0385198E+06   -1.8635202E+00
   1.0864707E-04   1.0296422E+06   -1.8630625E+00
   1.0914881E-04   1.0208427E+06   -1.8626039E+00
   1.0965287E-04   1.0121205E+06   -1.8621443E+00
   1.1015926E-04   1.0034749E+06   -1.8616837E+00
   1.1066799E-04   9.9490529E+05   -1.8612223E+00
   1.1117906E-04   9.8641098E+05   -1.8607598E+00
   1.1169250E-04   9.7799127E+05   -1.8602965E+00
   1.1220831E-04   9.6964550E+05   -1.8598321E+00
   1.1272650E-04   9.6137301E+05   -1.8593669E+00
   1.1324708E-04   9.5317315E+05   -1.8589007E+00
   1.1377007E-04   9.4504526E+05   -1.8584335E+00
   1.1429547E-04   9.3698869E+05   -1.8579655E+00
   1.1482330E-04   9.2900281E+05   -1.8574965E+00
   1.1535356E-04   9.2108699E+05   -1.8570265E+00
   1.1588628E-04   9.1324059E+05   -1.8565557E+00
   1.1642145E-04   9.0546301E+05   -1.8560839E+00
   1.1695910E-04   8.9775361E+05   -1.8556112E+00
   1.1749923E-04   8.9011179E+05   -1.8551375E+00
   1.1804185E-04   8.8253695E+05   -1.8546630E+00
   1.1858698E-04   8.7502848E+05   -1.8541875E+00
   1.1913463E-04   8.6758580E+05   -1.8537112E+00
   1.1968481E-04   8.6020831E+05   -1.8532339E+00
   1.2023752E-04   8.5289544E+05   -1.8527557E+00
   1.2079279E-04   8.4564660E+05   -1.8522766E+00
   1.2135063E-04   8.3846122E+05   -1.8517965E+00
   1.2191104E-04   8.3133874E+05   -1.8513156E+00
   1.2247403E-04   8.2427858E+05   -1.8508338E+00
   1.2303963E-04   8.1728020E+05   -1.8503511E+00
   1.2360784E-04   8.1034305E+05   -1.8498675E+00
   1.2417868E-04   8.0346657E+05   -1.8493830E+00
   1.2475215E-04   7.9665022E+05   -1.8488976E+00
   1.2532826E-04   7.8989346E+05   -1.8484114E+00
   1.2590704E-04   7.8319577E+05   -1.8479242E+00
   1.2648850E-04   7.7655662E+05   -1.8474362E+00
   1.2707263E-04   7.6997547E+05   -1.8469473E+00
   1.2765947E-04   7.6345183E+05   -1.8464575E+00
   1.2824901E-04   7.5698517E+05   -1.8459668E+00
   1.2884128E-04   7.5057497E+05   -1.8454753E+00
   1.2943628E-04   7.4422075E+05   -1.8449829E+00
   1.3003403E-04   7.3792200E+05   -1.8444897E+00
   1.3063454E-04   7.3167822E+05   -1.8439956E+00
   1.3123783E-04   7.2548893E+05   -1.8435006E+00
   1.3184390E-04   7.1935363E+05   -1.8430048E+00
   1.3245277E-04   7.1327184E+05   -1.8425081E+00
   1.3306445E-04   7.0724310E+05   -1.8420106E+00
   1.3367895E-04   7.0126692E+05   -1.8415122E+00
   1.3429630E-04   6.9534284E+05   -1.8410130E+00
   1.3491649E-04   6.8947038E+05   -1.8405130E+00
   1.3553955E-04   6.8364910E+05   -1.8400121E+00
   1.3616548E-04   6.7787854E+05   -1.8395104E+00
   1.3679431E-04   6.7215824E+05   -1.8390078E+00
   1.3742604E-04   6.6648776E+05   -1.8385045E+00
   1.3806069E-04   6.6086665E+05   -1.8380003E+00
   1.3869827E-04   6.5529447E+05   -1.8374953E+00
   1.3933879E-04   6.4977078E+05   -1.8369895E+00
   1.3998227E-04   6.4429516E+05   -1.8364828E+00
   1.4062872E-04   6.3886717E+05   -1.8359754E+00
   1.4127816E-04   6.3348639E+05   -1.8354671E+00
   1.4193060E-04   6.2815241E+05   -1.8349581E+00
   1.4258605E-04   6.2286480E+05   -1.8344483E+00
   1.4324453E-04   6.1762315E+05   -1.8339376E+00
   1.4390605E-04   6.1242705E+05   -1.8334262E+00
   1.4457062E-04   6.0727611E+05   -1.8329140E+00
   1.4523826E-04   6.0216990E+05   -1.8324010E+00
   1.4590899E-04   5.9710805E+05   -1.8318872E+00
   1.4658281E-04   5.9209014E+05   -1.8313726E+00
   1.4725974E-04   5.8711580E+05   -1.8308573E+00
   1.4793981E-04   5.8218464E+05   -1.8303412E+00
   1.4862301E-04   5.7729626E+05   -1.8298243E+00
   1.4930936E-04   5.7245029E+05   -1.8293067E+00
   1.4999889E-04   5.6764636E+05   -1.8287883E+00
   1.5069160E-04   5.6288408E+05   -1.8282692E+00
   1.5138751E-04   5.5816310E+05   -1.8277493E+00
   1.5208663E-04   5.5348304E+05   -1.8272287E+00
   1.5278899E-04   5.4884353E+05   -1.8267073E+00
   1.5349458E-04   5.4424423E+05   -1.8261852E+00
   1.5420343E-04   5.3968476E+05   -1.8256624E+00
   1.5491556E-04   5.3516479E+05   -1.8251388E+00
   1.5563098E-04   5.3068395E+05   -1.8246145E+00
   1.5634970E-04   5.2624190E+05   -1.8240895E+00
   1.5707174E-04   5.2183829E+05   -1.8235637E+00
   1.5779711E-04   5.1747279E+05   -1.8230373E+00
   1.5852584E-04   5.1314505E+05   -1.8225101E+00
   1.5925792E-04   5.0885475E+05   -1.8219823E+00
   1.5999339E-04   5.0460154E+05   -1.8214537E+00
   1.6073226E-04   5.0038510E+05   -1.8209244E+00
   1.6147454E-04   4.9620511E+05   -1.8203945E+00
   1.6222024E-04   4.9206123E+05   -1.8198638E+00
   1.6296939E-04   4.8795316E+05   -1.8193325E+00
   1.6372200E-04   4.8388057E+05   -1.8188005E+00
   1.6447809E-04   4.7984314E+05   -1.8182678E+00
   1.6523767E-04   4.7584058E+05   -1.8177345E+00
   1.6600075E-04   4.7187256E+05   -1.8172004E+00
   1.6676736E-04   4.6793878E+05   -1.8166658E+00
   1.6753751E-04   4.6403894E+05   -1.8161304E+00
   1.6831122E-04   4.6017273E+05   -1.8155944E+00
   1.6908849E-04   4.5633987E+05   -1.8150578E+00
   1.6986936E-04   4.5254005E+05   -1.8145205E+00
   1.7065384E-04   4.4877298E+05   -1.8139826E+00
   1.7144193E-04   4.4503837E+05   -1.8134440E+00
   1.7223367E-04   4.4133594E+05   -1.8129048E+00
   1.7302906E-04   4.3766540E+05   -1.8123650E+00
   1.7382813E-04   4.3402646E+05   -1.8118246E+00
   1.7463089E-04   4.3041886E+05   -1.8112835E+00
   1.7543735E-04   4.2684230E+05   -1.8107418E+00
   1.7624754E-04   4.2329652E+05   -1.8101996E+00
   1.7706147E-04   4.1978125E+05   -1.8096567E+00
   1.7787916E-04   4.1629621E+05   -1.8091132E+00
   1.7870062E-04   4.1284113E+05   -1.8085692E+00
   1.7952588E-04   4.0941576E+05   -1.8080245E+00
   1.8035495E-04   4.0601983E+05   -1.8074793E+00
   1.8118785E-04   4.0265308E+05   -1.8069335E+00
   1.8202459E-04   3.9931525E+05   -1.8063871E+00
   1.8286520E-04   3.9600608E+05   -1.8058401E+00
   1.8370969E-04   3.9272534E+05   -1.8052926E+00
   1.8455808E-04   3.8947275E+05   -1.8047445E+00
   1.8541039E-04   3.8624808E+05   -1.8041959E+00
   1.8626663E-04   3.8305108E+05   -1.8036467E+00
   1.8712683E-04   3.7988149E+05   -1.8030970E+00
   1.8799100E-04   3.7673910E+05   -1.8025467E+00
   1.8885917E-04   3.7362364E+05   -1.8019959E+00
   1.8973134E-04   3.7053488E+05   -1.8014446E+00
   1.9060754E-04   3.6747260E+05   -1.8008928E+00
   1.9148778E-04   3.6443655E+05   -1.8003404E+00
   1.9237209E-04   3.6142650E+05   -1.7997875E+00
   1.9326049E-04   3.5844223E+05   -1.7992341E+00
   1.9415299E-04   3.5548351E+05   -1.7986803E+00
   1.9504960E-04   3.5255011E+05   -1.7981259E+00
   1.9595036E-04   3.4964181E+05   -1.7975710E+00
   1.9685528E-04   3.4675839E+05   -1.7970156E+00
   1.9776438E-04   3.4389963E+05   -1.7964598E+00
   1.9867768E-04   3.4106530E+05   -1.7959035E+00
   1.9959519E-04   3.3825521E+05   -1.7953467E+00
   2.0051694E-04   3.3546913E+05   -1.7947894E+00
   2.0144295E-04   3.3270685E+05   -1.7942317E+00
   2.0237324E-04   3.2996817E+05   -1.7936735E+00
   2.0330782E-04   3.2725287E+05   -1.7931149E+00
   2.0424671E-04   3.2456075E+05   -1.7925558E+00
   2.0518995E-04   3.2189161E+05   -1.7919963E+00
   2.0613754E-04   3.1924524E+05   -1.7914364E+00
   2.0708950E-04   3.1662144E+05   -1.7908760E+00
   2.0804586E-04   3.1402002E+05   -1.7903152E+00
   2.0900664E-04   3.1144078E+05   -1.7897540E+00
   2.0997185E-04   3.0888353E+05   -1.7891924E+00
   2.1094152E-04   3.0634806E+05   -1.7886303E+00
   2.1191567E-04   3.0383419E+05   -1.7880679E+00
   2.1289432E-04   3.0134173E+05   -1.7875051E+00
   2.1387749E-04   2.9887050E+05   -1.7869419E+00
   2.1486520E-04   2.9642030E+05   -1.7863783E+00
   2.1585747E-04   2.9399095E+05   -1.7858143E+00
   2.1685432E-04   2.9158227E+05   -1.7852500E+00
   2.1785578E-04   2.8919407E+05   -1.7846852E+00
   2.1886186E-04   2.8682619E+05   -1.7841202E+00
   2.1987259E-04   2.8447843E+05   -1.7835547E+00
   2.2088798E-04   2.8215062E+05   -1.7829890E+00
   2.2190807E-04   2.7984259E+05   -1.7824228E+00
   2.2293286E-04   2.7755417E+05   -1.7818564E+00
   2.2396239E-04   2.7528518E+05   -1.7812896E+00
   2.2499667E-04   2.7303545E+05   -1.7807224E+00
   2.2603573E-04   2.7080481E+05   -1.7801550E+00
   2.2707958E-04   2.6859310E+05   -1.7795872E+00
   2.2812826E-04   2.6640015E+05   -1.7790192E+00
   2.2918178E-04   2.6422580E+05   -1.7784508E+00
   2.3024017E-04   2.6206987E+05   -1.7778821E+00
   2.3130344E-04   2.5993223E+05   -1.7773131E+00
   2.3237162E-04   2.5781269E+05   -1.7767439E+00
   2.3344474E-04   2.5571111E+05   -1.7761743E+00
   2.3452281E-04   2.5362732E+05   -1.7756045E+00
   2.3560586E-04   2.5156118E+05   -1.7750344E+00
   2.3669392E-04   2.4951253E+05   -1.7744641E+00
   2.3778699E-04   2.4748120E+05   -1.7738935E+00
   2.3888512E-04   2.4546707E+05   -1.7733226E+00
   2.3998831E-04   2.4346996E+05   -1.7727515E+00
   2.4109661E-04   2.4148974E+05   -1.7721802E+00
   2.4221001E-04   2.3952625E+05   -1.7716086E+00
   2.4332857E-04   2.3757935E+05   -1.7710368E+00
   2.4445228E-04   2.3564890E+05   -1.7704648E+00
   2.4558119E-04   2.3373476E+05   -1.7698926E+00
   2.4671531E-04   2.3183677E+05   -1.7693201E+00
   2.4785467E-04   2.2995480E+05   -1.7687475E+00
   2.4899928E-04   2.2808871E+05   -1.7681746E+00
   2.5014919E-04   2.2623836E+05   -1.7676016E+00
   2.5130440E-04   2.2440361E+05   -1.7670283E+00
   2.5246495E-04   2.2258433E+05   -1.7664549E+00
   2.5363086E-04   2.2078039E+05   -1.7658813E+00
   2.5480216E-04   2.1899164E+05   -1.7653076E+00
   2.5597886E-04   2.1721796E+05   -1.7647337E+00
   2.5716100E-04   2.1545921E+05   -1.7641596E+00
   2.5834859E-04   2.1371527E+05   -1.7635854E+00
   2.5954168E-04   2.1198601E+05   -1.7630110E+00
   2.6074027E-04   2.1027129E+05   -1.7624365E+00
   2.6194439E-04   2.0857100E+05   -1.7618619E+00
   2.6315408E-04   2.0688500E+05   -1.7612871E+00
   2.6436935E-04   2.0521318E+05   -1.7607122E+00
   2.6559024E-04   2.0355541E+05   -1.7601372E+00
   2.6681676E-04   2.0191156E+05   -1.7595621E+00
   2.6804895E-04   2.0028152E+05   -1.7589869E+00
   2.6928683E-04   1.9866516E+05   -1.7584116E+00
   2.7053042E-04   1.9706237E+05   -1.7578362E+00
   2.7177976E-04   1.9547303E+05   -1.7572607E+00
   2.7303487E-04   1.9389703E+05   -1.7566852E+00
   2.7429577E-04   1.9233424E+05   -1.7561095E+00
   2.7556250E-04   1.9078455E+05   -1.7555338E+00
   2.7683507E-04   1.8924785E+05   -1.7549581E+00
   2.7811353E-04   1.8772402E+05   -1.7543823E+00
   2.7939788E-04   1.8621296E+05   -1.7538064E+00
   2.8068817E-04   1.8471455E+05   -1.7532305E+00
   2.8198442E-04   1.8322869E+05   -1.7526546E+00
   2.8328665E-04   1.8175526E+05   -1.7520787E+00
   2.8459490E-04   1.8029416E+05   -1.7515027E+00
   2.8590919E-04   1.7884528E+05   -1.7509267E+00
   2.8722955E-04   1.7740851E+05   -1.7503507E+00
   2.8855600E-04   1.7598375E+05   -1.7497747E+00
   2.8988859E-04   1.7457090E+05   -1.7491987E+00
   2.9122732E-04   1.7316985E+05   -1.7486227E+00
   2.9257224E-04   1.7178050E+05   -1.7480467E+00
   2.9392337E-04   1.7040275E+05   -1.7474707E+00
   2.9528074E-04   1.6903649E+05   -1.7468948E+00
   2.9664438E-04   1.6768164E+05   -1.7463189E+00
   2.9801431E-04   1.6633809E+05   -1.7457430E+00
   2.9939057E-04   1.6500574E+05   -1.7451672E+00
   3.0077319E-04   1.6368450E+05   -1.7445914E+00
   3.0216219E-04   1.6237426E+05   -1.7440157E+00
   3.0355761E-04   1.6107495E+05   -1.7434401E+00
   3.0495947E-04   1.5978645E+05   -1.7428645E+00
   3.0636780E-04   1.5850868E+05   -1.7422890E+00
   3.0778264E-04   1.5724155E+05   -1.7417135E+00
   3.0920401E-04   1.5598495E+05   -1.7411382E+00
   3.1063195E-04   1.5473881E+05   -1.7405630E+00
   3.1206648E-04   1.5350304E+05   -1.7399878E+00
   3.1350764E-04   1.5227753E+05   -1.7394128E+00
   3.1495545E-04   1.5106221E+05   -1.7388378E+00
   3.1640994E-04   1.4985699E+05   -1.7382630E+00
   3.1787116E-04   1.4866177E+05   -1.7376883E+00
   3.1933912E-04   1.4747648E+05   -1.7371138E+00
   3.2081386E-04   1.4630103E+05   -1.7365394E+00
   3.2229541E-04   1.4513533E+05   -1.7359651E+00
   3.2378381E-04   1.4397930E+05   -1.7353910E+00
   3.2527908E-04   1.4283285E+05   -1.7348170E+00
   3.2678125E-04   1.4169591E+05   -1.7342432E+00
   3.2829036E-04   1.4056839E+05   -1.7336695E+00
   3.2980644E-04   1.3945021E+05   -1.7330960E+00
   3.3132952E-04   1.3834129E+05   -1.7325227E+00
   3.3285963E-04   1.3724155E+05   -1.7319496E+00
   3.3439681E-04   1.3615091E+05   -1.7313767E+00
   3.3594109E-04   1.3506929E+05   -1.7308039E+00
   3.3749250E-04   1.3399663E+05   -1.7302314E+00
   3.3905108E-04   1.3293283E+05   -1.7296591E+00
   3.4061685E-04   1.3187782E+05   -1.7290870E+00
   3.4218986E-04   1.3083154E+05   -1.7285151E+00
   3.4377013E-04   1.2979389E+05   -1.7279434E+00
   3.4535769E-04   1.2876481E+05   -1.7273720E+00
   3.4695259E-04   1.2774423E+05   -1.7268008E+00
   3.4855485E-04   1.2673208E+05   -1.7262299E+00
   3.5016452E-04   1.2572827E+05   -1.7256592E+00
   3.5178161E-04   1.2473274E+05   -1.7250887E+00
   3.5340618E-04   1.2374542E+05   -1.7245185E+00
   3.5503824E-04   1.2276623E+05   -1.7239486E+00
   3.5667785E-04   1.2179512E+05   -1.7233790E+00
   3.5832502E-04   1.2083200E+05   -1.7228096E+00
   3.5997981E-04   1.1987681E+05   -1.7222405E+00
   3.6164223E-04   1.1892949E+05   -1.7216717E+00
   3.6331233E-04   1.1798996E+05   -1.7211032E+00
   3.6499015E-04   1.1705816E+05   -1.7205350E+00
   3.6667571E-04   1.1613403E+05   -1.7199672E+00
   3.6836906E-04   1.1521749E+05   -1.7193996E+00
   3.7007022E-04   1.1430848E+05   -1.7188323E+00
   3.7177925E-04   1.1340694E+05   -1.7182654E+00
   3.7349616E-04   1.1251280E+05   -1.7176988E+00
   3.7522101E-04   1.1162601E+05   -1.7171326E+00
   3.7695382E-04   1.1074649E+05   -1.7165666E+00
   3.7869463E-04   1.0987419E+05   -1.7160011E+00
   3.8044348E-04   1.0900905E+05   -1.7154359E+00
   3.8220041E-04   1.0815099E+05   -1.7148710E+00
   3.8396545E-04   1.0729997E+05   -1.7143065E+00
   3.8573864E-04   1.0645593E+05   -1.7137424E+00
   3.8752002E-04   1.0561880E+05   -1.7131786E+00
   3.8930963E-04   1.0478852E+05   -1.7126153E+00
   3.9110750E-04   1.0396504E+05   -1.7120523E+00
   3.9291368E-04   1.0314830E+05   -1.7114897E+00
   3.9472820E-04   1.0233824E+05   -1.7109275E+00
   3.9655109E-04   1.0153481E+05   -1.7103658E+00
   3.9838241E-04   1.0073794E+05   -1.7098044E+00
   4.0022218E-04   9.9947585E+04   -1.7092434E+00
   4.0207045E-04   9.9163688E+04   -1.7086829E+00
   4.0392725E-04   9.8386193E+04   -1.7081228E+00
   4.0579263E-04   9.7615045E+04   -1.7075631E+00
   4.0766662E-04   9.6850192E+04   -1.7070039E+00
   4.0954927E-04   9.6091579E+04   -1.7064451E+00
   4.1144061E-04   9.5339153E+04   -1.7058867E+00
   4.1334068E-04   9.4592863E+04   -1.7053288E+00
   4.1524953E-04   9.3852655E+04   -1.7047714E+00
   4.1716720E-04   9.3118479E+04   -1.7042144E+00
   4.1909372E-04   9.2390282E+04   -1.7036579E+00
   4.2102914E-04   9.1668016E+04   -1.7031018E+00
   4.2297350E-04   9.0951628E+04   -1.7025463E+00
   4.2492683E-04   9.0241070E+04   -1.7019912E+00
   4.2688919E-04   8.9536292E+04   -1.7014366E+00
   4.2886061E-04   8.8837246E+04   -1.7008826E+00
   4.3084113E-04   8.8143882E+04   -1.7003290E+00
   4.3283080E-04   8.7456153E+04   -1.6997759E+00
   4.3482966E-04   8.6774010E+04   -1.6992233E+00
   4.3683775E-04   8.6097408E+04   -1.6986713E+00
   4.3885511E-04   8.5426298E+04   -1.6981197E+00
   4.4088179E-04   8.4760634E+04   -1.6975687E+00
   4.4291783E-04   8.4100371E+04   -1.6970183E+00
   4.4496327E-04   8.3445463E+04   -1.6964683E+00
   4.4701816E-04   8.2795864E+04   -1.6959189E+00
   4.4908253E-04   8.2151530E+04   -1.6953701E+00
   4.5115644E-04   8.1512417E+04   -1.6948218E+00
   4.5323993E-04   8.0878480E+04   -1.6942741E+00
   4.5533304E-04   8.0249675E+04   -1.6937269E+00
   4.5743582E-04   7.9625960E+04   -1.6931803E+00
   4.5954830E-04   7.9007292E+04   -1.6926342E+00
   4.6167054E-04   7.8393627E+04   -1.6920888E+00
   4.6380259E-04   7.7784925E+04   -1.6915439E+00
   4.6594448E-04   7.7181142E+04   -1.6909996E+00
   4.6809626E-04   7.6582238E+04   -1.6904559E+00
   4.7025797E-04   7.5988171E+04   -1.6899127E+00
   4.7242967E-04   7.5398902E+04   -1.6893702E+00
   4.7461140E-04   7.4814389E+04   -1.6888283E+00
   4.7680321E-04   7.4234592E+04   -1.6882870E+00
   4.7900514E-04   7.3659472E+04   -1.6877463E+00
   4.8121723E-04   7.3088990E+04   -1.6872063E+00
   4.8343954E-04   7.2523107E+04   -1.6866668E+00
   4.8567212E-04   7.1961784E+04   -1.6861280E+00
   4.8791500E-04   7.1404982E+04   -1.6855898E+00
   4.9016825E-04   7.0852665E+04   -1.6850523E+00
   4.9243189E-04   7.0304793E+04   -1.6845154E+00
   4.9470600E-04   6.9761331E+04   -1.6839791E+00
   4.9699060E-04   6.9222240E+04   -1.6834435E+00
   4.9928575E-04   6.8687485E+04   -1.6829086E+00
   5.0159151E-04   6.8157028E+04   -1.6823743E+00
   5.0390791E-04   6.7630835E+04   -1.6818407E+00
   5.0623501E-04   6.7108869E+04   -1.6813077E+00
   5.0857286E-04   6.6591094E+04   -1.6807755E+00
   5.1092150E-04   6.6077477E+04   -1.6802439E+00
   5.1328099E-04   6.5567982E+04   -1.6797129E+00
   5.1565137E-04   6.5062574E+04   -1.6791827E+00
   5.1803270E-04   6.4561219E+04   -1.6786532E+00
   5.2042503E-04   6.4063884E+04   -1.6781243E+00
   5.2282841E-04   6.3570535E+04   -1.6775962E+00
   5.2524289E-04   6.3081139E+04   -1.6770687E+00
   5.2766851E-04   6.2595662E+04   -1.6765420E+00
   5.3010534E-04   6.2114072E+04   -1.6760159E+00
   5.3255342E-04   6.1636337E+04   -1.6754906E+00
   5.3501281E-04   6.1162424E+04   -1.6749660E+00
   5.3748356E-04   6.0692301E+04   -1.6744422E+00
   5.3996571E-04   6.0225937E+04   -1.6739190E+00
   5.4245933E-04   5.9763301E+04   -1.6733966E+00
   5.4496446E-04   5.9304361E+04   -1.6728749E+00
   5.4748117E-04   5.8849087E+04   -1.6723540E+00
   5.5000949E-04   5.8397448E+04   -1.6718338E+00
   5.5254949E-04   5.7949414E+04   -1.6713144E+00
   5.5510123E-04   5.7504955E+04   -1.6707957E+00
   5.5766474E-04   5.7064041E+04   -1.6702777E+00
   5.6024010E-04   5.6626643E+04   -1.6697606E+00
   5.6282734E-04   5.6192731E+04   -1.6692442E+00
   5.6542654E-04   5.5762277E+04   -1.6687285E+00
   5.6803774E-04   5.5335251E+04   -1.6682136E+00
   5.7066099E-04   5.4911626E+04   -1.6676995E+00
   5.7329637E-04   5.4491373E+04   -1.6671862E+00
   5.7594391E-04   5.4074464E+04   -1.6666737E+00
   5.7860368E-04   5.3660871E+04   -1.6661619E+00
   5.8127573E-04   5.3250567E+04   -1.6656510E+00
   5.8396012E-04   5.2843525E+04   -1.6651408E+00
   5.8665691E-04   5.2439718E+04   -1.6646314E+00
   5.8936616E-04   5.2039118E+04   -1.6641228E+00
   5.9208791E-04   5.1641699E+04   -1.6636150E+00
   5.9482223E-04   5.1247435E+04   -1.6631081E+00
   5.9756919E-04   5.0856300E+04   -1.6626019E+00
   6.0032882E-04   5.0468268E+04   -1.6620966E+00
   6.0310120E-04   5.0083313E+04   -1.6615920E+00
   6.0588639E-04   4.9701410E+04   -1.6610883E+00
   6.0868443E-04   4.9322533E+04   -1.6605854E+00
   6.1149540E-04   4.8946658E+04   -1.6600834E+00
   6.1431935E-04   4.8573759E+04   -1.6595822E+00
   6.1715634E-04   4.8203813E+04   -1.6590818E+00
   6.2000644E-04   4.7836794E+04   -1.6585822E+00
   6.2286969E-04   4.7472679E+04   -1.6580835E+00
