#        a       HoverH0(a)       dlogHdloga_of_a(a)
   1.0000000E-04   1.1081103E+06   -1.8668762E+00
   1.0046181E-04   1.0986208E+06   -1.8664256E+00
   1.0092575E-04   1.0892149E+06   -1.8659741E+00
   1.0139184E-04   1.0798917E+06   -1.8655216E+00
   1.0186008E-04   1.0706506E+06   -1.8650682E+00
   1.0233048E-04   1.0614907E+06   -1.8646138E+00
   1.0280305E-04   1.0524114E+06   -1.8641584E+00
   1.0327781E-04   1.0434120E+06   -1.8637020E+00
   1.0375475E-04   1.0344917E+06   -1.8632448E+00
   1.0423390E-04   1.0256499E+06   -1.8627865E+00
   1.0471527E-04   1.0168857E+06   -1.8623273E+00
   1.0519885E-04   1.0081986E+06   -1.8618671E+00
   1.0568467E-04   9.9958782E+05   -1.8614060E+00
   1.0617274E-04   9.9105269E+05   -1.8609440E+00
   1.0666305E-04   9.8259253E+05   -1.8604810E+00
   1.0715563E-04   9.7420667E+05   -1.8600170E+00
   1.0765049E-04   9.6589445E+05   -1.8595522E+00
   1.0814763E-04   9.5765520E+05   -1.8590863E+00
   1.0864707E-04   9.4948827E+05   -1.8586196E+00
   1.0914881E-04   9.4139302E+05   -1.8581519E+00
   1.0965287E-04   9.3336880E+05   -1.8576832E+00
   1.1015926E-04   9.2541498E+05   -1.8572137E+00
   1.1066799E-04   9.1753092E+05   -1.8567432E+00
   1.1117906E-04   9.0971601E+05   -1.8562718E+00
   1.1169250E-04   9.0196962E+05   -1.8557994E+00
   1.1220831E-04   8.9429114E+05   -1.8553262E+00
   1.1272650E-04   8.8667996E+05   -1.8548520E+00
   1.1324708E-04   8.7913548E+05   -1.8543769E+00
   1.1377007E-04   8.7165710E+05   -1.8539009E+00
   1.1429547E-04   8.6424424E+05   -1.8534239E+00
   1.1482330E-04   8.5689631E+05   -1.8529461E+00
   1.1535356E-04   8.4961272E+05   -1.8524674E+00
   1.1588628E-04   8.4239290E+05   -1.8519877E+00
   1.1642145E-04   8.3523628E+05   -1.8515072E+00
   1.1695910E-04   8.2814229E+05   -1.8510257E+00
   1.1749923E-04   8.2111038E+05   -1.8505434E+00
   1.1804185E-04   8.1413999E+05   -1.8500601E+00
   1.1858698E-04   8.0723057E+05   -1.8495760E+00
   1.1913463E-04   8.0038158E+05   -1.8490910E+00
   1.1968481E-04   7.9359247E+05   -1.8486050E+00
   1.2023752E-04   7.8686271E+05   -1.8481182E+00
   1.2079279E-04   7.8019177E+05   -1.8476306E+00
   1.2135063E-04   7.7357913E+05   -1.8471420E+00
   1.2191104E-04   7.6702427E+05   -1.8466526E+00
   1.2247403E-04   7.6052666E+05   -1.8461623E+00
   1.2303963E-04   7.5408580E+05   -1.8456711E+00
   1.2360784E-04   7.4770118E+05   -1.8451790E+00
   1.2417868E-04   7.4137230E+05   -1.8446861E+00
   1.2475215E-04   7.3509866E+05   -1.8441924E+00
   1.2532826E-04   7.2887977E+05   -1.8436978E+00
   1.2590704E-04   7.2271514E+05   -1.8432023E+00
   1.2648850E-04   7.1660428E+05   -1.8427059E+00
   1.2707263E-04   7.1054672E+05   -1.8422088E+00
   1.2765947E-04   7.0454198E+05   -1.8417107E+00
   1.2824901E-04   6.9858959E+05   -1.8412119E+00
   1.2884128E-04   6.9268909E+05   -1.8407122E+00
   1.2943628E-04   6.8684000E+05   -1.8402116E+00
   1.3003403E-04   6.8104188E+05   -1.8397102E+00
   1.3063454E-04   6.7529426E+05   -1.8392080E+00
   1.3123783E-04   6.6959670E+05   -1.8387050E+00
   1.3184390E-04   6.6394876E+05   -1.8382011E+00
   1.3245277E-04   6.5834998E+05   -1.8376965E+00
   1.3306445E-04   6.5279993E+05   -1.8371910E+00
   1.3367895E-04   6.4729818E+05   -1.8366846E+00
   1.3429630E-04   6.4184429E+05   -1.8361775E+00
   1.3491649E-04   6.3643785E+05   -1.8356696E+00
   1.3553955E-04   6.3107842E+05   -1.8351609E+00
   1.3616548E-04   6.2576560E+05   -1.8346514E+00
   1.3679431E-04   6.2049896E+05   -1.8341410E+00
   1.3742604E-04   6.1527809E+05   -1.8336299E+00
   1.3806069E-04   6.1010259E+05   -1.8331180E+00
   1.3869827E-04   6.0497205E+05   -1.8326053E+00
   1.3933879E-04   5.9988608E+05   -1.8320919E+00
   1.3998227E-04   5.9484427E+05   -1.8315776E+00
   1.4062872E-04   5.8984623E+05   -1.8310626E+00
   1.4127816E-04   5.8489158E+05   -1.8305468E+00
   1.4193060E-04   5.7997992E+05   -1.8300303E+00
   1.4258605E-04   5.7511088E+05   -1.8295129E+00
   1.4324453E-04   5.7028408E+05   -1.8289949E+00
   1.4390605E-04   5.6549913E+05   -1.8284760E+00
   1.4457062E-04   5.6075568E+05   -1.8279564E+00
   1.4523826E-04   5.5605335E+05   -1.8274361E+00
   1.4590899E-04   5.5139178E+05   -1.8269150E+00
   1.4658281E-04   5.4677059E+05   -1.8263932E+00
   1.4725974E-04   5.4218944E+05   -1.8258707E+00
   1.4793981E-04   5.3764797E+05   -1.8253474E+00
   1.4862301E-04   5.3314583E+05   -1.8248234E+00
   1.4930936E-04   5.2868266E+05   -1.8242987E+00
   1.4999889E-04   5.2425813E+05   -1.8237732E+00
   1.5069160E-04   5.1987188E+05   -1.8232470E+00
   1.5138751E-04   5.1552358E+05   -1.8227202E+00
   1.5208663E-04   5.1121289E+05   -1.8221926E+00
   1.5278899E-04   5.0693948E+05   -1.8216643E+00
   1.5349458E-04   5.0270302E+05   -1.8211353E+00
   1.5420343E-04   4.9850318E+05   -1.8206056E+00
   1.5491556E-04   4.9433963E+05   -1.8200753E+00
   1.5563098E-04   4.9021206E+05   -1.8195442E+00
   1.5634970E-04   4.8612014E+05   -1.8190125E+00
   1.5707174E-04   4.8206356E+05   -1.8184801E+00
   1.5779711E-04   4.7804200E+05   -1.8179470E+00
   1.5852584E-04   4.7405516E+05   -1.8174132E+00
   1.5925792E-04   4.7010272E+05   -1.8168788E+00
   1.5999339E-04   4.6618439E+05   -1.8163437E+00
   1.6073226E-04   4.6229986E+05   -1.8158080E+00
   1.6147454E-04   4.5844882E+05   -1.8152716E+00
   1.6222024E-04   4.5463099E+05   -1.8147346E+00
   1.6296939E-04   4.5084607E+05   -1.8141969E+00
   1.6372200E-04   4.4709377E+05   -1.8136586E+00
   1.6447809E-04   4.4337380E+05   -1.8131197E+00
   1.6523767E-04   4.3968588E+05   -1.8125801E+00
   1.6600075E-04   4.3602971E+05   -1.8120399E+00
   1.6676736E-04   4.3240503E+05   -1.8114991E+00
   1.6753751E-04   4.2881154E+05   -1.8109577E+00
   1.6831122E-04   4.2524898E+05   -1.8104157E+00
   1.6908849E-04   4.2171707E+05   -1.8098731E+00
   1.6986936E-04   4.1821554E+05   -1.8093298E+00
   1.7065384E-04   4.1474412E+05   -1.8087860E+00
   1.7144193E-04   4.1130255E+05   -1.8082416E+00
   1.7223367E-04   4.0789056E+05   -1.8076966E+00
   1.7302906E-04   4.0450789E+05   -1.8071510E+00
   1.7382813E-04   4.0115428E+05   -1.8066048E+00
   1.7463089E-04   3.9782948E+05   -1.8060581E+00
   1.7543735E-04   3.9453323E+05   -1.8055108E+00
   1.7624754E-04   3.9126528E+05   -1.8049630E+00
   1.7706147E-04   3.8802537E+05   -1.8044146E+00
   1.7787916E-04   3.8481327E+05   -1.8038656E+00
   1.7870062E-04   3.8162872E+05   -1.8033161E+00
   1.7952588E-04   3.7847149E+05   -1.8027661E+00
   1.8035495E-04   3.7534133E+05   -1.8022155E+00
   1.8118785E-04   3.7223799E+05   -1.8016644E+00
   1.8202459E-04   3.6916126E+05   -1.8011127E+00
   1.8286520E-04   3.6611089E+05   -1.8005606E+00
   1.8370969E-04   3.6308664E+05   -1.8000079E+00
   1.8455808E-04   3.6008830E+05   -1.7994547E+00
   1.8541039E-04   3.5711563E+05   -1.7989010E+00
   1.8626663E-04   3.5416840E+05   -1.7983469E+00
   1.8712683E-04   3.5124639E+05   -1.7977922E+00
   1.8799100E-04   3.4834938E+05   -1.7972370E+00
   1.8885917E-04   3.4547715E+05   -1.7966814E+00
   1.8973134E-04   3.4262948E+05   -1.7961252E+00
   1.9060754E-04   3.3980615E+05   -1.7955686E+00
   1.9148778E-04   3.3700695E+05   -1.7950116E+00
   1.9237209E-04   3.3423167E+05   -1.7944540E+00
   1.9326049E-04   3.3148009E+05   -1.7938960E+00
   1.9415299E-04   3.2875201E+05   -1.7933376E+00
   1.9504960E-04   3.2604723E+05   -1.7927787E+00
   1.9595036E-04   3.2336553E+05   -1.7922194E+00
   1.9685528E-04   3.2070671E+05   -1.7916596E+00
   1.9776438E-04   3.1807058E+05   -1.7910994E+00
   1.9867768E-04   3.1545693E+05   -1.7905388E+00
   1.9959519E-04   3.1286556E+05   -1.7899777E+00
   2.0051694E-04   3.1029628E+05   -1.7894163E+00
   2.0144295E-04   3.0774890E+05   -1.7888544E+00
   2.0237324E-04   3.0522323E+05   -1.7882922E+00
   2.0330782E-04   3.0271906E+05   -1.7877295E+00
   2.0424671E-04   3.0023622E+05   -1.7871665E+00
   2.0518995E-04   2.9777451E+05   -1.7866030E+00
   2.0613754E-04   2.9533376E+05   -1.7860392E+00
   2.0708950E-04   2.9291377E+05   -1.7854750E+00
   2.0804586E-04   2.9051437E+05   -1.7849104E+00
   2.0900664E-04   2.8813538E+05   -1.7843455E+00
   2.0997185E-04   2.8577661E+05   -1.7837802E+00
   2.1094152E-04   2.8343788E+05   -1.7832146E+00
   2.1191567E-04   2.8111903E+05   -1.7826486E+00
   2.1289432E-04   2.7881988E+05   -1.7820823E+00
   2.1387749E-04   2.7654025E+05   -1.7815156E+00
   2.1486520E-04   2.7427998E+05   -1.7809486E+00
   2.1585747E-04   2.7203889E+05   -1.7803813E+00
   2.1685432E-04   2.6981682E+05   -1.7798137E+00
   2.1785578E-04   2.6761360E+05   -1.7792457E+00
   2.1886186E-04   2.6542906E+05   -1.7786775E+00
   2.1987259E-04   2.6326305E+05   -1.7781089E+00
   2.2088798E-04   2.6111540E+05   -1.7775401E+00
   2.2190807E-04   2.5898594E+05   -1.7769709E+00
   2.2293286E-04   2.5687453E+05   -1.7764015E+00
   2.2396239E-04   2.5478100E+05   -1.7758318E+00
   2.2499667E-04   2.5270519E+05   -1.7752618E+00
   2.2603573E-04   2.5064696E+05   -1.7746916E+00
   2.2707958E-04   2.4860614E+05   -1.7741211E+00
   2.2812826E-04   2.4658258E+05   -1.7735503E+00
   2.2918178E-04   2.4457614E+05   -1.7729794E+00
   2.3024017E-04   2.4258667E+05   -1.7724081E+00
   2.3130344E-04   2.4061401E+05   -1.7718366E+00
   2.3237162E-04   2.3865802E+05   -1.7712649E+00
   2.3344474E-04   2.3671856E+05   -1.7706930E+00
   2.3452281E-04   2.3479548E+05   -1.7701208E+00
   2.3560586E-04   2.3288863E+05   -1.7695485E+00
   2.3669392E-04   2.3099788E+05   -1.7689759E+00
   2.3778699E-04   2.2912308E+05   -1.7684031E+00
   2.3888512E-04   2.2726410E+05   -1.7678302E+00
   2.3998831E-04   2.2542080E+05   -1.7672570E+00
   2.4109661E-04   2.2359304E+05   -1.7666837E+00
   2.4221001E-04   2.2178068E+05   -1.7661102E+00
   2.4332857E-04   2.1998360E+05   -1.7655365E+00
   2.4445228E-04   2.1820165E+05   -1.7649627E+00
   2.4558119E-04   2.1643472E+05   -1.7643886E+00
   2.4671531E-04   2.1468265E+05   -1.7638145E+00
   2.4785467E-04   2.1294534E+05   -1.7632402E+00
   2.4899928E-04   2.1122264E+05   -1.7626657E+00
   2.5014919E-04   2.0951443E+05   -1.7620912E+00
   2.5130440E-04   2.0782059E+05   -1.7615164E+00
   2.5246495E-04   2.0614099E+05   -1.7609416E+00
   2.5363086E-04   2.0447550E+05   -1.7603667E+00
   2.5480216E-04   2.0282401E+05   -1.7597916E+00
   2.5597886E-04   2.0118639E+05   -1.7592164E+00
   2.5716100E-04   1.9956252E+05   -1.7586412E+00
   2.5834859E-04   1.9795228E+05   -1.7580658E+00
   2.5954168E-04   1.9635556E+05   -1.7574904E+00
   2.6074027E-04   1.9477223E+05   -1.7569149E+00
   2.6194439E-04   1.9320218E+05   -1.7563393E+00
   2.6315408E-04   1.9164530E+05   -1.7557636E+00
   2.6436935E-04   1.9010146E+05   -1.7551879E+00
   2.6559024E-04   1.8857056E+05   -1.7546121E+00
   2.6681676E-04   1.8705249E+05   -1.7540363E+00
   2.6804895E-04   1.8554713E+05   -1.7534604E+00
   2.6928683E-04   1.8405438E+05   -1.7528845E+00
   2.7053042E-04   1.8257411E+05   -1.7523086E+00
   2.7177976E-04   1.8110624E+05   -1.7517326E+00
   2.7303487E-04   1.7965064E+05   -1.7511566E+00
   2.7429577E-04   1.7820721E+05   -1.7505806E+00
   2.7556250E-04   1.7677585E+05   -1.7500046E+00
   2.7683507E-04   1.7535645E+05   -1.7494286E+00
   2.7811353E-04   1.7394891E+05   -1.7488526E+00
   2.7939788E-04   1.7255313E+05   -1.7482767E+00
   2.8068817E-04   1.7116900E+05   -1.7477007E+00
   2.8198442E-04   1.6979643E+05   -1.7471248E+00
   2.8328665E-04   1.6843530E+05   -1.7465488E+00
   2.8459490E-04   1.6708554E+05   -1.7459730E+00
   2.8590919E-04   1.6574702E+05   -1.7453971E+00
   2.8722955E-04   1.6441967E+05   -1.7448213E+00
   2.8855600E-04   1.6310338E+05   -1.7442456E+00
   2.8988859E-04   1.6179806E+05   -1.7436699E+00
   2.9122732E-04   1.6050361E+05   -1.7430943E+00
   2.9257224E-04   1.5921993E+05   -1.7425188E+00
   2.9392337E-04   1.5794695E+05   -1.7419434E+00
   2.9528074E-04   1.5668455E+05   -1.7413680E+00
   2.9664438E-04   1.5543266E+05   -1.7407927E+00
   2.9801431E-04   1.5419118E+05   -1.7402175E+00
   2.9939057E-04   1.5296002E+05   -1.7396425E+00
   3.0077319E-04   1.5173909E+05   -1.7390675E+00
   3.0216219E-04   1.5052831E+05   -1.7384926E+00
   3.0355761E-04   1.4932758E+05   -1.7379179E+00
   3.0495947E-04   1.4813682E+05   -1.7373433E+00
   3.0636780E-04   1.4695595E+05   -1.7367688E+00
   3.0778264E-04   1.4578488E+05   -1.7361945E+00
   3.0920401E-04   1.4462352E+05   -1.7356203E+00
   3.1063195E-04   1.4347179E+05   -1.7350463E+00
   3.1206648E-04   1.4232961E+05   -1.7344724E+00
   3.1350764E-04   1.4119690E+05   -1.7338987E+00
   3.1495545E-04   1.4007357E+05   -1.7333252E+00
   3.1640994E-04   1.3895955E+05   -1.7327518E+00
   3.1787116E-04   1.3785475E+05   -1.7321786E+00
   3.1933912E-04   1.3675909E+05   -1.7316056E+00
   3.2081386E-04   1.3567250E+05   -1.7310328E+00
   3.2229541E-04   1.3459490E+05   -1.7304602E+00
   3.2378381E-04   1.3352621E+05   -1.7298878E+00
   3.2527908E-04   1.3246636E+05   -1.7293156E+00
   3.2678125E-04   1.3141526E+05   -1.7287436E+00
   3.2829036E-04   1.3037285E+05   -1.7281719E+00
   3.2980644E-04   1.2933905E+05   -1.7276004E+00
   3.3132952E-04   1.2831378E+05   -1.7270291E+00
   3.3285963E-04   1.2729698E+05   -1.7264581E+00
   3.3439681E-04   1.2628856E+05   -1.7258873E+00
   3.3594109E-04   1.2528847E+05   -1.7253167E+00
   3.3749250E-04   1.2429662E+05   -1.7247465E+00
   3.3905108E-04   1.2331294E+05   -1.7241764E+00
   3.4061685E-04   1.2233737E+05   -1.7236067E+00
   3.4218986E-04   1.2136984E+05   -1.7230372E+00
   3.4377013E-04   1.2041028E+05   -1.7224680E+00
   3.4535769E-04   1.1945861E+05   -1.7218991E+00
   3.4695259E-04   1.1851478E+05   -1.7213305E+00
   3.4855485E-04   1.1757871E+05   -1.7207622E+00
   3.5016452E-04   1.1665034E+05   -1.7201942E+00
   3.5178161E-04   1.1572961E+05   -1.7196265E+00
   3.5340618E-04   1.1481644E+05   -1.7190592E+00
   3.5503824E-04   1.1391077E+05   -1.7184921E+00
   3.5667785E-04   1.1301255E+05   -1.7179254E+00
   3.5832502E-04   1.1212170E+05   -1.7173590E+00
   3.5997981E-04   1.1123816E+05   -1.7167930E+00
   3.6164223E-04   1.1036187E+05   -1.7162273E+00
   3.6331233E-04   1.0949277E+05   -1.7156619E+00
   3.6499015E-04   1.0863080E+05   -1.7150969E+00
   3.6667571E-04   1.0777589E+05   -1.7145323E+00
   3.6836906E-04   1.0692799E+05   -1.7139680E+00
   3.7007022E-04   1.0608704E+05   -1.7134042E+00
   3.7177925E-04   1.0525297E+05   -1.7128407E+00
   3.7349616E-04   1.0442573E+05   -1.7122775E+00
   3.7522101E-04   1.0360527E+05   -1.7117148E+00
   3.7695382E-04   1.0279151E+05   -1.7111525E+00
   3.7869463E-04   1.0198441E+05   -1.7105905E+00
   3.8044348E-04   1.0118391E+05   -1.7100290E+00
   3.8220041E-04   1.0038995E+05   -1.7094679E+00
   3.8396545E-04   9.9602485E+04   -1.7089072E+00
   3.8573864E-04   9.8821447E+04   -1.7083469E+00
   3.8752002E-04   9.8046787E+04   -1.7077871E+00
   3.8930963E-04   9.7278450E+04   -1.7072277E+00
   3.9110750E-04   9.6516383E+04   -1.7066687E+00
   3.9291368E-04   9.5760533E+04   -1.7061102E+00
   3.9472820E-04   9.5010846E+04   -1.7055521E+00
   3.9655109E-04   9.4267270E+04   -1.7049945E+00
   3.9838241E-04   9.3529754E+04   -1.7044373E+00
   4.0022218E-04   9.2798246E+04   -1.7038807E+00
   4.0207045E-04   9.2072696E+04   -1.7033244E+00
   4.0392725E-04   9.1353053E+04   -1.7027687E+00
   4.0579263E-04   9.0639266E+04   -1.7022135E+00
   4.0766662E-04   8.9931286E+04   -1.7016587E+00
   4.0954927E-04   8.9229064E+04   -1.7011044E+00
   4.1144061E-04   8.8532552E+04   -1.7005506E+00
   4.1334068E-04   8.7841700E+04   -1.6999974E+00
   4.1524953E-04   8.7156462E+04   -1.6994446E+00
   4.1716720E-04   8.6476789E+04   -1.6988924E+00
   4.1909372E-04   8.5802634E+04   -1.6983406E+00
   4.2102914E-04   8.5133952E+04   -1.6977894E+00
   4.2297350E-04   8.4470695E+04   -1.6972388E+00
   4.2492683E-04   8.3812817E+04   -1.6966886E+00
   4.2688919E-04   8.3160275E+04   -1.6961390E+00
   4.2886061E-04   8.2513021E+04   -1.6955900E+00
   4.3084113E-04   8.1871013E+04   -1.6950415E+00
   4.3283080E-04   8.1234205E+04   -1.6944935E+00
   4.3482966E-04   8.0602553E+04   -1.6939461E+00
   4.3683775E-04   7.9976015E+04   -1.6933993E+00
   4.3885511E-04   7.9354546E+04   -1.6928530E+00
   4.4088179E-04   7.8738105E+04   -1.6923073E+00
   4.4291783E-04   7.8126649E+04   -1.6917622E+00
   4.4496327E-04   7.7520136E+04   -1.6912177E+00
   4.4701816E-04   7.6918524E+04   -1.6906738E+00
   4.4908253E-04   7.6321772E+04   -1.6901304E+00
   4.5115644E-04   7.5729839E+04   -1.6895877E+00
   4.5323993E-04   7.5142686E+04   -1.6890456E+00
   4.5533304E-04   7.4560270E+04   -1.6885040E+00
   4.5743582E-04   7.3982554E+04   -1.6879631E+00
   4.5954830E-04   7.3409496E+04   -1.6874228E+00
   4.6167054E-04   7.2841059E+04   -1.6868831E+00
   4.6380259E-04   7.2277203E+04   -1.6863441E+00
   4.6594448E-04   7.1717890E+04   -1.6858057E+00
   4.6809626E-04   7.1163081E+04   -1.6852679E+00
   4.7025797E-04   7.0612739E+04   -1.6847307E+00
   4.7242967E-04   7.0066826E+04   -1.6841942E+00
   4.7461140E-04   6.9525306E+04   -1.6836584E+00
   4.7680321E-04   6.8988141E+04   -1.6831232E+00
   4.7900514E-04   6.8455295E+04   -1.6825886E+00
   4.8121723E-04   6.7926732E+04   -1.6820548E+00
   4.8343954E-04   6.7402416E+04   -1.6815215E+00
   4.8567212E-04   6.6882311E+04   -1.6809890E+00
   4.8791500E-04   6.6366382E+04   -1.6804571E+00
   4.9016825E-04   6.5854594E+04   -1.6799260E+00
   4.9243189E-04   6.5346913E+04   -1.6793955E+00
   4.9470600E-04   6.4843304E+04   -1.6788657E+00
   4.9699060E-04   6.4343733E+04   -1.6783365E+00
   4.9928575E-04   6.3848167E+04   -1.6778081E+00
   5.0159151E-04   6.3356571E+04   -1.6772804E+00
   5.0390791E-04   6.2868913E+04   -1.6767534E+00
   5.0623501E-04   6.2385160E+04   -1.6762271E+00
   5.0857286E-04   6.1905279E+04   -1.6757015E+00
   5.1092150E-04   6.1429239E+04   -1.6751767E+00
   5.1328099E-04   6.0957006E+04   -1.6746525E+00
   5.1565137E-04   6.0488550E+04   -1.6741291E+00
   5.1803270E-04   6.0023838E+04   -1.6736064E+00
   5.2042503E-04   5.9562840E+04   -1.6730844E+00
   5.2282841E-04   5.9105525E+04   -1.6725632E+00
   5.2524289E-04   5.8651861E+04   -1.6720428E+00
   5.2766851E-04   5.8201820E+04   -1.6715230E+00
   5.3010534E-04   5.7755369E+04   -1.6710041E+00
   5.3255342E-04   5.7312480E+04   -1.6704858E+00
   5.3501281E-04   5.6873123E+04   -1.6699684E+00
   5.3748356E-04   5.6437268E+04   -1.6694517E+00
   5.3996571E-04   5.6004887E+04   -1.6689357E+00
   5.4245933E-04   5.5575951E+04   -1.6684206E+00
   5.4496446E-04   5.5150430E+04   -1.6679062E+00
   5.4748117E-04   5.4728298E+04   -1.6673925E+00
   5.5000949E-04   5.4309524E+04   -1.6668797E+00
   5.5254949E-04   5.3894083E+04   -1.6663676E+00
   5.5510123E-04   5.3481945E+04   -1.6658564E+00
   5.5766474E-04   5.3073084E+04   -1.6653459E+00
   5.6024010E-04   5.2667473E+04   -1.6648362E+00
   5.6282734E-04   5.2265084E+04   -1.6643273E+00
   5.6542654E-04   5.1865890E+04   -1.6638192E+00
   5.6803774E-04   5.1469867E+04   -1.6633120E+00
   5.7066099E-04   5.1076986E+04   -1.6628055E+00
   5.7329637E-04   5.0687222E+04   -1.6622998E+00
   5.7594391E-04   5.0300550E+04   -1.6617950E+00
   5.7860368E-04   4.9916944E+04   -1.6612910E+00
   5.8127573E-04   4.9536378E+04   -1.6607878E+00
   5.8396012E-04   4.9158827E+04   -1.6602854E+00
   5.8665691E-04   4.8784267E+04   -1.6597839E+00
   5.8936616E-04   4.8412672E+04   -1.6592832E+00
   5.9208791E-04   4.8044019E+04   -1.6587833E+00
   5.9482223E-04   4.7678283E+04   -1.6582842E+00
   5.9756919E-04   4.7315439E+04   -1.6577860E+00
   6.0032882E-04   4.6955465E+04   -1.6572887E+00
   6.0310120E-04   4.6598335E+04   -1.6567922E+00
   6.0588639E-04   4.6244028E+04   -1.6562965E+00
   6.0868443E-04   4.5892519E+04   -1.6558017E+00
   6.1149540E-04   4.5543786E+04   -1.6553078E+00
   6.1431935E-04   4.5197806E+04   -1.6548147E+00
   6.1715634E-04   4.4854556E+04   -1.6543225E+00
   6.2000644E-04   4.4514014E+04   -1.6538311E+00
   6.2286969E-04   4.4176157E+04   -1.6533406E+00
