#        a       HoverH0(a)       dlogHdloga_of_a(a)
   1.0000000E-04   1.0729453E+06   -1.8670251E+00
   1.0046181E-04   1.0637562E+06   -1.8665748E+00
   1.0092575E-04   1.0546480E+06   -1.8661236E+00
   1.0139184E-04   1.0456200E+06   -1.8656715E+00
   1.0186008E-04   1.0366714E+06   -1.8652183E+00
   1.0233048E-04   1.0278016E+06   -1.8647642E+00
   1.0280305E-04   1.0190097E+06   -1.8643092E+00
   1.0327781E-04   1.0102952E+06   -1.8638531E+00
   1.0375475E-04   1.0016574E+06   -1.8633962E+00
   1.0423390E-04   9.9309546E+05   -1.8629382E+00
   1.0471527E-04   9.8460880E+05   -1.8624793E+00
   1.0519885E-04   9.7619673E+05   -1.8620195E+00
   1.0568467E-04   9.6785859E+05   -1.8615587E+00
   1.0617274E-04   9.5959370E+05   -1.8610970E+00
   1.0666305E-04   9.5140142E+05   -1.8606343E+00
   1.0715563E-04   9.4328110E+05   -1.8601707E+00
   1.0765049E-04   9.3523208E+05   -1.8597061E+00
   1.0814763E-04   9.2725373E+05   -1.8592406E+00
   1.0864707E-04   9.1934541E+05   -1.8587741E+00
   1.0914881E-04   9.1150651E+05   -1.8583067E+00
   1.0965287E-04   9.0373639E+05   -1.8578384E+00
   1.1015926E-04   8.9603444E+05   -1.8573692E+00
   1.1066799E-04   8.8840005E+05   -1.8568990E+00
   1.1117906E-04   8.8083262E+05   -1.8564279E+00
   1.1169250E-04   8.7333155E+05   -1.8559558E+00
   1.1220831E-04   8.6589624E+05   -1.8554829E+00
   1.1272650E-04   8.5852610E+05   -1.8550090E+00
   1.1324708E-04   8.5122056E+05   -1.8545342E+00
   1.1377007E-04   8.4397903E+05   -1.8540585E+00
   1.1429547E-04   8.3680095E+05   -1.8535819E+00
   1.1482330E-04   8.2968574E+05   -1.8531043E+00
   1.1535356E-04   8.2263283E+05   -1.8526259E+00
   1.1588628E-04   8.1564169E+05   -1.8521465E+00
   1.1642145E-04   8.0871174E+05   -1.8516663E+00
   1.1695910E-04   8.0184245E+05   -1.8511851E+00
   1.1749923E-04   7.9503327E+05   -1.8507031E+00
   1.1804185E-04   7.8828367E+05   -1.8502201E+00
   1.1858698E-04   7.8159311E+05   -1.8497363E+00
   1.1913463E-04   7.7496106E+05   -1.8492515E+00
   1.1968481E-04   7.6838701E+05   -1.8487659E+00
   1.2023752E-04   7.6187043E+05   -1.8482794E+00
   1.2079279E-04   7.5541082E+05   -1.8477920E+00
   1.2135063E-04   7.4900766E+05   -1.8473038E+00
   1.2191104E-04   7.4266044E+05   -1.8468146E+00
   1.2247403E-04   7.3636867E+05   -1.8463246E+00
   1.2303963E-04   7.3013186E+05   -1.8458337E+00
   1.2360784E-04   7.2394951E+05   -1.8453420E+00
   1.2417868E-04   7.1782113E+05   -1.8448493E+00
   1.2475215E-04   7.1174625E+05   -1.8443558E+00
   1.2532826E-04   7.0572439E+05   -1.8438615E+00
   1.2590704E-04   6.9975507E+05   -1.8433663E+00
   1.2648850E-04   6.9383782E+05   -1.8428703E+00
   1.2707263E-04   6.8797219E+05   -1.8423734E+00
   1.2765947E-04   6.8215771E+05   -1.8418756E+00
   1.2824901E-04   6.7639392E+05   -1.8413770E+00
   1.2884128E-04   6.7068038E+05   -1.8408776E+00
   1.2943628E-04   6.6501663E+05   -1.8403773E+00
   1.3003403E-04   6.5940223E+05   -1.8398762E+00
   1.3063454E-04   6.5383674E+05   -1.8393743E+00
   1.3123783E-04   6.4831972E+05   -1.8388715E+00
   1.3184390E-04   6.4285075E+05   -1.8383679E+00
   1.3245277E-04   6.3742939E+05   -1.8378635E+00
   1.3306445E-04   6.3205522E+05   -1.8373583E+00
   1.3367895E-04   6.2672782E+05   -1.8368523E+00
   1.3429630E-04   6.2144677E+05   -1.8363454E+00
   1.3491649E-04   6.1621167E+05   -1.8358378E+00
   1.3553955E-04   6.1102209E+05   -1.8353293E+00
   1.3616548E-04   6.0587764E+05   -1.8348200E+00
   1.3679431E-04   6.0077792E+05   -1.8343100E+00
   1.3742604E-04   5.9572252E+05   -1.8337991E+00
   1.3806069E-04   5.9071106E+05   -1.8332875E+00
   1.3869827E-04   5.8574313E+05   -1.8327751E+00
   1.3933879E-04   5.8081836E+05   -1.8322618E+00
   1.3998227E-04   5.7593635E+05   -1.8317479E+00
   1.4062872E-04   5.7109673E+05   -1.8312331E+00
   1.4127816E-04   5.6629913E+05   -1.8307176E+00
   1.4193060E-04   5.6154316E+05   -1.8302013E+00
   1.4258605E-04   5.5682846E+05   -1.8296842E+00
   1.4324453E-04   5.5215466E+05   -1.8291664E+00
   1.4390605E-04   5.4752140E+05   -1.8286478E+00
   1.4457062E-04   5.4292832E+05   -1.8281284E+00
   1.4523826E-04   5.3837506E+05   -1.8276084E+00
   1.4590899E-04   5.3386126E+05   -1.8270875E+00
   1.4658281E-04   5.2938658E+05   -1.8265660E+00
   1.4725974E-04   5.2495066E+05   -1.8260437E+00
   1.4793981E-04   5.2055317E+05   -1.8255206E+00
   1.4862301E-04   5.1619376E+05   -1.8249968E+00
   1.4930936E-04   5.1187210E+05   -1.8244724E+00
   1.4999889E-04   5.0758785E+05   -1.8239471E+00
   1.5069160E-04   5.0334067E+05   -1.8234212E+00
   1.5138751E-04   4.9913024E+05   -1.8228946E+00
   1.5208663E-04   4.9495623E+05   -1.8223672E+00
   1.5278899E-04   4.9081832E+05   -1.8218392E+00
   1.5349458E-04   4.8671619E+05   -1.8213104E+00
   1.5420343E-04   4.8264952E+05   -1.8207810E+00
   1.5491556E-04   4.7861800E+05   -1.8202508E+00
   1.5563098E-04   4.7462131E+05   -1.8197200E+00
   1.5634970E-04   4.7065915E+05   -1.8191885E+00
   1.5707174E-04   4.6673121E+05   -1.8186563E+00
   1.5779711E-04   4.6283718E+05   -1.8181234E+00
   1.5852584E-04   4.5897678E+05   -1.8175899E+00
   1.5925792E-04   4.5514969E+05   -1.8170557E+00
   1.5999339E-04   4.5135562E+05   -1.8165209E+00
   1.6073226E-04   4.4759428E+05   -1.8159853E+00
   1.6147454E-04   4.4386538E+05   -1.8154492E+00
   1.6222024E-04   4.4016864E+05   -1.8149124E+00
   1.6296939E-04   4.3650377E+05   -1.8143749E+00
   1.6372200E-04   4.3287048E+05   -1.8138368E+00
   1.6447809E-04   4.2926850E+05   -1.8132981E+00
   1.6523767E-04   4.2569755E+05   -1.8127587E+00
   1.6600075E-04   4.2215735E+05   -1.8122187E+00
   1.6676736E-04   4.1864764E+05   -1.8116781E+00
   1.6753751E-04   4.1516814E+05   -1.8111369E+00
   1.6831122E-04   4.1171859E+05   -1.8105951E+00
   1.6908849E-04   4.0829872E+05   -1.8100527E+00
   1.6986936E-04   4.0490827E+05   -1.8095096E+00
   1.7065384E-04   4.0154698E+05   -1.8089660E+00
   1.7144193E-04   3.9821458E+05   -1.8084218E+00
   1.7223367E-04   3.9491084E+05   -1.8078770E+00
   1.7302906E-04   3.9163549E+05   -1.8073316E+00
   1.7382813E-04   3.8838828E+05   -1.8067856E+00
   1.7463089E-04   3.8516896E+05   -1.8062391E+00
   1.7543735E-04   3.8197729E+05   -1.8056920E+00
   1.7624754E-04   3.7881302E+05   -1.8051443E+00
   1.7706147E-04   3.7567592E+05   -1.8045961E+00
   1.7787916E-04   3.7256573E+05   -1.8040473E+00
   1.7870062E-04   3.6948223E+05   -1.8034980E+00
   1.7952588E-04   3.6642518E+05   -1.8029481E+00
   1.8035495E-04   3.6339434E+05   -1.8023977E+00
   1.8118785E-04   3.6038948E+05   -1.8018468E+00
   1.8202459E-04   3.5741038E+05   -1.8012953E+00
   1.8286520E-04   3.5445681E+05   -1.8007433E+00
   1.8370969E-04   3.5152854E+05   -1.8001908E+00
   1.8455808E-04   3.4862535E+05   -1.7996378E+00
   1.8541039E-04   3.4574701E+05   -1.7990843E+00
   1.8626663E-04   3.4289332E+05   -1.7985303E+00
   1.8712683E-04   3.4006405E+05   -1.7979758E+00
   1.8799100E-04   3.3725898E+05   -1.7974208E+00
   1.8885917E-04   3.3447791E+05   -1.7968653E+00
   1.8973134E-04   3.3172062E+05   -1.7963093E+00
   1.9060754E-04   3.2898690E+05   -1.7957528E+00
   1.9148778E-04   3.2627655E+05   -1.7951959E+00
   1.9237209E-04   3.2358936E+05   -1.7946385E+00
   1.9326049E-04   3.2092512E+05   -1.7940807E+00
   1.9415299E-04   3.1828364E+05   -1.7935224E+00
   1.9504960E-04   3.1566471E+05   -1.7929637E+00
   1.9595036E-04   3.1306814E+05   -1.7924045E+00
   1.9685528E-04   3.1049373E+05   -1.7918449E+00
   1.9776438E-04   3.0794128E+05   -1.7912848E+00
   1.9867768E-04   3.0541060E+05   -1.7907243E+00
   1.9959519E-04   3.0290151E+05   -1.7901634E+00
   2.0051694E-04   3.0041380E+05   -1.7896021E+00
   2.0144295E-04   2.9794729E+05   -1.7890404E+00
   2.0237324E-04   2.9550180E+05   -1.7884782E+00
   2.0330782E-04   2.9307714E+05   -1.7879157E+00
   2.0424671E-04   2.9067313E+05   -1.7873528E+00
   2.0518995E-04   2.8828959E+05   -1.7867895E+00
   2.0613754E-04   2.8592634E+05   -1.7862258E+00
   2.0708950E-04   2.8358319E+05   -1.7856617E+00
   2.0804586E-04   2.8125998E+05   -1.7850973E+00
   2.0900664E-04   2.7895653E+05   -1.7845324E+00
   2.0997185E-04   2.7667266E+05   -1.7839673E+00
   2.1094152E-04   2.7440820E+05   -1.7834018E+00
   2.1191567E-04   2.7216299E+05   -1.7828359E+00
   2.1289432E-04   2.6993685E+05   -1.7822697E+00
   2.1387749E-04   2.6772962E+05   -1.7817031E+00
   2.1486520E-04   2.6554113E+05   -1.7811362E+00
   2.1585747E-04   2.6337122E+05   -1.7805690E+00
   2.1685432E-04   2.6121972E+05   -1.7800015E+00
   2.1785578E-04   2.5908648E+05   -1.7794337E+00
   2.1886186E-04   2.5697133E+05   -1.7788655E+00
   2.1987259E-04   2.5487411E+05   -1.7782970E+00
   2.2088798E-04   2.5279467E+05   -1.7777283E+00
   2.2190807E-04   2.5073286E+05   -1.7771593E+00
   2.2293286E-04   2.4868851E+05   -1.7765899E+00
   2.2396239E-04   2.4666148E+05   -1.7760203E+00
   2.2499667E-04   2.4465162E+05   -1.7754504E+00
   2.2603573E-04   2.4265877E+05   -1.7748803E+00
   2.2707958E-04   2.4068278E+05   -1.7743099E+00
   2.2812826E-04   2.3872351E+05   -1.7737392E+00
   2.2918178E-04   2.3678082E+05   -1.7731683E+00
   2.3024017E-04   2.3485455E+05   -1.7725971E+00
   2.3130344E-04   2.3294456E+05   -1.7720257E+00
   2.3237162E-04   2.3105072E+05   -1.7714541E+00
   2.3344474E-04   2.2917288E+05   -1.7708822E+00
   2.3452281E-04   2.2731090E+05   -1.7703102E+00
   2.3560586E-04   2.2546464E+05   -1.7697379E+00
   2.3669392E-04   2.2363396E+05   -1.7691654E+00
   2.3778699E-04   2.2181874E+05   -1.7685927E+00
   2.3888512E-04   2.2001883E+05   -1.7680198E+00
   2.3998831E-04   2.1823410E+05   -1.7674467E+00
   2.4109661E-04   2.1646442E+05   -1.7668734E+00
   2.4221001E-04   2.1470966E+05   -1.7662999E+00
   2.4332857E-04   2.1296969E+05   -1.7657263E+00
   2.4445228E-04   2.1124437E+05   -1.7651525E+00
   2.4558119E-04   2.0953359E+05   -1.7645786E+00
   2.4671531E-04   2.0783721E+05   -1.7640045E+00
   2.4785467E-04   2.0615511E+05   -1.7634302E+00
   2.4899928E-04   2.0448717E+05   -1.7628558E+00
   2.5014919E-04   2.0283325E+05   -1.7622813E+00
   2.5130440E-04   2.0119325E+05   -1.7617066E+00
   2.5246495E-04   1.9956703E+05   -1.7611318E+00
   2.5363086E-04   1.9795449E+05   -1.7605569E+00
   2.5480216E-04   1.9635549E+05   -1.7599819E+00
   2.5597886E-04   1.9476993E+05   -1.7594067E+00
   2.5716100E-04   1.9319768E+05   -1.7588315E+00
   2.5834859E-04   1.9163863E+05   -1.7582562E+00
   2.5954168E-04   1.9009267E+05   -1.7576808E+00
   2.6074027E-04   1.8855967E+05   -1.7571053E+00
   2.6194439E-04   1.8703954E+05   -1.7565297E+00
   2.6315408E-04   1.8553215E+05   -1.7559541E+00
   2.6436935E-04   1.8403740E+05   -1.7553784E+00
   2.6559024E-04   1.8255518E+05   -1.7548026E+00
   2.6681676E-04   1.8108537E+05   -1.7542268E+00
   2.6804895E-04   1.7962788E+05   -1.7536510E+00
   2.6928683E-04   1.7818259E+05   -1.7530751E+00
   2.7053042E-04   1.7674939E+05   -1.7524991E+00
   2.7177976E-04   1.7532819E+05   -1.7519232E+00
   2.7303487E-04   1.7391888E+05   -1.7513472E+00
   2.7429577E-04   1.7252136E+05   -1.7507712E+00
   2.7556250E-04   1.7113552E+05   -1.7501952E+00
   2.7683507E-04   1.6976126E+05   -1.7496192E+00
   2.7811353E-04   1.6839848E+05   -1.7490432E+00
   2.7939788E-04   1.6704709E+05   -1.7484672E+00
   2.8068817E-04   1.6570698E+05   -1.7478912E+00
   2.8198442E-04   1.6437806E+05   -1.7473153E+00
   2.8328665E-04   1.6306023E+05   -1.7467394E+00
   2.8459490E-04   1.6175339E+05   -1.7461635E+00
   2.8590919E-04   1.6045745E+05   -1.7455876E+00
   2.8722955E-04   1.5917232E+05   -1.7450118E+00
   2.8855600E-04   1.5789790E+05   -1.7444361E+00
   2.8988859E-04   1.5663410E+05   -1.7438604E+00
   2.9122732E-04   1.5538083E+05   -1.7432848E+00
   2.9257224E-04   1.5413799E+05   -1.7427092E+00
   2.9392337E-04   1.5290550E+05   -1.7421337E+00
   2.9528074E-04   1.5168327E+05   -1.7415583E+00
   2.9664438E-04   1.5047120E+05   -1.7409830E+00
   2.9801431E-04   1.4926922E+05   -1.7404078E+00
   2.9939057E-04   1.4807723E+05   -1.7398327E+00
   3.0077319E-04   1.4689514E+05   -1.7392577E+00
   3.0216219E-04   1.4572289E+05   -1.7386828E+00
   3.0355761E-04   1.4456036E+05   -1.7381080E+00
   3.0495947E-04   1.4340750E+05   -1.7375334E+00
   3.0636780E-04   1.4226420E+05   -1.7369589E+00
   3.0778264E-04   1.4113039E+05   -1.7363845E+00
   3.0920401E-04   1.4000599E+05   -1.7358103E+00
   3.1063195E-04   1.3889091E+05   -1.7352362E+00
   3.1206648E-04   1.3778508E+05   -1.7346622E+00
   3.1350764E-04   1.3668841E+05   -1.7340885E+00
   3.1495545E-04   1.3560084E+05   -1.7335149E+00
   3.1640994E-04   1.3452227E+05   -1.7329415E+00
   3.1787116E-04   1.3345263E+05   -1.7323682E+00
   3.1933912E-04   1.3239185E+05   -1.7317951E+00
   3.2081386E-04   1.3133984E+05   -1.7312223E+00
   3.2229541E-04   1.3029654E+05   -1.7306496E+00
   3.2378381E-04   1.2926187E+05   -1.7300771E+00
   3.2527908E-04   1.2823575E+05   -1.7295049E+00
   3.2678125E-04   1.2721811E+05   -1.7289328E+00
   3.2829036E-04   1.2620888E+05   -1.7283610E+00
   3.2980644E-04   1.2520799E+05   -1.7277894E+00
   3.3132952E-04   1.2421536E+05   -1.7272181E+00
   3.3285963E-04   1.2323093E+05   -1.7266470E+00
   3.3439681E-04   1.2225462E+05   -1.7260761E+00
   3.3594109E-04   1.2128636E+05   -1.7255055E+00
   3.3749250E-04   1.2032609E+05   -1.7249351E+00
   3.3905108E-04   1.1937373E+05   -1.7243650E+00
   3.4061685E-04   1.1842922E+05   -1.7237951E+00
   3.4218986E-04   1.1749250E+05   -1.7232256E+00
   3.4377013E-04   1.1656349E+05   -1.7226563E+00
   3.4535769E-04   1.1564213E+05   -1.7220873E+00
   3.4695259E-04   1.1472835E+05   -1.7215186E+00
   3.4855485E-04   1.1382209E+05   -1.7209502E+00
   3.5016452E-04   1.1292328E+05   -1.7203821E+00
   3.5178161E-04   1.1203187E+05   -1.7198143E+00
   3.5340618E-04   1.1114778E+05   -1.7192468E+00
   3.5503824E-04   1.1027096E+05   -1.7186797E+00
   3.5667785E-04   1.0940134E+05   -1.7181128E+00
   3.5832502E-04   1.0853886E+05   -1.7175463E+00
   3.5997981E-04   1.0768346E+05   -1.7169802E+00
   3.6164223E-04   1.0683509E+05   -1.7164144E+00
   3.6331233E-04   1.0599367E+05   -1.7158489E+00
   3.6499015E-04   1.0515915E+05   -1.7152838E+00
   3.6667571E-04   1.0433148E+05   -1.7147191E+00
   3.6836906E-04   1.0351059E+05   -1.7141547E+00
   3.7007022E-04   1.0269642E+05   -1.7135907E+00
   3.7177925E-04   1.0188892E+05   -1.7130270E+00
   3.7349616E-04   1.0108804E+05   -1.7124638E+00
   3.7522101E-04   1.0029371E+05   -1.7119009E+00
   3.7695382E-04   9.9505878E+04   -1.7113384E+00
   3.7869463E-04   9.8724493E+04   -1.7107764E+00
   3.8044348E-04   9.7949497E+04   -1.7102147E+00
   3.8220041E-04   9.7180836E+04   -1.7096535E+00
   3.8396545E-04   9.6418456E+04   -1.7090926E+00
   3.8573864E-04   9.5662305E+04   -1.7085322E+00
   3.8752002E-04   9.4912328E+04   -1.7079722E+00
   3.8930963E-04   9.4168474E+04   -1.7074127E+00
   3.9110750E-04   9.3430691E+04   -1.7068536E+00
   3.9291368E-04   9.2698926E+04   -1.7062949E+00
   3.9472820E-04   9.1973130E+04   -1.7057367E+00
   3.9655109E-04   9.1253250E+04   -1.7051789E+00
   3.9838241E-04   9.0539238E+04   -1.7046216E+00
   4.0022218E-04   8.9831043E+04   -1.7040648E+00
   4.0207045E-04   8.9128617E+04   -1.7035084E+00
   4.0392725E-04   8.8431909E+04   -1.7029525E+00
   4.0579263E-04   8.7740873E+04   -1.7023971E+00
   4.0766662E-04   8.7055459E+04   -1.7018422E+00
   4.0954927E-04   8.6375620E+04   -1.7012877E+00
   4.1144061E-04   8.5701309E+04   -1.7007338E+00
   4.1334068E-04   8.5032478E+04   -1.7001803E+00
   4.1524953E-04   8.4369083E+04   -1.6996274E+00
   4.1716720E-04   8.3711076E+04   -1.6990750E+00
   4.1909372E-04   8.3058413E+04   -1.6985231E+00
   4.2102914E-04   8.2411048E+04   -1.6979717E+00
   4.2297350E-04   8.1768935E+04   -1.6974209E+00
   4.2492683E-04   8.1132032E+04   -1.6968705E+00
   4.2688919E-04   8.0500294E+04   -1.6963208E+00
   4.2886061E-04   7.9873677E+04   -1.6957715E+00
   4.3084113E-04   7.9252138E+04   -1.6952228E+00
   4.3283080E-04   7.8635634E+04   -1.6946747E+00
   4.3482966E-04   7.8024123E+04   -1.6941271E+00
   4.3683775E-04   7.7417563E+04   -1.6935801E+00
   4.3885511E-04   7.6815911E+04   -1.6930337E+00
   4.4088179E-04   7.6219127E+04   -1.6924878E+00
   4.4291783E-04   7.5627170E+04   -1.6919425E+00
   4.4496327E-04   7.5039998E+04   -1.6913978E+00
   4.4701816E-04   7.4457572E+04   -1.6908536E+00
   4.4908253E-04   7.3879852E+04   -1.6903101E+00
   4.5115644E-04   7.3306798E+04   -1.6897672E+00
   4.5323993E-04   7.2738370E+04   -1.6892248E+00
   4.5533304E-04   7.2174531E+04   -1.6886831E+00
   4.5743582E-04   7.1615241E+04   -1.6881420E+00
   4.5954830E-04   7.1060462E+04   -1.6876015E+00
   4.6167054E-04   7.0510156E+04   -1.6870616E+00
   4.6380259E-04   6.9964285E+04   -1.6865223E+00
   4.6594448E-04   6.9422813E+04   -1.6859837E+00
   4.6809626E-04   6.8885703E+04   -1.6854457E+00
   4.7025797E-04   6.8352917E+04   -1.6849083E+00
   4.7242967E-04   6.7824420E+04   -1.6843716E+00
   4.7461140E-04   6.7300175E+04   -1.6838355E+00
   4.7680321E-04   6.6780148E+04   -1.6833001E+00
   4.7900514E-04   6.6264302E+04   -1.6827654E+00
   4.8121723E-04   6.5752602E+04   -1.6822313E+00
   4.8343954E-04   6.5245015E+04   -1.6816978E+00
   4.8567212E-04   6.4741505E+04   -1.6811651E+00
   4.8791500E-04   6.4242038E+04   -1.6806330E+00
   4.9016825E-04   6.3746581E+04   -1.6801016E+00
   4.9243189E-04   6.3255099E+04   -1.6795709E+00
   4.9470600E-04   6.2767561E+04   -1.6790408E+00
   4.9699060E-04   6.2283932E+04   -1.6785115E+00
   4.9928575E-04   6.1804180E+04   -1.6779828E+00
   5.0159151E-04   6.1328272E+04   -1.6774549E+00
   5.0390791E-04   6.0856177E+04   -1.6769276E+00
   5.0623501E-04   6.0387863E+04   -1.6764011E+00
   5.0857286E-04   5.9923298E+04   -1.6758753E+00
   5.1092150E-04   5.9462451E+04   -1.6753502E+00
   5.1328099E-04   5.9005291E+04   -1.6748258E+00
   5.1565137E-04   5.8551787E+04   -1.6743021E+00
   5.1803270E-04   5.8101908E+04   -1.6737792E+00
   5.2042503E-04   5.7655625E+04   -1.6732570E+00
   5.2282841E-04   5.7212908E+04   -1.6727355E+00
   5.2524289E-04   5.6773726E+04   -1.6722148E+00
   5.2766851E-04   5.6338051E+04   -1.6716948E+00
   5.3010534E-04   5.5905852E+04   -1.6711756E+00
   5.3255342E-04   5.5477102E+04   -1.6706571E+00
   5.3501281E-04   5.5051772E+04   -1.6701394E+00
   5.3748356E-04   5.4629832E+04   -1.6696225E+00
   5.3996571E-04   5.4211256E+04   -1.6691063E+00
   5.4245933E-04   5.3796014E+04   -1.6685909E+00
   5.4496446E-04   5.3384080E+04   -1.6680762E+00
   5.4748117E-04   5.2975426E+04   -1.6675623E+00
   5.5000949E-04   5.2570025E+04   -1.6670492E+00
   5.5254949E-04   5.2167849E+04   -1.6665369E+00
   5.5510123E-04   5.1768871E+04   -1.6660254E+00
   5.5766474E-04   5.1373067E+04   -1.6655146E+00
   5.6024010E-04   5.0980408E+04   -1.6650047E+00
   5.6282734E-04   5.0590869E+04   -1.6644955E+00
   5.6542654E-04   5.0204424E+04   -1.6639872E+00
   5.6803774E-04   4.9821048E+04   -1.6634797E+00
   5.7066099E-04   4.9440715E+04   -1.6629729E+00
   5.7329637E-04   4.9063400E+04   -1.6624670E+00
   5.7594391E-04   4.8689078E+04   -1.6619619E+00
   5.7860368E-04   4.8317724E+04   -1.6614576E+00
   5.8127573E-04   4.7949314E+04   -1.6609541E+00
   5.8396012E-04   4.7583823E+04   -1.6604515E+00
   5.8665691E-04   4.7221227E+04   -1.6599496E+00
   5.8936616E-04   4.6861502E+04   -1.6594487E+00
   5.9208791E-04   4.6504625E+04   -1.6589485E+00
   5.9482223E-04   4.6150573E+04   -1.6584492E+00
   5.9756919E-04   4.5799320E+04   -1.6579507E+00
   6.0032882E-04   4.5450846E+04   -1.6574531E+00
   6.0310120E-04   4.5105126E+04   -1.6569563E+00
   6.0588639E-04   4.4762139E+04   -1.6564604E+00
   6.0868443E-04   4.4421861E+04   -1.6559653E+00
   6.1149540E-04   4.4084270E+04   -1.6554710E+00
   6.1431935E-04   4.3749344E+04   -1.6549777E+00
   6.1715634E-04   4.3417062E+04   -1.6544852E+00
   6.2000644E-04   4.3087401E+04   -1.6539935E+00
   6.2286969E-04   4.2760340E+04   -1.6535028E+00
