#        a       HoverH0(a)       dlogHdloga_of_a(a)
   1.0000000E-04   1.1370938E+06   -1.8537004E+00
   1.0046181E-04   1.1274246E+06   -1.8532231E+00
   1.0092575E-04   1.1178401E+06   -1.8527449E+00
   1.0139184E-04   1.1083395E+06   -1.8522658E+00
   1.0186008E-04   1.0989221E+06   -1.8517857E+00
   1.0233048E-04   1.0895872E+06   -1.8513048E+00
   1.0280305E-04   1.0803339E+06   -1.8508230E+00
   1.0327781E-04   1.0711616E+06   -1.8503403E+00
   1.0375475E-04   1.0620695E+06   -1.8498566E+00
   1.0423390E-04   1.0530569E+06   -1.8493721E+00
   1.0471527E-04   1.0441232E+06   -1.8488867E+00
   1.0519885E-04   1.0352676E+06   -1.8484005E+00
   1.0568467E-04   1.0264893E+06   -1.8479133E+00
   1.0617274E-04   1.0177878E+06   -1.8474253E+00
   1.0666305E-04   1.0091624E+06   -1.8469363E+00
   1.0715563E-04   1.0006122E+06   -1.8464465E+00
   1.0765049E-04   9.9213682E+05   -1.8459559E+00
   1.0814763E-04   9.8373540E+05   -1.8454643E+00
   1.0864707E-04   9.7540734E+05   -1.8449719E+00
   1.0914881E-04   9.6715197E+05   -1.8444787E+00
   1.0965287E-04   9.5896866E+05   -1.8439845E+00
   1.1015926E-04   9.5085675E+05   -1.8434896E+00
   1.1066799E-04   9.4281562E+05   -1.8429937E+00
   1.1117906E-04   9.3484462E+05   -1.8424970E+00
   1.1169250E-04   9.2694313E+05   -1.8419995E+00
   1.1220831E-04   9.1911054E+05   -1.8415011E+00
   1.1272650E-04   9.1134623E+05   -1.8410019E+00
   1.1324708E-04   9.0364959E+05   -1.8405019E+00
   1.1377007E-04   8.9602002E+05   -1.8400010E+00
   1.1429547E-04   8.8845692E+05   -1.8394992E+00
   1.1482330E-04   8.8095969E+05   -1.8389967E+00
   1.1535356E-04   8.7352775E+05   -1.8384933E+00
   1.1588628E-04   8.6616052E+05   -1.8379891E+00
   1.1642145E-04   8.5885742E+05   -1.8374841E+00
   1.1695910E-04   8.5161788E+05   -1.8369783E+00
   1.1749923E-04   8.4444134E+05   -1.8364716E+00
   1.1804185E-04   8.3732723E+05   -1.8359642E+00
   1.1858698E-04   8.3027499E+05   -1.8354559E+00
   1.1913463E-04   8.2328408E+05   -1.8349469E+00
   1.1968481E-04   8.1635394E+05   -1.8344370E+00
   1.2023752E-04   8.0948405E+05   -1.8339264E+00
   1.2079279E-04   8.0267386E+05   -1.8334149E+00
   1.2135063E-04   7.9592284E+05   -1.8329027E+00
   1.2191104E-04   7.8923047E+05   -1.8323897E+00
   1.2247403E-04   7.8259622E+05   -1.8318759E+00
   1.2303963E-04   7.7601958E+05   -1.8313613E+00
   1.2360784E-04   7.6950002E+05   -1.8308460E+00
   1.2417868E-04   7.6303706E+05   -1.8303299E+00
   1.2475215E-04   7.5663017E+05   -1.8298130E+00
   1.2532826E-04   7.5027887E+05   -1.8292954E+00
   1.2590704E-04   7.4398266E+05   -1.8287770E+00
   1.2648850E-04   7.3774105E+05   -1.8282579E+00
   1.2707263E-04   7.3155355E+05   -1.8277380E+00
   1.2765947E-04   7.2541969E+05   -1.8272173E+00
   1.2824901E-04   7.1933899E+05   -1.8266959E+00
   1.2884128E-04   7.1331097E+05   -1.8261738E+00
   1.2943628E-04   7.0733517E+05   -1.8256510E+00
   1.3003403E-04   7.0141112E+05   -1.8251274E+00
   1.3063454E-04   6.9553837E+05   -1.8246031E+00
   1.3123783E-04   6.8971645E+05   -1.8240781E+00
   1.3184390E-04   6.8394492E+05   -1.8235523E+00
   1.3245277E-04   6.7822333E+05   -1.8230259E+00
   1.3306445E-04   6.7255124E+05   -1.8224987E+00
   1.3367895E-04   6.6692821E+05   -1.8219708E+00
   1.3429630E-04   6.6135379E+05   -1.8214422E+00
   1.3491649E-04   6.5582757E+05   -1.8209130E+00
   1.3553955E-04   6.5034911E+05   -1.8203830E+00
   1.3616548E-04   6.4491800E+05   -1.8198524E+00
   1.3679431E-04   6.3953380E+05   -1.8193210E+00
   1.3742604E-04   6.3419611E+05   -1.8187890E+00
   1.3806069E-04   6.2890451E+05   -1.8182563E+00
   1.3869827E-04   6.2365859E+05   -1.8177230E+00
   1.3933879E-04   6.1845796E+05   -1.8171889E+00
   1.3998227E-04   6.1330220E+05   -1.8166543E+00
   1.4062872E-04   6.0819092E+05   -1.8161189E+00
   1.4127816E-04   6.0312372E+05   -1.8155829E+00
   1.4193060E-04   5.9810022E+05   -1.8150463E+00
   1.4258605E-04   5.9312003E+05   -1.8145090E+00
   1.4324453E-04   5.8818277E+05   -1.8139711E+00
   1.4390605E-04   5.8328805E+05   -1.8134325E+00
   1.4457062E-04   5.7843550E+05   -1.8128933E+00
   1.4523826E-04   5.7362475E+05   -1.8123535E+00
   1.4590899E-04   5.6885542E+05   -1.8118130E+00
   1.4658281E-04   5.6412715E+05   -1.8112720E+00
   1.4725974E-04   5.5943958E+05   -1.8107303E+00
   1.4793981E-04   5.5479234E+05   -1.8101880E+00
   1.4862301E-04   5.5018509E+05   -1.8096452E+00
   1.4930936E-04   5.4561746E+05   -1.8091017E+00
   1.4999889E-04   5.4108910E+05   -1.8085576E+00
   1.5069160E-04   5.3659968E+05   -1.8080130E+00
   1.5138751E-04   5.3214884E+05   -1.8074677E+00
   1.5208663E-04   5.2773624E+05   -1.8069219E+00
   1.5278899E-04   5.2336155E+05   -1.8063755E+00
   1.5349458E-04   5.1902443E+05   -1.8058286E+00
   1.5420343E-04   5.1472456E+05   -1.8052810E+00
   1.5491556E-04   5.1046159E+05   -1.8047330E+00
   1.5563098E-04   5.0623521E+05   -1.8041843E+00
   1.5634970E-04   5.0204509E+05   -1.8036352E+00
   1.5707174E-04   4.9789091E+05   -1.8030854E+00
   1.5779711E-04   4.9377236E+05   -1.8025352E+00
   1.5852584E-04   4.8968912E+05   -1.8019844E+00
   1.5925792E-04   4.8564087E+05   -1.8014331E+00
   1.5999339E-04   4.8162732E+05   -1.8008812E+00
   1.6073226E-04   4.7764815E+05   -1.8003288E+00
   1.6147454E-04   4.7370307E+05   -1.7997760E+00
   1.6222024E-04   4.6979176E+05   -1.7992226E+00
   1.6296939E-04   4.6591394E+05   -1.7986687E+00
   1.6372200E-04   4.6206931E+05   -1.7981143E+00
   1.6447809E-04   4.5825757E+05   -1.7975594E+00
   1.6523767E-04   4.5447845E+05   -1.7970041E+00
   1.6600075E-04   4.5073164E+05   -1.7964482E+00
   1.6676736E-04   4.4701686E+05   -1.7958919E+00
   1.6753751E-04   4.4333384E+05   -1.7953351E+00
   1.6831122E-04   4.3968229E+05   -1.7947779E+00
   1.6908849E-04   4.3606193E+05   -1.7942201E+00
   1.6986936E-04   4.3247250E+05   -1.7936620E+00
   1.7065384E-04   4.2891372E+05   -1.7931034E+00
   1.7144193E-04   4.2538532E+05   -1.7925443E+00
   1.7223367E-04   4.2188703E+05   -1.7919848E+00
   1.7302906E-04   4.1841859E+05   -1.7914248E+00
   1.7382813E-04   4.1497974E+05   -1.7908645E+00
   1.7463089E-04   4.1157021E+05   -1.7903037E+00
   1.7543735E-04   4.0818975E+05   -1.7897425E+00
   1.7624754E-04   4.0483810E+05   -1.7891809E+00
   1.7706147E-04   4.0151502E+05   -1.7886189E+00
   1.7787916E-04   3.9822024E+05   -1.7880564E+00
   1.7870062E-04   3.9495352E+05   -1.7874936E+00
   1.7952588E-04   3.9171462E+05   -1.7869304E+00
   1.8035495E-04   3.8850328E+05   -1.7863668E+00
   1.8118785E-04   3.8531928E+05   -1.7858028E+00
   1.8202459E-04   3.8216236E+05   -1.7852385E+00
   1.8286520E-04   3.7903229E+05   -1.7846738E+00
   1.8370969E-04   3.7592884E+05   -1.7841087E+00
   1.8455808E-04   3.7285177E+05   -1.7835433E+00
   1.8541039E-04   3.6980085E+05   -1.7829775E+00
   1.8626663E-04   3.6677585E+05   -1.7824114E+00
   1.8712683E-04   3.6377654E+05   -1.7818449E+00
   1.8799100E-04   3.6080270E+05   -1.7812782E+00
   1.8885917E-04   3.5785411E+05   -1.7807110E+00
   1.8973134E-04   3.5493055E+05   -1.7801436E+00
   1.9060754E-04   3.5203178E+05   -1.7795758E+00
   1.9148778E-04   3.4915761E+05   -1.7790078E+00
   1.9237209E-04   3.4630781E+05   -1.7784394E+00
   1.9326049E-04   3.4348217E+05   -1.7778707E+00
   1.9415299E-04   3.4068047E+05   -1.7773018E+00
   1.9504960E-04   3.3790252E+05   -1.7767325E+00
   1.9595036E-04   3.3514810E+05   -1.7761630E+00
   1.9685528E-04   3.3241700E+05   -1.7755932E+00
   1.9776438E-04   3.2970903E+05   -1.7750231E+00
   1.9867768E-04   3.2702397E+05   -1.7744528E+00
   1.9959519E-04   3.2436163E+05   -1.7738822E+00
   2.0051694E-04   3.2172181E+05   -1.7733114E+00
   2.0144295E-04   3.1910432E+05   -1.7727403E+00
   2.0237324E-04   3.1650895E+05   -1.7721690E+00
   2.0330782E-04   3.1393552E+05   -1.7715974E+00
   2.0424671E-04   3.1138383E+05   -1.7710256E+00
   2.0518995E-04   3.0885370E+05   -1.7704536E+00
   2.0613754E-04   3.0634494E+05   -1.7698814E+00
   2.0708950E-04   3.0385735E+05   -1.7693089E+00
   2.0804586E-04   3.0139076E+05   -1.7687363E+00
   2.0900664E-04   2.9894498E+05   -1.7681635E+00
   2.0997185E-04   2.9651983E+05   -1.7675904E+00
   2.1094152E-04   2.9411513E+05   -1.7670172E+00
   2.1191567E-04   2.9173070E+05   -1.7664438E+00
   2.1289432E-04   2.8936637E+05   -1.7658702E+00
   2.1387749E-04   2.8702196E+05   -1.7652965E+00
   2.1486520E-04   2.8469729E+05   -1.7647226E+00
   2.1585747E-04   2.8239220E+05   -1.7641485E+00
   2.1685432E-04   2.8010652E+05   -1.7635743E+00
   2.1785578E-04   2.7784006E+05   -1.7630000E+00
   2.1886186E-04   2.7559268E+05   -1.7624255E+00
   2.1987259E-04   2.7336420E+05   -1.7618509E+00
   2.2088798E-04   2.7115446E+05   -1.7612761E+00
   2.2190807E-04   2.6896329E+05   -1.7607013E+00
   2.2293286E-04   2.6679054E+05   -1.7601263E+00
   2.2396239E-04   2.6463604E+05   -1.7595512E+00
   2.2499667E-04   2.6249963E+05   -1.7589760E+00
   2.2603573E-04   2.6038117E+05   -1.7584007E+00
   2.2707958E-04   2.5828048E+05   -1.7578253E+00
   2.2812826E-04   2.5619742E+05   -1.7572499E+00
   2.2918178E-04   2.5413183E+05   -1.7566743E+00
   2.3024017E-04   2.5208357E+05   -1.7560987E+00
   2.3130344E-04   2.5005247E+05   -1.7555231E+00
   2.3237162E-04   2.4803840E+05   -1.7549473E+00
   2.3344474E-04   2.4604121E+05   -1.7543715E+00
   2.3452281E-04   2.4406074E+05   -1.7537957E+00
   2.3560586E-04   2.4209686E+05   -1.7532198E+00
   2.3669392E-04   2.4014942E+05   -1.7526439E+00
   2.3778699E-04   2.3821828E+05   -1.7520680E+00
   2.3888512E-04   2.3630329E+05   -1.7514921E+00
   2.3998831E-04   2.3440432E+05   -1.7509161E+00
   2.4109661E-04   2.3252122E+05   -1.7503401E+00
   2.4221001E-04   2.3065387E+05   -1.7497641E+00
   2.4332857E-04   2.2880212E+05   -1.7491881E+00
   2.4445228E-04   2.2696584E+05   -1.7486122E+00
   2.4558119E-04   2.2514489E+05   -1.7480362E+00
   2.4671531E-04   2.2333914E+05   -1.7474602E+00
   2.4785467E-04   2.2154847E+05   -1.7468843E+00
   2.4899928E-04   2.1977274E+05   -1.7463085E+00
   2.5014919E-04   2.1801181E+05   -1.7457326E+00
   2.5130440E-04   2.1626557E+05   -1.7451568E+00
   2.5246495E-04   2.1453389E+05   -1.7445811E+00
   2.5363086E-04   2.1281664E+05   -1.7440054E+00
   2.5480216E-04   2.1111369E+05   -1.7434297E+00
   2.5597886E-04   2.0942493E+05   -1.7428542E+00
   2.5716100E-04   2.0775022E+05   -1.7422787E+00
   2.5834859E-04   2.0608945E+05   -1.7417033E+00
   2.5954168E-04   2.0444251E+05   -1.7411280E+00
   2.6074027E-04   2.0280926E+05   -1.7405528E+00
   2.6194439E-04   2.0118959E+05   -1.7399777E+00
   2.6315408E-04   1.9958338E+05   -1.7394026E+00
   2.6436935E-04   1.9799053E+05   -1.7388277E+00
   2.6559024E-04   1.9641090E+05   -1.7382530E+00
   2.6681676E-04   1.9484440E+05   -1.7376783E+00
   2.6804895E-04   1.9329090E+05   -1.7371038E+00
   2.6928683E-04   1.9175029E+05   -1.7365294E+00
   2.7053042E-04   1.9022247E+05   -1.7359551E+00
   2.7177976E-04   1.8870732E+05   -1.7353810E+00
   2.7303487E-04   1.8720473E+05   -1.7348071E+00
   2.7429577E-04   1.8571460E+05   -1.7342333E+00
   2.7556250E-04   1.8423681E+05   -1.7336597E+00
   2.7683507E-04   1.8277127E+05   -1.7330862E+00
   2.7811353E-04   1.8131786E+05   -1.7325129E+00
   2.7939788E-04   1.7987649E+05   -1.7319398E+00
   2.8068817E-04   1.7844705E+05   -1.7313669E+00
   2.8198442E-04   1.7702943E+05   -1.7307942E+00
   2.8328665E-04   1.7562354E+05   -1.7302217E+00
   2.8459490E-04   1.7422927E+05   -1.7296495E+00
   2.8590919E-04   1.7284653E+05   -1.7290774E+00
   2.8722955E-04   1.7147522E+05   -1.7285055E+00
   2.8855600E-04   1.7011523E+05   -1.7279339E+00
   2.8988859E-04   1.6876647E+05   -1.7273625E+00
   2.9122732E-04   1.6742885E+05   -1.7267913E+00
   2.9257224E-04   1.6610226E+05   -1.7262204E+00
   2.9392337E-04   1.6478662E+05   -1.7256498E+00
   2.9528074E-04   1.6348183E+05   -1.7250793E+00
   2.9664438E-04   1.6218780E+05   -1.7245092E+00
   2.9801431E-04   1.6090443E+05   -1.7239393E+00
   2.9939057E-04   1.5963164E+05   -1.7233697E+00
   3.0077319E-04   1.5836933E+05   -1.7228004E+00
   3.0216219E-04   1.5711741E+05   -1.7222313E+00
   3.0355761E-04   1.5587580E+05   -1.7216626E+00
   3.0495947E-04   1.5464441E+05   -1.7210941E+00
   3.0636780E-04   1.5342315E+05   -1.7205259E+00
   3.0778264E-04   1.5221193E+05   -1.7199581E+00
   3.0920401E-04   1.5101066E+05   -1.7193906E+00
   3.1063195E-04   1.4981927E+05   -1.7188234E+00
   3.1206648E-04   1.4863767E+05   -1.7182565E+00
   3.1350764E-04   1.4746577E+05   -1.7176899E+00
   3.1495545E-04   1.4630349E+05   -1.7171237E+00
   3.1640994E-04   1.4515075E+05   -1.7165578E+00
   3.1787116E-04   1.4400747E+05   -1.7159923E+00
   3.1933912E-04   1.4287356E+05   -1.7154271E+00
   3.2081386E-04   1.4174896E+05   -1.7148623E+00
   3.2229541E-04   1.4063357E+05   -1.7142978E+00
   3.2378381E-04   1.3952732E+05   -1.7137337E+00
   3.2527908E-04   1.3843013E+05   -1.7131700E+00
   3.2678125E-04   1.3734193E+05   -1.7126067E+00
   3.2829036E-04   1.3626263E+05   -1.7120438E+00
   3.2980644E-04   1.3519217E+05   -1.7114812E+00
   3.3132952E-04   1.3413047E+05   -1.7109191E+00
   3.3285963E-04   1.3307744E+05   -1.7103573E+00
   3.3439681E-04   1.3203303E+05   -1.7097960E+00
   3.3594109E-04   1.3099715E+05   -1.7092351E+00
   3.3749250E-04   1.2996973E+05   -1.7086746E+00
   3.3905108E-04   1.2895071E+05   -1.7081145E+00
   3.4061685E-04   1.2794000E+05   -1.7075549E+00
   3.4218986E-04   1.2693754E+05   -1.7069957E+00
   3.4377013E-04   1.2594326E+05   -1.7064369E+00
   3.4535769E-04   1.2495710E+05   -1.7058786E+00
   3.4695259E-04   1.2397897E+05   -1.7053208E+00
   3.4855485E-04   1.2300881E+05   -1.7047634E+00
   3.5016452E-04   1.2204656E+05   -1.7042065E+00
   3.5178161E-04   1.2109215E+05   -1.7036500E+00
   3.5340618E-04   1.2014551E+05   -1.7030940E+00
   3.5503824E-04   1.1920657E+05   -1.7025385E+00
   3.5667785E-04   1.1827528E+05   -1.7019835E+00
   3.5832502E-04   1.1735156E+05   -1.7014289E+00
   3.5997981E-04   1.1643535E+05   -1.7008749E+00
   3.6164223E-04   1.1552659E+05   -1.7003214E+00
   3.6331233E-04   1.1462522E+05   -1.6997683E+00
   3.6499015E-04   1.1373117E+05   -1.6992158E+00
   3.6667571E-04   1.1284437E+05   -1.6986638E+00
   3.6836906E-04   1.1196478E+05   -1.6981123E+00
   3.7007022E-04   1.1109233E+05   -1.6975614E+00
   3.7177925E-04   1.1022695E+05   -1.6970109E+00
   3.7349616E-04   1.0936859E+05   -1.6964610E+00
   3.7522101E-04   1.0851719E+05   -1.6959117E+00
   3.7695382E-04   1.0767269E+05   -1.6953629E+00
   3.7869463E-04   1.0683504E+05   -1.6948146E+00
   3.8044348E-04   1.0600417E+05   -1.6942670E+00
   3.8220041E-04   1.0518002E+05   -1.6937198E+00
   3.8396545E-04   1.0436255E+05   -1.6931733E+00
   3.8573864E-04   1.0355168E+05   -1.6926273E+00
   3.8752002E-04   1.0274738E+05   -1.6920819E+00
   3.8930963E-04   1.0194958E+05   -1.6915370E+00
   3.9110750E-04   1.0115823E+05   -1.6909928E+00
   3.9291368E-04   1.0037328E+05   -1.6904491E+00
   3.9472820E-04   9.9594660E+04   -1.6899061E+00
   3.9655109E-04   9.8822331E+04   -1.6893636E+00
   3.9838241E-04   9.8056236E+04   -1.6888217E+00
   4.0022218E-04   9.7296323E+04   -1.6882805E+00
   4.0207045E-04   9.6542539E+04   -1.6877399E+00
   4.0392725E-04   9.5794834E+04   -1.6871998E+00
   4.0579263E-04   9.5053156E+04   -1.6866605E+00
   4.0766662E-04   9.4317455E+04   -1.6861217E+00
   4.0954927E-04   9.3587680E+04   -1.6855836E+00
   4.1144061E-04   9.2863782E+04   -1.6850461E+00
   4.1334068E-04   9.2145711E+04   -1.6845092E+00
   4.1524953E-04   9.1433419E+04   -1.6839730E+00
   4.1716720E-04   9.0726857E+04   -1.6834375E+00
   4.1909372E-04   9.0025976E+04   -1.6829026E+00
   4.2102914E-04   8.9330730E+04   -1.6823684E+00
   4.2297350E-04   8.8641072E+04   -1.6818348E+00
   4.2492683E-04   8.7956954E+04   -1.6813019E+00
   4.2688919E-04   8.7278330E+04   -1.6807697E+00
   4.2886061E-04   8.6605154E+04   -1.6802381E+00
   4.3084113E-04   8.5937381E+04   -1.6797073E+00
   4.3283080E-04   8.5274965E+04   -1.6791771E+00
   4.3482966E-04   8.4617861E+04   -1.6786476E+00
   4.3683775E-04   8.3966026E+04   -1.6781188E+00
   4.3885511E-04   8.3319415E+04   -1.6775907E+00
   4.4088179E-04   8.2677984E+04   -1.6770633E+00
   4.4291783E-04   8.2041691E+04   -1.6765366E+00
   4.4496327E-04   8.1410491E+04   -1.6760107E+00
   4.4701816E-04   8.0784344E+04   -1.6754854E+00
   4.4908253E-04   8.0163207E+04   -1.6749609E+00
   4.5115644E-04   7.9547037E+04   -1.6744371E+00
   4.5323993E-04   7.8935794E+04   -1.6739140E+00
   4.5533304E-04   7.8329436E+04   -1.6733916E+00
   4.5743582E-04   7.7727924E+04   -1.6728700E+00
   4.5954830E-04   7.7131215E+04   -1.6723492E+00
   4.6167054E-04   7.6539271E+04   -1.6718290E+00
   4.6380259E-04   7.5952052E+04   -1.6713097E+00
   4.6594448E-04   7.5369518E+04   -1.6707910E+00
   4.6809626E-04   7.4791631E+04   -1.6702732E+00
   4.7025797E-04   7.4218352E+04   -1.6697560E+00
   4.7242967E-04   7.3649642E+04   -1.6692397E+00
   4.7461140E-04   7.3085463E+04   -1.6687241E+00
   4.7680321E-04   7.2525779E+04   -1.6682093E+00
   4.7900514E-04   7.1970551E+04   -1.6676953E+00
   4.8121723E-04   7.1419743E+04   -1.6671820E+00
   4.8343954E-04   7.0873318E+04   -1.6666695E+00
   4.8567212E-04   7.0331239E+04   -1.6661578E+00
   4.8791500E-04   6.9793471E+04   -1.6656469E+00
   4.9016825E-04   6.9259978E+04   -1.6651368E+00
   4.9243189E-04   6.8730724E+04   -1.6646275E+00
   4.9470600E-04   6.8205675E+04   -1.6641190E+00
   4.9699060E-04   6.7684794E+04   -1.6636113E+00
   4.9928575E-04   6.7168049E+04   -1.6631044E+00
   5.0159151E-04   6.6655404E+04   -1.6625983E+00
   5.0390791E-04   6.6146827E+04   -1.6620930E+00
   5.0623501E-04   6.5642282E+04   -1.6615885E+00
   5.0857286E-04   6.5141737E+04   -1.6610849E+00
   5.1092150E-04   6.4645158E+04   -1.6605821E+00
   5.1328099E-04   6.4152514E+04   -1.6600801E+00
   5.1565137E-04   6.3663771E+04   -1.6595789E+00
   5.1803270E-04   6.3178898E+04   -1.6590786E+00
   5.2042503E-04   6.2697862E+04   -1.6585791E+00
   5.2282841E-04   6.2220631E+04   -1.6580805E+00
   5.2524289E-04   6.1747174E+04   -1.6575827E+00
   5.2766851E-04   6.1277461E+04   -1.6570857E+00
   5.3010534E-04   6.0811460E+04   -1.6565896E+00
   5.3255342E-04   6.0349140E+04   -1.6560943E+00
   5.3501281E-04   5.9890472E+04   -1.6555999E+00
   5.3748356E-04   5.9435425E+04   -1.6551064E+00
   5.3996571E-04   5.8983970E+04   -1.6546137E+00
   5.4245933E-04   5.8536076E+04   -1.6541219E+00
   5.4496446E-04   5.8091715E+04   -1.6536309E+00
   5.4748117E-04   5.7650858E+04   -1.6531408E+00
   5.5000949E-04   5.7213475E+04   -1.6526516E+00
   5.5254949E-04   5.6779539E+04   -1.6521633E+00
   5.5510123E-04   5.6349020E+04   -1.6516758E+00
   5.5766474E-04   5.5921892E+04   -1.6511893E+00
   5.6024010E-04   5.5498125E+04   -1.6507036E+00
   5.6282734E-04   5.5077692E+04   -1.6502188E+00
   5.6542654E-04   5.4660567E+04   -1.6497349E+00
   5.6803774E-04   5.4246721E+04   -1.6492518E+00
   5.7066099E-04   5.3836129E+04   -1.6487697E+00
   5.7329637E-04   5.3428762E+04   -1.6482885E+00
   5.7594391E-04   5.3024596E+04   -1.6478082E+00
   5.7860368E-04   5.2623604E+04   -1.6473287E+00
   5.8127573E-04   5.2225759E+04   -1.6468502E+00
   5.8396012E-04   5.1831036E+04   -1.6463726E+00
   5.8665691E-04   5.1439409E+04   -1.6458959E+00
   5.8936616E-04   5.1050854E+04   -1.6454201E+00
   5.9208791E-04   5.0665345E+04   -1.6449453E+00
   5.9482223E-04   5.0282856E+04   -1.6444713E+00
   5.9756919E-04   4.9903364E+04   -1.6439983E+00
   6.0032882E-04   4.9526844E+04   -1.6435262E+00
   6.0310120E-04   4.9153272E+04   -1.6430550E+00
   6.0588639E-04   4.8782623E+04   -1.6425847E+00
   6.0868443E-04   4.8414874E+04   -1.6421154E+00
   6.1149540E-04   4.8050001E+04   -1.6416470E+00
   6.1431935E-04   4.7687980E+04   -1.6411795E+00
   6.1715634E-04   4.7328789E+04   -1.6407130E+00
   6.2000644E-04   4.6972405E+04   -1.6402474E+00
   6.2286969E-04   4.6618804E+04   -1.6397827E+00
