#        a       HoverH0(a)       dlogHdloga_of_a(a)
   1.0000000E-04   1.2018150E+06   -1.8727124E+00
   1.0046181E-04   1.1914909E+06   -1.8722747E+00
   1.0092575E-04   1.1812580E+06   -1.8718361E+00
   1.0139184E-04   1.1711153E+06   -1.8713964E+00
   1.0186008E-04   1.1610621E+06   -1.8709558E+00
   1.0233048E-04   1.1510975E+06   -1.8705142E+00
   1.0280305E-04   1.1412207E+06   -1.8700716E+00
   1.0327781E-04   1.1314310E+06   -1.8696280E+00
   1.0375475E-04   1.1217275E+06   -1.8691834E+00
   1.0423390E-04   1.1121096E+06   -1.8687379E+00
   1.0471527E-04   1.1025764E+06   -1.8682913E+00
   1.0519885E-04   1.0931272E+06   -1.8678439E+00
   1.0568467E-04   1.0837612E+06   -1.8673954E+00
   1.0617274E-04   1.0744776E+06   -1.8669460E+00
   1.0666305E-04   1.0652758E+06   -1.8664955E+00
   1.0715563E-04   1.0561550E+06   -1.8660442E+00
   1.0765049E-04   1.0471144E+06   -1.8655918E+00
   1.0814763E-04   1.0381535E+06   -1.8651385E+00
   1.0864707E-04   1.0292713E+06   -1.8646843E+00
   1.0914881E-04   1.0204673E+06   -1.8642290E+00
   1.0965287E-04   1.0117407E+06   -1.8637728E+00
   1.1015926E-04   1.0030908E+06   -1.8633157E+00
   1.1066799E-04   9.9451705E+05   -1.8628576E+00
   1.1117906E-04   9.8601861E+05   -1.8623985E+00
   1.1169250E-04   9.7759486E+05   -1.8619385E+00
   1.1220831E-04   9.6924514E+05   -1.8614776E+00
   1.1272650E-04   9.6096877E+05   -1.8610156E+00
   1.1324708E-04   9.5276511E+05   -1.8605528E+00
   1.1377007E-04   9.4463350E+05   -1.8600890E+00
   1.1429547E-04   9.3657329E+05   -1.8596243E+00
   1.1482330E-04   9.2858385E+05   -1.8591586E+00
   1.1535356E-04   9.2066454E+05   -1.8586920E+00
   1.1588628E-04   9.1281473E+05   -1.8582244E+00
   1.1642145E-04   9.0503380E+05   -1.8577559E+00
   1.1695910E-04   8.9732114E+05   -1.8572865E+00
   1.1749923E-04   8.8967613E+05   -1.8568161E+00
   1.1804185E-04   8.8209817E+05   -1.8563449E+00
   1.1858698E-04   8.7458665E+05   -1.8558727E+00
   1.1913463E-04   8.6714099E+05   -1.8553995E+00
   1.1968481E-04   8.5976059E+05   -1.8549255E+00
   1.2023752E-04   8.5244487E+05   -1.8544505E+00
   1.2079279E-04   8.4519325E+05   -1.8539747E+00
   1.2135063E-04   8.3800516E+05   -1.8534979E+00
   1.2191104E-04   8.3088003E+05   -1.8530202E+00
   1.2247403E-04   8.2381730E+05   -1.8525416E+00
   1.2303963E-04   8.1681640E+05   -1.8520621E+00
   1.2360784E-04   8.0987679E+05   -1.8515816E+00
   1.2417868E-04   8.0299792E+05   -1.8511003E+00
   1.2475215E-04   7.9617924E+05   -1.8506181E+00
   1.2532826E-04   7.8942022E+05   -1.8501350E+00
   1.2590704E-04   7.8272032E+05   -1.8496510E+00
   1.2648850E-04   7.7607901E+05   -1.8491661E+00
   1.2707263E-04   7.6949578E+05   -1.8486803E+00
   1.2765947E-04   7.6297010E+05   -1.8481937E+00
   1.2824901E-04   7.5650146E+05   -1.8477061E+00
   1.2884128E-04   7.5008935E+05   -1.8472177E+00
   1.2943628E-04   7.4373326E+05   -1.8467284E+00
   1.3003403E-04   7.3743270E+05   -1.8462382E+00
   1.3063454E-04   7.3118717E+05   -1.8457472E+00
   1.3123783E-04   7.2499617E+05   -1.8452553E+00
   1.3184390E-04   7.1885922E+05   -1.8447625E+00
   1.3245277E-04   7.1277584E+05   -1.8442689E+00
   1.3306445E-04   7.0674555E+05   -1.8437744E+00
   1.3367895E-04   7.0076787E+05   -1.8432790E+00
   1.3429630E-04   6.9484234E+05   -1.8427828E+00
   1.3491649E-04   6.8896850E+05   -1.8422858E+00
   1.3553955E-04   6.8314587E+05   -1.8417879E+00
   1.3616548E-04   6.7737401E+05   -1.8412891E+00
   1.3679431E-04   6.7165246E+05   -1.8407895E+00
   1.3742604E-04   6.6598077E+05   -1.8402891E+00
   1.3806069E-04   6.6035850E+05   -1.8397879E+00
   1.3869827E-04   6.5478520E+05   -1.8392858E+00
   1.3933879E-04   6.4926045E+05   -1.8387829E+00
   1.3998227E-04   6.4378380E+05   -1.8382791E+00
   1.4062872E-04   6.3835484E+05   -1.8377746E+00
   1.4127816E-04   6.3297312E+05   -1.8372692E+00
   1.4193060E-04   6.2763825E+05   -1.8367630E+00
   1.4258605E-04   6.2234978E+05   -1.8362560E+00
   1.4324453E-04   6.1710732E+05   -1.8357482E+00
   1.4390605E-04   6.1191046E+05   -1.8352396E+00
   1.4457062E-04   6.0675878E+05   -1.8347302E+00
   1.4523826E-04   6.0165189E+05   -1.8342200E+00
   1.4590899E-04   5.9658939E+05   -1.8337090E+00
   1.4658281E-04   5.9157087E+05   -1.8331973E+00
   1.4725974E-04   5.8659596E+05   -1.8326847E+00
   1.4793981E-04   5.8166426E+05   -1.8321713E+00
   1.4862301E-04   5.7677538E+05   -1.8316572E+00
   1.4930936E-04   5.7192895E+05   -1.8311423E+00
   1.4999889E-04   5.6712460E+05   -1.8306266E+00
   1.5069160E-04   5.6236193E+05   -1.8301102E+00
   1.5138751E-04   5.5764059E+05   -1.8295930E+00
   1.5208663E-04   5.5296021E+05   -1.8290750E+00
   1.5278899E-04   5.4832042E+05   -1.8285563E+00
   1.5349458E-04   5.4372086E+05   -1.8280368E+00
   1.5420343E-04   5.3916118E+05   -1.8275166E+00
   1.5491556E-04   5.3464102E+05   -1.8269956E+00
   1.5563098E-04   5.3016003E+05   -1.8264739E+00
   1.5634970E-04   5.2571785E+05   -1.8259515E+00
   1.5707174E-04   5.2131416E+05   -1.8254283E+00
   1.5779711E-04   5.1694860E+05   -1.8249044E+00
   1.5852584E-04   5.1262083E+05   -1.8243798E+00
   1.5925792E-04   5.0833053E+05   -1.8238545E+00
   1.5999339E-04   5.0407735E+05   -1.8233284E+00
   1.6073226E-04   4.9986097E+05   -1.8228016E+00
   1.6147454E-04   4.9568106E+05   -1.8222742E+00
   1.6222024E-04   4.9153731E+05   -1.8217460E+00
   1.6296939E-04   4.8742938E+05   -1.8212171E+00
   1.6372200E-04   4.8335696E+05   -1.8206875E+00
   1.6447809E-04   4.7931973E+05   -1.8201573E+00
   1.6523767E-04   4.7531739E+05   -1.8196263E+00
   1.6600075E-04   4.7134962E+05   -1.8190947E+00
   1.6676736E-04   4.6741612E+05   -1.8185624E+00
   1.6753751E-04   4.6351658E+05   -1.8180294E+00
   1.6831122E-04   4.5965071E+05   -1.8174957E+00
   1.6908849E-04   4.5581819E+05   -1.8169614E+00
   1.6986936E-04   4.5201875E+05   -1.8164264E+00
   1.7065384E-04   4.4825208E+05   -1.8158908E+00
   1.7144193E-04   4.4451790E+05   -1.8153545E+00
   1.7223367E-04   4.4081591E+05   -1.8148176E+00
   1.7302906E-04   4.3714584E+05   -1.8142800E+00
   1.7382813E-04   4.3350740E+05   -1.8137418E+00
   1.7463089E-04   4.2990031E+05   -1.8132030E+00
   1.7543735E-04   4.2632429E+05   -1.8126635E+00
   1.7624754E-04   4.2277907E+05   -1.8121234E+00
   1.7706147E-04   4.1926437E+05   -1.8115827E+00
   1.7787916E-04   4.1577993E+05   -1.8110414E+00
   1.7870062E-04   4.1232548E+05   -1.8104994E+00
   1.7952588E-04   4.0890075E+05   -1.8099569E+00
   1.8035495E-04   4.0550547E+05   -1.8094137E+00
   1.8118785E-04   4.0213940E+05   -1.8088700E+00
   1.8202459E-04   3.9880227E+05   -1.8083257E+00
   1.8286520E-04   3.9549382E+05   -1.8077807E+00
   1.8370969E-04   3.9221381E+05   -1.8072352E+00
   1.8455808E-04   3.8896198E+05   -1.8066892E+00
   1.8541039E-04   3.8573808E+05   -1.8061425E+00
   1.8626663E-04   3.8254186E+05   -1.8055953E+00
   1.8712683E-04   3.7937309E+05   -1.8050476E+00
   1.8799100E-04   3.7623151E+05   -1.8044992E+00
   1.8885917E-04   3.7311689E+05   -1.8039503E+00
   1.8973134E-04   3.7002899E+05   -1.8034009E+00
   1.9060754E-04   3.6696758E+05   -1.8028510E+00
   1.9148778E-04   3.6393242E+05   -1.8023005E+00
   1.9237209E-04   3.6092327E+05   -1.8017494E+00
   1.9326049E-04   3.5793992E+05   -1.8011979E+00
   1.9415299E-04   3.5498213E+05   -1.8006458E+00
   1.9504960E-04   3.5204968E+05   -1.8000932E+00
   1.9595036E-04   3.4914234E+05   -1.7995401E+00
   1.9685528E-04   3.4625990E+05   -1.7989865E+00
   1.9776438E-04   3.4340212E+05   -1.7984324E+00
   1.9867768E-04   3.4056881E+05   -1.7978778E+00
   1.9959519E-04   3.3775973E+05   -1.7973227E+00
   2.0051694E-04   3.3497468E+05   -1.7967671E+00
   2.0144295E-04   3.3221344E+05   -1.7962110E+00
   2.0237324E-04   3.2947582E+05   -1.7956545E+00
   2.0330782E-04   3.2676158E+05   -1.7950975E+00
   2.0424671E-04   3.2407055E+05   -1.7945400E+00
   2.0518995E-04   3.2140249E+05   -1.7939821E+00
   2.0613754E-04   3.1875723E+05   -1.7934237E+00
   2.0708950E-04   3.1613455E+05   -1.7928649E+00
   2.0804586E-04   3.1353425E+05   -1.7923056E+00
   2.0900664E-04   3.1095615E+05   -1.7917459E+00
   2.0997185E-04   3.0840004E+05   -1.7911858E+00
   2.1094152E-04   3.0586573E+05   -1.7906252E+00
   2.1191567E-04   3.0335304E+05   -1.7900642E+00
   2.1289432E-04   3.0086176E+05   -1.7895028E+00
   2.1387749E-04   2.9839171E+05   -1.7889410E+00
   2.1486520E-04   2.9594271E+05   -1.7883788E+00
   2.1585747E-04   2.9351457E+05   -1.7878162E+00
   2.1685432E-04   2.9110710E+05   -1.7872532E+00
   2.1785578E-04   2.8872013E+05   -1.7866898E+00
   2.1886186E-04   2.8635348E+05   -1.7861260E+00
   2.1987259E-04   2.8400697E+05   -1.7855619E+00
   2.2088798E-04   2.8168041E+05   -1.7849974E+00
   2.2190807E-04   2.7937364E+05   -1.7844325E+00
   2.2293286E-04   2.7708649E+05   -1.7838673E+00
   2.2396239E-04   2.7481877E+05   -1.7833017E+00
   2.2499667E-04   2.7257033E+05   -1.7827357E+00
   2.2603573E-04   2.7034098E+05   -1.7821695E+00
   2.2707958E-04   2.6813057E+05   -1.7816028E+00
   2.2812826E-04   2.6593892E+05   -1.7810359E+00
   2.2918178E-04   2.6376588E+05   -1.7804686E+00
   2.3024017E-04   2.6161128E+05   -1.7799010E+00
   2.3130344E-04   2.5947496E+05   -1.7793331E+00
   2.3237162E-04   2.5735676E+05   -1.7787649E+00
   2.3344474E-04   2.5525651E+05   -1.7781964E+00
   2.3452281E-04   2.5317408E+05   -1.7776276E+00
   2.3560586E-04   2.5110928E+05   -1.7770585E+00
   2.3669392E-04   2.4906198E+05   -1.7764891E+00
   2.3778699E-04   2.4703203E+05   -1.7759195E+00
   2.3888512E-04   2.4501925E+05   -1.7753495E+00
   2.3998831E-04   2.4302352E+05   -1.7747793E+00
   2.4109661E-04   2.4104468E+05   -1.7742089E+00
   2.4221001E-04   2.3908257E+05   -1.7736381E+00
   2.4332857E-04   2.3713707E+05   -1.7730672E+00
   2.4445228E-04   2.3520801E+05   -1.7724960E+00
   2.4558119E-04   2.3329526E+05   -1.7719245E+00
   2.4671531E-04   2.3139867E+05   -1.7713528E+00
   2.4785467E-04   2.2951811E+05   -1.7707809E+00
   2.4899928E-04   2.2765343E+05   -1.7702088E+00
   2.5014919E-04   2.2580449E+05   -1.7696365E+00
   2.5130440E-04   2.2397117E+05   -1.7690639E+00
   2.5246495E-04   2.2215331E+05   -1.7684912E+00
   2.5363086E-04   2.2035079E+05   -1.7679182E+00
   2.5480216E-04   2.1856347E+05   -1.7673451E+00
   2.5597886E-04   2.1679122E+05   -1.7667718E+00
   2.5716100E-04   2.1503391E+05   -1.7661983E+00
   2.5834859E-04   2.1329141E+05   -1.7656246E+00
   2.5954168E-04   2.1156359E+05   -1.7650508E+00
   2.6074027E-04   2.0985032E+05   -1.7644768E+00
   2.6194439E-04   2.0815147E+05   -1.7639027E+00
   2.6315408E-04   2.0646692E+05   -1.7633284E+00
   2.6436935E-04   2.0479655E+05   -1.7627539E+00
   2.6559024E-04   2.0314023E+05   -1.7621794E+00
   2.6681676E-04   2.0149784E+05   -1.7616047E+00
   2.6804895E-04   1.9986926E+05   -1.7610299E+00
   2.6928683E-04   1.9825436E+05   -1.7604549E+00
   2.7053042E-04   1.9665304E+05   -1.7598799E+00
   2.7177976E-04   1.9506516E+05   -1.7593047E+00
   2.7303487E-04   1.9349062E+05   -1.7587295E+00
   2.7429577E-04   1.9192930E+05   -1.7581541E+00
   2.7556250E-04   1.9038108E+05   -1.7575787E+00
   2.7683507E-04   1.8884585E+05   -1.7570032E+00
   2.7811353E-04   1.8732350E+05   -1.7564276E+00
   2.7939788E-04   1.8581391E+05   -1.7558519E+00
   2.8068817E-04   1.8431698E+05   -1.7552762E+00
   2.8198442E-04   1.8283259E+05   -1.7547004E+00
   2.8328665E-04   1.8136063E+05   -1.7541246E+00
   2.8459490E-04   1.7990101E+05   -1.7535487E+00
   2.8590919E-04   1.7845360E+05   -1.7529728E+00
   2.8722955E-04   1.7701831E+05   -1.7523969E+00
   2.8855600E-04   1.7559503E+05   -1.7518209E+00
   2.8988859E-04   1.7418366E+05   -1.7512449E+00
   2.9122732E-04   1.7278409E+05   -1.7506689E+00
   2.9257224E-04   1.7139622E+05   -1.7500929E+00
   2.9392337E-04   1.7001994E+05   -1.7495169E+00
   2.9528074E-04   1.6865517E+05   -1.7489409E+00
   2.9664438E-04   1.6730180E+05   -1.7483649E+00
   2.9801431E-04   1.6595972E+05   -1.7477889E+00
   2.9939057E-04   1.6462885E+05   -1.7472130E+00
   3.0077319E-04   1.6330909E+05   -1.7466370E+00
   3.0216219E-04   1.6200033E+05   -1.7460611E+00
   3.0355761E-04   1.6070249E+05   -1.7454853E+00
   3.0495947E-04   1.5941548E+05   -1.7449095E+00
   3.0636780E-04   1.5813918E+05   -1.7443337E+00
   3.0778264E-04   1.5687352E+05   -1.7437580E+00
   3.0920401E-04   1.5561841E+05   -1.7431824E+00
   3.1063195E-04   1.5437374E+05   -1.7426069E+00
   3.1206648E-04   1.5313944E+05   -1.7420314E+00
   3.1350764E-04   1.5191541E+05   -1.7414560E+00
   3.1495545E-04   1.5070156E+05   -1.7408807E+00
   3.1640994E-04   1.4949780E+05   -1.7403055E+00
   3.1787116E-04   1.4830406E+05   -1.7397304E+00
   3.1933912E-04   1.4712024E+05   -1.7391554E+00
   3.2081386E-04   1.4594625E+05   -1.7385805E+00
   3.2229541E-04   1.4478201E+05   -1.7380058E+00
   3.2378381E-04   1.4362745E+05   -1.7374311E+00
   3.2527908E-04   1.4248246E+05   -1.7368566E+00
   3.2678125E-04   1.4134698E+05   -1.7362823E+00
   3.2829036E-04   1.4022092E+05   -1.7357081E+00
   3.2980644E-04   1.3910420E+05   -1.7351340E+00
   3.3132952E-04   1.3799673E+05   -1.7345601E+00
   3.3285963E-04   1.3689845E+05   -1.7339863E+00
   3.3439681E-04   1.3580926E+05   -1.7334128E+00
   3.3594109E-04   1.3472910E+05   -1.7328393E+00
   3.3749250E-04   1.3365788E+05   -1.7322661E+00
   3.3905108E-04   1.3259553E+05   -1.7316931E+00
   3.4061685E-04   1.3154196E+05   -1.7311202E+00
   3.4218986E-04   1.3049712E+05   -1.7305476E+00
   3.4377013E-04   1.2946091E+05   -1.7299752E+00
   3.4535769E-04   1.2843328E+05   -1.7294029E+00
   3.4695259E-04   1.2741413E+05   -1.7288309E+00
   3.4855485E-04   1.2640341E+05   -1.7282591E+00
   3.5016452E-04   1.2540103E+05   -1.7276876E+00
   3.5178161E-04   1.2440693E+05   -1.7271162E+00
   3.5340618E-04   1.2342103E+05   -1.7265451E+00
   3.5503824E-04   1.2244327E+05   -1.7259743E+00
   3.5667785E-04   1.2147358E+05   -1.7254037E+00
   3.5832502E-04   1.2051188E+05   -1.7248334E+00
   3.5997981E-04   1.1955811E+05   -1.7242633E+00
   3.6164223E-04   1.1861220E+05   -1.7236935E+00
   3.6331233E-04   1.1767408E+05   -1.7231240E+00
   3.6499015E-04   1.1674369E+05   -1.7225547E+00
   3.6667571E-04   1.1582096E+05   -1.7219858E+00
   3.6836906E-04   1.1490582E+05   -1.7214171E+00
   3.7007022E-04   1.1399821E+05   -1.7208488E+00
   3.7177925E-04   1.1309807E+05   -1.7202807E+00
   3.7349616E-04   1.1220533E+05   -1.7197130E+00
   3.7522101E-04   1.1131992E+05   -1.7191455E+00
   3.7695382E-04   1.1044179E+05   -1.7185784E+00
   3.7869463E-04   1.0957088E+05   -1.7180116E+00
   3.8044348E-04   1.0870712E+05   -1.7174452E+00
   3.8220041E-04   1.0785044E+05   -1.7168791E+00
   3.8396545E-04   1.0700080E+05   -1.7163133E+00
   3.8573864E-04   1.0615813E+05   -1.7157479E+00
   3.8752002E-04   1.0532236E+05   -1.7151828E+00
   3.8930963E-04   1.0449345E+05   -1.7146181E+00
   3.9110750E-04   1.0367134E+05   -1.7140538E+00
   3.9291368E-04   1.0285595E+05   -1.7134899E+00
   3.9472820E-04   1.0204725E+05   -1.7129263E+00
   3.9655109E-04   1.0124517E+05   -1.7123631E+00
   3.9838241E-04   1.0044965E+05   -1.7118003E+00
   4.0022218E-04   9.9660640E+04   -1.7112379E+00
   4.0207045E-04   9.8878085E+04   -1.7106759E+00
   4.0392725E-04   9.8101929E+04   -1.7101143E+00
   4.0579263E-04   9.7332117E+04   -1.7095531E+00
   4.0766662E-04   9.6568595E+04   -1.7089923E+00
   4.0954927E-04   9.5811311E+04   -1.7084319E+00
   4.1144061E-04   9.5060210E+04   -1.7078720E+00
   4.1334068E-04   9.4315240E+04   -1.7073125E+00
   4.1524953E-04   9.3576350E+04   -1.7067535E+00
   4.1716720E-04   9.2843488E+04   -1.7061949E+00
   4.1909372E-04   9.2116602E+04   -1.7056367E+00
   4.2102914E-04   9.1395641E+04   -1.7050790E+00
   4.2297350E-04   9.0680557E+04   -1.7045218E+00
   4.2492683E-04   8.9971298E+04   -1.7039650E+00
   4.2688919E-04   8.9267816E+04   -1.7034087E+00
   4.2886061E-04   8.8570061E+04   -1.7028529E+00
   4.3084113E-04   8.7877985E+04   -1.7022975E+00
   4.3283080E-04   8.7191540E+04   -1.7017427E+00
   4.3482966E-04   8.6510678E+04   -1.7011883E+00
   4.3683775E-04   8.5835352E+04   -1.7006345E+00
   4.3885511E-04   8.5165514E+04   -1.7000811E+00
   4.4088179E-04   8.4501120E+04   -1.6995282E+00
   4.4291783E-04   8.3842122E+04   -1.6989759E+00
   4.4496327E-04   8.3188474E+04   -1.6984241E+00
   4.4701816E-04   8.2540133E+04   -1.6978728E+00
   4.4908253E-04   8.1897052E+04   -1.6973220E+00
   4.5115644E-04   8.1259188E+04   -1.6967718E+00
   4.5323993E-04   8.0626496E+04   -1.6962221E+00
   4.5533304E-04   7.9998933E+04   -1.6956729E+00
   4.5743582E-04   7.9376456E+04   -1.6951243E+00
   4.5954830E-04   7.8759021E+04   -1.6945763E+00
   4.6167054E-04   7.8146586E+04   -1.6940288E+00
   4.6380259E-04   7.7539108E+04   -1.6934818E+00
   4.6594448E-04   7.6936547E+04   -1.6929355E+00
   4.6809626E-04   7.6338861E+04   -1.6923897E+00
   4.7025797E-04   7.5746007E+04   -1.6918445E+00
   4.7242967E-04   7.5157947E+04   -1.6912998E+00
   4.7461140E-04   7.4574639E+04   -1.6907558E+00
   4.7680321E-04   7.3996044E+04   -1.6902124E+00
   4.7900514E-04   7.3422121E+04   -1.6896695E+00
   4.8121723E-04   7.2852832E+04   -1.6891273E+00
   4.8343954E-04   7.2288138E+04   -1.6885856E+00
   4.8567212E-04   7.1728000E+04   -1.6880446E+00
   4.8791500E-04   7.1172379E+04   -1.6875042E+00
   4.9016825E-04   7.0621238E+04   -1.6869644E+00
   4.9243189E-04   7.0074539E+04   -1.6864252E+00
   4.9470600E-04   6.9532245E+04   -1.6858867E+00
   4.9699060E-04   6.8994319E+04   -1.6853488E+00
   4.9928575E-04   6.8460723E+04   -1.6848115E+00
   5.0159151E-04   6.7931423E+04   -1.6842749E+00
   5.0390791E-04   6.7406381E+04   -1.6837389E+00
   5.0623501E-04   6.6885563E+04   -1.6832036E+00
   5.0857286E-04   6.6368932E+04   -1.6826690E+00
   5.1092150E-04   6.5856454E+04   -1.6821350E+00
   5.1328099E-04   6.5348094E+04   -1.6816016E+00
   5.1565137E-04   6.4843817E+04   -1.6810690E+00
   5.1803270E-04   6.4343589E+04   -1.6805370E+00
   5.2042503E-04   6.3847377E+04   -1.6800057E+00
   5.2282841E-04   6.3355147E+04   -1.6794751E+00
   5.2524289E-04   6.2866864E+04   -1.6789452E+00
   5.2766851E-04   6.2382498E+04   -1.6784159E+00
   5.3010534E-04   6.1902014E+04   -1.6778874E+00
   5.3255342E-04   6.1425380E+04   -1.6773595E+00
   5.3501281E-04   6.0952564E+04   -1.6768324E+00
   5.3748356E-04   6.0483535E+04   -1.6763060E+00
   5.3996571E-04   6.0018260E+04   -1.6757803E+00
   5.4245933E-04   5.9556709E+04   -1.6752553E+00
   5.4496446E-04   5.9098850E+04   -1.6747310E+00
   5.4748117E-04   5.8644652E+04   -1.6742074E+00
   5.5000949E-04   5.8194086E+04   -1.6736846E+00
   5.5254949E-04   5.7747120E+04   -1.6731625E+00
   5.5510123E-04   5.7303725E+04   -1.6726412E+00
   5.5766474E-04   5.6863871E+04   -1.6721206E+00
   5.6024010E-04   5.6427528E+04   -1.6716007E+00
   5.6282734E-04   5.5994667E+04   -1.6710816E+00
   5.6542654E-04   5.5565260E+04   -1.6705632E+00
   5.6803774E-04   5.5139278E+04   -1.6700456E+00
   5.7066099E-04   5.4716691E+04   -1.6695288E+00
   5.7329637E-04   5.4297473E+04   -1.6690127E+00
   5.7594391E-04   5.3881594E+04   -1.6684974E+00
   5.7860368E-04   5.3469028E+04   -1.6679829E+00
   5.8127573E-04   5.3059746E+04   -1.6674691E+00
   5.8396012E-04   5.2653722E+04   -1.6669561E+00
   5.8665691E-04   5.2250928E+04   -1.6664440E+00
   5.8936616E-04   5.1851338E+04   -1.6659325E+00
   5.9208791E-04   5.1454924E+04   -1.6654219E+00
   5.9482223E-04   5.1061662E+04   -1.6649121E+00
   5.9756919E-04   5.0671524E+04   -1.6644031E+00
   6.0032882E-04   5.0284484E+04   -1.6638948E+00
   6.0310120E-04   4.9900518E+04   -1.6633874E+00
   6.0588639E-04   4.9519599E+04   -1.6628808E+00
   6.0868443E-04   4.9141703E+04   -1.6623750E+00
   6.1149540E-04   4.8766804E+04   -1.6618700E+00
   6.1431935E-04   4.8394877E+04   -1.6613659E+00
   6.1715634E-04   4.8025899E+04   -1.6608625E+00
   6.2000644E-04   4.7659845E+04   -1.6603600E+00
   6.2286969E-04   4.7296689E+04   -1.6598583E+00
