#        a       HoverH0(a)       dlogHdloga_of_a(a)
   1.0000000E-04   1.0813860E+06   -1.8716363E+00
   1.0046181E-04   1.0721018E+06   -1.8711962E+00
   1.0092575E-04   1.0628995E+06   -1.8707551E+00
   1.0139184E-04   1.0537784E+06   -1.8703130E+00
   1.0186008E-04   1.0447376E+06   -1.8698700E+00
   1.0233048E-04   1.0357765E+06   -1.8694259E+00
   1.0280305E-04   1.0268944E+06   -1.8689809E+00
   1.0327781E-04   1.0180905E+06   -1.8685349E+00
   1.0375475E-04   1.0093642E+06   -1.8680880E+00
   1.0423390E-04   1.0007148E+06   -1.8676400E+00
   1.0471527E-04   9.9214149E+05   -1.8671911E+00
   1.0519885E-04   9.8364369E+05   -1.8667413E+00
   1.0568467E-04   9.7522070E+05   -1.8662904E+00
   1.0617274E-04   9.6687185E+05   -1.8658386E+00
   1.0666305E-04   9.5859647E+05   -1.8653858E+00
   1.0715563E-04   9.5039390E+05   -1.8649321E+00
   1.0765049E-04   9.4226349E+05   -1.8644774E+00
   1.0814763E-04   9.3420460E+05   -1.8640217E+00
   1.0864707E-04   9.2621658E+05   -1.8635651E+00
   1.0914881E-04   9.1829879E+05   -1.8631075E+00
   1.0965287E-04   9.1045061E+05   -1.8626489E+00
   1.1015926E-04   9.0267142E+05   -1.8621895E+00
   1.1066799E-04   8.9496059E+05   -1.8617290E+00
   1.1117906E-04   8.8731751E+05   -1.8612676E+00
   1.1169250E-04   8.7974157E+05   -1.8608053E+00
   1.1220831E-04   8.7223218E+05   -1.8603420E+00
   1.1272650E-04   8.6478874E+05   -1.8598778E+00
   1.1324708E-04   8.5741065E+05   -1.8594126E+00
   1.1377007E-04   8.5009733E+05   -1.8589465E+00
   1.1429547E-04   8.4284821E+05   -1.8584795E+00
   1.1482330E-04   8.3566270E+05   -1.8580115E+00
   1.1535356E-04   8.2854024E+05   -1.8575426E+00
   1.1588628E-04   8.2148026E+05   -1.8570727E+00
   1.1642145E-04   8.1448221E+05   -1.8566020E+00
   1.1695910E-04   8.0754552E+05   -1.8561303E+00
   1.1749923E-04   8.0066965E+05   -1.8556576E+00
   1.1804185E-04   7.9385406E+05   -1.8551841E+00
   1.1858698E-04   7.8709820E+05   -1.8547096E+00
   1.1913463E-04   7.8040154E+05   -1.8542343E+00
   1.1968481E-04   7.7376355E+05   -1.8537580E+00
   1.2023752E-04   7.6718372E+05   -1.8532808E+00
   1.2079279E-04   7.6066151E+05   -1.8528027E+00
   1.2135063E-04   7.5419641E+05   -1.8523236E+00
   1.2191104E-04   7.4778791E+05   -1.8518437E+00
   1.2247403E-04   7.4143551E+05   -1.8513629E+00
   1.2303963E-04   7.3513870E+05   -1.8508812E+00
   1.2360784E-04   7.2889699E+05   -1.8503985E+00
   1.2417868E-04   7.2270988E+05   -1.8499150E+00
   1.2475215E-04   7.1657688E+05   -1.8494306E+00
   1.2532826E-04   7.1049752E+05   -1.8489453E+00
   1.2590704E-04   7.0447131E+05   -1.8484592E+00
   1.2648850E-04   6.9849778E+05   -1.8479721E+00
   1.2707263E-04   6.9257646E+05   -1.8474841E+00
   1.2765947E-04   6.8670688E+05   -1.8469953E+00
   1.2824901E-04   6.8088858E+05   -1.8465056E+00
   1.2884128E-04   6.7512110E+05   -1.8460151E+00
   1.2943628E-04   6.6940399E+05   -1.8455236E+00
   1.3003403E-04   6.6373680E+05   -1.8450313E+00
   1.3063454E-04   6.5811908E+05   -1.8445381E+00
   1.3123783E-04   6.5255039E+05   -1.8440441E+00
   1.3184390E-04   6.4703029E+05   -1.8435492E+00
   1.3245277E-04   6.4155836E+05   -1.8430535E+00
   1.3306445E-04   6.3613415E+05   -1.8425569E+00
   1.3367895E-04   6.3075725E+05   -1.8420595E+00
   1.3429630E-04   6.2542724E+05   -1.8415612E+00
   1.3491649E-04   6.2014368E+05   -1.8410621E+00
   1.3553955E-04   6.1490618E+05   -1.8405621E+00
   1.3616548E-04   6.0971432E+05   -1.8400613E+00
   1.3679431E-04   6.0456769E+05   -1.8395597E+00
   1.3742604E-04   5.9946589E+05   -1.8390572E+00
   1.3806069E-04   5.9440852E+05   -1.8385539E+00
   1.3869827E-04   5.8939518E+05   -1.8380498E+00
   1.3933879E-04   5.8442549E+05   -1.8375449E+00
   1.3998227E-04   5.7949905E+05   -1.8370392E+00
   1.4062872E-04   5.7461547E+05   -1.8365326E+00
   1.4127816E-04   5.6977438E+05   -1.8360252E+00
   1.4193060E-04   5.6497540E+05   -1.8355171E+00
   1.4258605E-04   5.6021816E+05   -1.8350081E+00
   1.4324453E-04   5.5550227E+05   -1.8344983E+00
   1.4390605E-04   5.5082737E+05   -1.8339878E+00
   1.4457062E-04   5.4619311E+05   -1.8334764E+00
   1.4523826E-04   5.4159911E+05   -1.8329643E+00
   1.4590899E-04   5.3704502E+05   -1.8324514E+00
   1.4658281E-04   5.3253048E+05   -1.8319377E+00
   1.4725974E-04   5.2805514E+05   -1.8314232E+00
   1.4793981E-04   5.2361866E+05   -1.8309079E+00
   1.4862301E-04   5.1922068E+05   -1.8303919E+00
   1.4930936E-04   5.1486087E+05   -1.8298751E+00
   1.4999889E-04   5.1053888E+05   -1.8293576E+00
   1.5069160E-04   5.0625438E+05   -1.8288393E+00
   1.5138751E-04   5.0200704E+05   -1.8283202E+00
   1.5208663E-04   4.9779652E+05   -1.8278004E+00
   1.5278899E-04   4.9362250E+05   -1.8272798E+00
   1.5349458E-04   4.8948465E+05   -1.8267585E+00
   1.5420343E-04   4.8538266E+05   -1.8262365E+00
   1.5491556E-04   4.8131620E+05   -1.8257137E+00
   1.5563098E-04   4.7728496E+05   -1.8251902E+00
   1.5634970E-04   4.7328863E+05   -1.8246660E+00
   1.5707174E-04   4.6932689E+05   -1.8241411E+00
   1.5779711E-04   4.6539944E+05   -1.8236154E+00
   1.5852584E-04   4.6150597E+05   -1.8230890E+00
   1.5925792E-04   4.5764619E+05   -1.8225619E+00
   1.5999339E-04   4.5381979E+05   -1.8220341E+00
   1.6073226E-04   4.5002648E+05   -1.8215056E+00
   1.6147454E-04   4.4626596E+05   -1.8209764E+00
   1.6222024E-04   4.4253795E+05   -1.8204465E+00
   1.6296939E-04   4.3884215E+05   -1.8199160E+00
   1.6372200E-04   4.3517828E+05   -1.8193847E+00
   1.6447809E-04   4.3154606E+05   -1.8188528E+00
   1.6523767E-04   4.2794521E+05   -1.8183201E+00
   1.6600075E-04   4.2437544E+05   -1.8177868E+00
   1.6676736E-04   4.2083648E+05   -1.8172529E+00
   1.6753751E-04   4.1732807E+05   -1.8167183E+00
   1.6831122E-04   4.1384992E+05   -1.8161830E+00
   1.6908849E-04   4.1040177E+05   -1.8156471E+00
   1.6986936E-04   4.0698336E+05   -1.8151105E+00
   1.7065384E-04   4.0359442E+05   -1.8145733E+00
   1.7144193E-04   4.0023469E+05   -1.8140354E+00
   1.7223367E-04   3.9690391E+05   -1.8134969E+00
   1.7302906E-04   3.9360183E+05   -1.8129578E+00
   1.7382813E-04   3.9032820E+05   -1.8124180E+00
   1.7463089E-04   3.8708275E+05   -1.8118776E+00
   1.7543735E-04   3.8386524E+05   -1.8113367E+00
   1.7624754E-04   3.8067543E+05   -1.8107950E+00
   1.7706147E-04   3.7751307E+05   -1.8102528E+00
   1.7787916E-04   3.7437791E+05   -1.8097100E+00
   1.7870062E-04   3.7126972E+05   -1.8091666E+00
   1.7952588E-04   3.6818825E+05   -1.8086226E+00
   1.8035495E-04   3.6513328E+05   -1.8080780E+00
   1.8118785E-04   3.6210456E+05   -1.8075328E+00
   1.8202459E-04   3.5910187E+05   -1.8069871E+00
   1.8286520E-04   3.5612497E+05   -1.8064407E+00
   1.8370969E-04   3.5317365E+05   -1.8058938E+00
   1.8455808E-04   3.5024766E+05   -1.8053464E+00
   1.8541039E-04   3.4734679E+05   -1.8047983E+00
   1.8626663E-04   3.4447082E+05   -1.8042498E+00
   1.8712683E-04   3.4161953E+05   -1.8037006E+00
   1.8799100E-04   3.3879269E+05   -1.8031510E+00
   1.8885917E-04   3.3599009E+05   -1.8026008E+00
   1.8973134E-04   3.3321153E+05   -1.8020500E+00
   1.9060754E-04   3.3045678E+05   -1.8014988E+00
   1.9148778E-04   3.2772564E+05   -1.8009470E+00
   1.9237209E-04   3.2501790E+05   -1.8003946E+00
   1.9326049E-04   3.2233335E+05   -1.7998418E+00
   1.9415299E-04   3.1967179E+05   -1.7992885E+00
   1.9504960E-04   3.1703301E+05   -1.7987346E+00
   1.9595036E-04   3.1441682E+05   -1.7981803E+00
   1.9685528E-04   3.1182302E+05   -1.7976255E+00
   1.9776438E-04   3.0925140E+05   -1.7970702E+00
   1.9867768E-04   3.0670178E+05   -1.7965144E+00
   1.9959519E-04   3.0417395E+05   -1.7959581E+00
   2.0051694E-04   3.0166774E+05   -1.7954013E+00
   2.0144295E-04   2.9918294E+05   -1.7948441E+00
   2.0237324E-04   2.9671937E+05   -1.7942864E+00
   2.0330782E-04   2.9427684E+05   -1.7937283E+00
   2.0424671E-04   2.9185517E+05   -1.7931697E+00
   2.0518995E-04   2.8945418E+05   -1.7926107E+00
   2.0613754E-04   2.8707367E+05   -1.7920512E+00
   2.0708950E-04   2.8471348E+05   -1.7914913E+00
   2.0804586E-04   2.8237342E+05   -1.7909310E+00
   2.0900664E-04   2.8005332E+05   -1.7903703E+00
   2.0997185E-04   2.7775300E+05   -1.7898091E+00
   2.1094152E-04   2.7547228E+05   -1.7892475E+00
   2.1191567E-04   2.7321100E+05   -1.7886855E+00
   2.1289432E-04   2.7096899E+05   -1.7881231E+00
   2.1387749E-04   2.6874606E+05   -1.7875603E+00
   2.1486520E-04   2.6654207E+05   -1.7869972E+00
   2.1585747E-04   2.6435684E+05   -1.7864336E+00
   2.1685432E-04   2.6219020E+05   -1.7858697E+00
   2.1785578E-04   2.6004200E+05   -1.7853054E+00
   2.1886186E-04   2.5791207E+05   -1.7847407E+00
   2.1987259E-04   2.5580025E+05   -1.7841756E+00
   2.2088798E-04   2.5370638E+05   -1.7836102E+00
   2.2190807E-04   2.5163031E+05   -1.7830445E+00
   2.2293286E-04   2.4957188E+05   -1.7824784E+00
   2.2396239E-04   2.4753093E+05   -1.7819120E+00
   2.2499667E-04   2.4550731E+05   -1.7813452E+00
   2.2603573E-04   2.4350088E+05   -1.7807781E+00
   2.2707958E-04   2.4151147E+05   -1.7802107E+00
   2.2812826E-04   2.3953894E+05   -1.7796429E+00
   2.2918178E-04   2.3758314E+05   -1.7790749E+00
   2.3024017E-04   2.3564393E+05   -1.7785066E+00
   2.3130344E-04   2.3372116E+05   -1.7779379E+00
   2.3237162E-04   2.3181469E+05   -1.7773690E+00
   2.3344474E-04   2.2992437E+05   -1.7767997E+00
   2.3452281E-04   2.2805007E+05   -1.7762302E+00
   2.3560586E-04   2.2619163E+05   -1.7756604E+00
   2.3669392E-04   2.2434893E+05   -1.7750904E+00
   2.3778699E-04   2.2252183E+05   -1.7745201E+00
   2.3888512E-04   2.2071019E+05   -1.7739495E+00
   2.3998831E-04   2.1891387E+05   -1.7733787E+00
   2.4109661E-04   2.1713274E+05   -1.7728076E+00
   2.4221001E-04   2.1536667E+05   -1.7722363E+00
   2.4332857E-04   2.1361553E+05   -1.7716647E+00
   2.4445228E-04   2.1187918E+05   -1.7710929E+00
   2.4558119E-04   2.1015751E+05   -1.7705209E+00
   2.4671531E-04   2.0845037E+05   -1.7699487E+00
   2.4785467E-04   2.0675764E+05   -1.7693763E+00
   2.4899928E-04   2.0507920E+05   -1.7688036E+00
   2.5014919E-04   2.0341493E+05   -1.7682308E+00
   2.5130440E-04   2.0176469E+05   -1.7676578E+00
   2.5246495E-04   2.0012837E+05   -1.7670846E+00
   2.5363086E-04   1.9850584E+05   -1.7665112E+00
   2.5480216E-04   1.9689699E+05   -1.7659376E+00
   2.5597886E-04   1.9530169E+05   -1.7653639E+00
   2.5716100E-04   1.9371983E+05   -1.7647900E+00
   2.5834859E-04   1.9215129E+05   -1.7642159E+00
   2.5954168E-04   1.9059596E+05   -1.7636417E+00
   2.6074027E-04   1.8905371E+05   -1.7630673E+00
   2.6194439E-04   1.8752445E+05   -1.7624928E+00
   2.6315408E-04   1.8600804E+05   -1.7619182E+00
   2.6436935E-04   1.8450439E+05   -1.7613435E+00
   2.6559024E-04   1.8301337E+05   -1.7607686E+00
   2.6681676E-04   1.8153489E+05   -1.7601936E+00
   2.6804895E-04   1.8006882E+05   -1.7596185E+00
   2.6928683E-04   1.7861507E+05   -1.7590433E+00
   2.7053042E-04   1.7717353E+05   -1.7584680E+00
   2.7177976E-04   1.7574408E+05   -1.7578926E+00
   2.7303487E-04   1.7432663E+05   -1.7573172E+00
   2.7429577E-04   1.7292107E+05   -1.7567416E+00
   2.7556250E-04   1.7152730E+05   -1.7561660E+00
   2.7683507E-04   1.7014522E+05   -1.7555903E+00
   2.7811353E-04   1.6877472E+05   -1.7550146E+00
   2.7939788E-04   1.6741570E+05   -1.7544388E+00
   2.8068817E-04   1.6606806E+05   -1.7538629E+00
   2.8198442E-04   1.6473171E+05   -1.7532870E+00
   2.8328665E-04   1.6340655E+05   -1.7527111E+00
   2.8459490E-04   1.6209248E+05   -1.7521352E+00
   2.8590919E-04   1.6078940E+05   -1.7515592E+00
   2.8722955E-04   1.5949722E+05   -1.7509832E+00
   2.8855600E-04   1.5821585E+05   -1.7504072E+00
   2.8988859E-04   1.5694518E+05   -1.7498312E+00
   2.9122732E-04   1.5568514E+05   -1.7492552E+00
   2.9257224E-04   1.5443562E+05   -1.7486792E+00
   2.9392337E-04   1.5319653E+05   -1.7481032E+00
   2.9528074E-04   1.5196779E+05   -1.7475272E+00
   2.9664438E-04   1.5074931E+05   -1.7469513E+00
   2.9801431E-04   1.4954099E+05   -1.7463754E+00
   2.9939057E-04   1.4834275E+05   -1.7457995E+00
   3.0077319E-04   1.4715451E+05   -1.7452237E+00
   3.0216219E-04   1.4597617E+05   -1.7446479E+00
   3.0355761E-04   1.4480764E+05   -1.7440722E+00
   3.0495947E-04   1.4364886E+05   -1.7434965E+00
   3.0636780E-04   1.4249972E+05   -1.7429209E+00
   3.0778264E-04   1.4136015E+05   -1.7423454E+00
   3.0920401E-04   1.4023007E+05   -1.7417700E+00
   3.1063195E-04   1.3910939E+05   -1.7411946E+00
   3.1206648E-04   1.3799803E+05   -1.7406194E+00
   3.1350764E-04   1.3689591E+05   -1.7400442E+00
   3.1495545E-04   1.3580296E+05   -1.7394691E+00
   3.1640994E-04   1.3471908E+05   -1.7388942E+00
   3.1787116E-04   1.3364422E+05   -1.7383194E+00
   3.1933912E-04   1.3257828E+05   -1.7377447E+00
   3.2081386E-04   1.3152118E+05   -1.7371701E+00
   3.2229541E-04   1.3047287E+05   -1.7365957E+00
   3.2378381E-04   1.2943325E+05   -1.7360214E+00
   3.2527908E-04   1.2840225E+05   -1.7354472E+00
   3.2678125E-04   1.2737981E+05   -1.7348732E+00
   3.2829036E-04   1.2636584E+05   -1.7342994E+00
   3.2980644E-04   1.2536027E+05   -1.7337257E+00
   3.3132952E-04   1.2436304E+05   -1.7331522E+00
   3.3285963E-04   1.2337406E+05   -1.7325789E+00
   3.3439681E-04   1.2239327E+05   -1.7320058E+00
   3.3594109E-04   1.2142060E+05   -1.7314328E+00
   3.3749250E-04   1.2045597E+05   -1.7308601E+00
   3.3905108E-04   1.1949933E+05   -1.7302875E+00
   3.4061685E-04   1.1855059E+05   -1.7297152E+00
   3.4218986E-04   1.1760970E+05   -1.7291430E+00
   3.4377013E-04   1.1667658E+05   -1.7285711E+00
   3.4535769E-04   1.1575117E+05   -1.7279995E+00
   3.4695259E-04   1.1483340E+05   -1.7274280E+00
   3.4855485E-04   1.1392321E+05   -1.7268568E+00
   3.5016452E-04   1.1302053E+05   -1.7262858E+00
   3.5178161E-04   1.1212530E+05   -1.7257151E+00
   3.5340618E-04   1.1123745E+05   -1.7251446E+00
   3.5503824E-04   1.1035693E+05   -1.7245744E+00
   3.5667785E-04   1.0948366E+05   -1.7240045E+00
   3.5832502E-04   1.0861758E+05   -1.7234348E+00
   3.5997981E-04   1.0775864E+05   -1.7228654E+00
   3.6164223E-04   1.0690677E+05   -1.7222963E+00
   3.6331233E-04   1.0606192E+05   -1.7217275E+00
   3.6499015E-04   1.0522401E+05   -1.7211589E+00
   3.6667571E-04   1.0439300E+05   -1.7205907E+00
   3.6836906E-04   1.0356883E+05   -1.7200228E+00
   3.7007022E-04   1.0275143E+05   -1.7194552E+00
   3.7177925E-04   1.0194074E+05   -1.7188879E+00
   3.7349616E-04   1.0113672E+05   -1.7183209E+00
   3.7522101E-04   1.0033930E+05   -1.7177543E+00
   3.7695382E-04   9.9548429E+04   -1.7171880E+00
   3.7869463E-04   9.8764048E+04   -1.7166221E+00
   3.8044348E-04   9.7986104E+04   -1.7160565E+00
   3.8220041E-04   9.7214540E+04   -1.7154912E+00
   3.8396545E-04   9.6449302E+04   -1.7149263E+00
   3.8573864E-04   9.5690338E+04   -1.7143618E+00
   3.8752002E-04   9.4937592E+04   -1.7137976E+00
   3.8930963E-04   9.4191013E+04   -1.7132338E+00
   3.9110750E-04   9.3450547E+04   -1.7126704E+00
   3.9291368E-04   9.2716143E+04   -1.7121074E+00
   3.9472820E-04   9.1987749E+04   -1.7115448E+00
   3.9655109E-04   9.1265314E+04   -1.7109826E+00
   3.9838241E-04   9.0548787E+04   -1.7104208E+00
   4.0022218E-04   8.9838118E+04   -1.7098593E+00
   4.0207045E-04   8.9133258E+04   -1.7092984E+00
   4.0392725E-04   8.8434156E+04   -1.7087378E+00
   4.0579263E-04   8.7740764E+04   -1.7081776E+00
   4.0766662E-04   8.7053033E+04   -1.7076179E+00
   4.0954927E-04   8.6370915E+04   -1.7070586E+00
   4.1144061E-04   8.5694363E+04   -1.7064998E+00
   4.1334068E-04   8.5023330E+04   -1.7059414E+00
   4.1524953E-04   8.4357767E+04   -1.7053834E+00
   4.1716720E-04   8.3697630E+04   -1.7048259E+00
   4.1909372E-04   8.3042872E+04   -1.7042689E+00
   4.2102914E-04   8.2393447E+04   -1.7037124E+00
   4.2297350E-04   8.1749311E+04   -1.7031563E+00
   4.2492683E-04   8.1110418E+04   -1.7026007E+00
   4.2688919E-04   8.0476724E+04   -1.7020456E+00
   4.2886061E-04   7.9848186E+04   -1.7014909E+00
   4.3084113E-04   7.9224758E+04   -1.7009368E+00
   4.3283080E-04   7.8606399E+04   -1.7003832E+00
   4.3482966E-04   7.7993065E+04   -1.6998300E+00
   4.3683775E-04   7.7384714E+04   -1.6992774E+00
   4.3885511E-04   7.6781303E+04   -1.6987253E+00
   4.4088179E-04   7.6182791E+04   -1.6981737E+00
   4.4291783E-04   7.5589137E+04   -1.6976227E+00
   4.4496327E-04   7.5000299E+04   -1.6970721E+00
   4.4701816E-04   7.4416236E+04   -1.6965221E+00
   4.4908253E-04   7.3836909E+04   -1.6959727E+00
   4.5115644E-04   7.3262277E+04   -1.6954238E+00
   4.5323993E-04   7.2692302E+04   -1.6948754E+00
   4.5533304E-04   7.2126942E+04   -1.6943276E+00
   4.5743582E-04   7.1566161E+04   -1.6937804E+00
   4.5954830E-04   7.1009918E+04   -1.6932337E+00
   4.6167054E-04   7.0458176E+04   -1.6926876E+00
   4.6380259E-04   6.9910897E+04   -1.6921421E+00
   4.6594448E-04   6.9368043E+04   -1.6915972E+00
   4.6809626E-04   6.8829577E+04   -1.6910528E+00
   4.7025797E-04   6.8295462E+04   -1.6905090E+00
   4.7242967E-04   6.7765661E+04   -1.6899659E+00
   4.7461140E-04   6.7240139E+04   -1.6894233E+00
   4.7680321E-04   6.6718858E+04   -1.6888813E+00
   4.7900514E-04   6.6201784E+04   -1.6883400E+00
   4.8121723E-04   6.5688881E+04   -1.6877992E+00
   4.8343954E-04   6.5180115E+04   -1.6872591E+00
   4.8567212E-04   6.4675449E+04   -1.6867196E+00
   4.8791500E-04   6.4174851E+04   -1.6861807E+00
   4.9016825E-04   6.3678285E+04   -1.6856425E+00
   4.9243189E-04   6.3185718E+04   -1.6851049E+00
   4.9470600E-04   6.2697116E+04   -1.6845679E+00
   4.9699060E-04   6.2212447E+04   -1.6840316E+00
   4.9928575E-04   6.1731676E+04   -1.6834959E+00
   5.0159151E-04   6.1254772E+04   -1.6829609E+00
   5.0390791E-04   6.0781702E+04   -1.6824265E+00
   5.0623501E-04   6.0312434E+04   -1.6818929E+00
   5.0857286E-04   5.9846936E+04   -1.6813598E+00
   5.1092150E-04   5.9385176E+04   -1.6808275E+00
   5.1328099E-04   5.8927124E+04   -1.6802958E+00
   5.1565137E-04   5.8472748E+04   -1.6797648E+00
   5.1803270E-04   5.8022018E+04   -1.6792345E+00
   5.2042503E-04   5.7574902E+04   -1.6787049E+00
   5.2282841E-04   5.7131371E+04   -1.6781760E+00
   5.2524289E-04   5.6691395E+04   -1.6776478E+00
   5.2766851E-04   5.6254944E+04   -1.6771202E+00
   5.3010534E-04   5.5821989E+04   -1.6765934E+00
   5.3255342E-04   5.5392501E+04   -1.6760673E+00
   5.3501281E-04   5.4966449E+04   -1.6755420E+00
   5.3748356E-04   5.4543807E+04   -1.6750173E+00
   5.3996571E-04   5.4124545E+04   -1.6744933E+00
   5.4245933E-04   5.3708636E+04   -1.6739701E+00
   5.4496446E-04   5.3296051E+04   -1.6734476E+00
   5.4748117E-04   5.2886763E+04   -1.6729259E+00
   5.5000949E-04   5.2480744E+04   -1.6724049E+00
   5.5254949E-04   5.2077967E+04   -1.6718846E+00
   5.5510123E-04   5.1678405E+04   -1.6713651E+00
   5.5766474E-04   5.1282031E+04   -1.6708463E+00
   5.6024010E-04   5.0888819E+04   -1.6703283E+00
   5.6282734E-04   5.0498742E+04   -1.6698111E+00
   5.6542654E-04   5.0111775E+04   -1.6692946E+00
   5.6803774E-04   4.9727891E+04   -1.6687789E+00
   5.7066099E-04   4.9347065E+04   -1.6682639E+00
   5.7329637E-04   4.8969271E+04   -1.6677497E+00
   5.7594391E-04   4.8594486E+04   -1.6672363E+00
   5.7860368E-04   4.8222682E+04   -1.6667237E+00
   5.8127573E-04   4.7853836E+04   -1.6662119E+00
   5.8396012E-04   4.7487924E+04   -1.6657008E+00
   5.8665691E-04   4.7124920E+04   -1.6651906E+00
   5.8936616E-04   4.6764801E+04   -1.6646811E+00
   5.9208791E-04   4.6407542E+04   -1.6641725E+00
   5.9482223E-04   4.6053121E+04   -1.6636646E+00
   5.9756919E-04   4.5701513E+04   -1.6631576E+00
   6.0032882E-04   4.5352696E+04   -1.6626513E+00
   6.0310120E-04   4.5006646E+04   -1.6621459E+00
   6.0588639E-04   4.4663340E+04   -1.6616413E+00
   6.0868443E-04   4.4322756E+04   -1.6611375E+00
   6.1149540E-04   4.3984871E+04   -1.6606345E+00
   6.1431935E-04   4.3649663E+04   -1.6601324E+00
   6.1715634E-04   4.3317110E+04   -1.6596311E+00
   6.2000644E-04   4.2987189E+04   -1.6591306E+00
   6.2286969E-04   4.2659880E+04   -1.6586309E+00
