#        a       HoverH0(a)       dlogHdloga_of_a(a)
   1.0000000E-04   1.1394037E+06   -1.8568368E+00
   1.0046181E-04   1.1296985E+06   -1.8563655E+00
   1.0092575E-04   1.1200784E+06   -1.8558934E+00
   1.0139184E-04   1.1105427E+06   -1.8554203E+00
   1.0186008E-04   1.1010906E+06   -1.8549463E+00
   1.0233048E-04   1.0917213E+06   -1.8544714E+00
   1.0280305E-04   1.0824340E+06   -1.8539956E+00
   1.0327781E-04   1.0732282E+06   -1.8535188E+00
   1.0375475E-04   1.0641030E+06   -1.8530412E+00
   1.0423390E-04   1.0550577E+06   -1.8525626E+00
   1.0471527E-04   1.0460916E+06   -1.8520831E+00
   1.0519885E-04   1.0372040E+06   -1.8516028E+00
   1.0568467E-04   1.0283941E+06   -1.8511215E+00
   1.0617274E-04   1.0196614E+06   -1.8506393E+00
   1.0666305E-04   1.0110051E+06   -1.8501563E+00
   1.0715563E-04   1.0024244E+06   -1.8496723E+00
   1.0765049E-04   9.9391888E+05   -1.8491875E+00
   1.0814763E-04   9.8548768E+05   -1.8487017E+00
   1.0864707E-04   9.7713020E+05   -1.8482151E+00
   1.0914881E-04   9.6884576E+05   -1.8477276E+00
   1.0965287E-04   9.6063372E+05   -1.8472392E+00
   1.1015926E-04   9.5249343E+05   -1.8467500E+00
   1.1066799E-04   9.4442426E+05   -1.8462598E+00
   1.1117906E-04   9.3642555E+05   -1.8457688E+00
   1.1169250E-04   9.2849670E+05   -1.8452770E+00
   1.1220831E-04   9.2063707E+05   -1.8447842E+00
   1.1272650E-04   9.1284604E+05   -1.8442907E+00
   1.1324708E-04   9.0512300E+05   -1.8437962E+00
   1.1377007E-04   8.9746736E+05   -1.8433009E+00
   1.1429547E-04   8.8987850E+05   -1.8428047E+00
   1.1482330E-04   8.8235583E+05   -1.8423077E+00
   1.1535356E-04   8.7489875E+05   -1.8418099E+00
   1.1588628E-04   8.6750669E+05   -1.8413112E+00
   1.1642145E-04   8.6017907E+05   -1.8408116E+00
   1.1695910E-04   8.5291530E+05   -1.8403113E+00
   1.1749923E-04   8.4571482E+05   -1.8398101E+00
   1.1804185E-04   8.3857707E+05   -1.8393080E+00
   1.1858698E-04   8.3150149E+05   -1.8388051E+00
   1.1913463E-04   8.2448751E+05   -1.8383015E+00
   1.1968481E-04   8.1753460E+05   -1.8377969E+00
   1.2023752E-04   8.1064222E+05   -1.8372916E+00
   1.2079279E-04   8.0380981E+05   -1.8367855E+00
   1.2135063E-04   7.9703685E+05   -1.8362785E+00
   1.2191104E-04   7.9032281E+05   -1.8357708E+00
   1.2247403E-04   7.8366716E+05   -1.8352622E+00
   1.2303963E-04   7.7706938E+05   -1.8347528E+00
   1.2360784E-04   7.7052896E+05   -1.8342427E+00
   1.2417868E-04   7.6404538E+05   -1.8337317E+00
   1.2475215E-04   7.5761815E+05   -1.8332200E+00
   1.2532826E-04   7.5124675E+05   -1.8327075E+00
   1.2590704E-04   7.4493070E+05   -1.8321942E+00
   1.2648850E-04   7.3866950E+05   -1.8316801E+00
   1.2707263E-04   7.3246265E+05   -1.8311652E+00
   1.2765947E-04   7.2630969E+05   -1.8306496E+00
   1.2824901E-04   7.2021013E+05   -1.8301332E+00
   1.2884128E-04   7.1416349E+05   -1.8296160E+00
   1.2943628E-04   7.0816931E+05   -1.8290981E+00
   1.3003403E-04   7.0222712E+05   -1.8285794E+00
   1.3063454E-04   6.9633645E+05   -1.8280600E+00
   1.3123783E-04   6.9049684E+05   -1.8275398E+00
   1.3184390E-04   6.8470786E+05   -1.8270189E+00
   1.3245277E-04   6.7896903E+05   -1.8264972E+00
   1.3306445E-04   6.7327993E+05   -1.8259748E+00
   1.3367895E-04   6.6764010E+05   -1.8254517E+00
   1.3429630E-04   6.6204911E+05   -1.8249278E+00
   1.3491649E-04   6.5650653E+05   -1.8244033E+00
   1.3553955E-04   6.5101192E+05   -1.8238779E+00
   1.3616548E-04   6.4556487E+05   -1.8233519E+00
   1.3679431E-04   6.4016495E+05   -1.8228252E+00
   1.3742604E-04   6.3481173E+05   -1.8222978E+00
   1.3806069E-04   6.2950481E+05   -1.8217696E+00
   1.3869827E-04   6.2424378E+05   -1.8212408E+00
   1.3933879E-04   6.1902822E+05   -1.8207112E+00
   1.3998227E-04   6.1385774E+05   -1.8201810E+00
   1.4062872E-04   6.0873193E+05   -1.8196501E+00
   1.4127816E-04   6.0365040E+05   -1.8191185E+00
   1.4193060E-04   5.9861276E+05   -1.8185862E+00
   1.4258605E-04   5.9361861E+05   -1.8180533E+00
   1.4324453E-04   5.8866758E+05   -1.8175197E+00
   1.4390605E-04   5.8375927E+05   -1.8169854E+00
   1.4457062E-04   5.7889332E+05   -1.8164505E+00
   1.4523826E-04   5.7406935E+05   -1.8159149E+00
   1.4590899E-04   5.6928697E+05   -1.8153786E+00
   1.4658281E-04   5.6454584E+05   -1.8148417E+00
   1.4725974E-04   5.5984558E+05   -1.8143042E+00
   1.4793981E-04   5.5518582E+05   -1.8137660E+00
   1.4862301E-04   5.5056621E+05   -1.8132272E+00
   1.4930936E-04   5.4598640E+05   -1.8126878E+00
   1.4999889E-04   5.4144604E+05   -1.8121477E+00
   1.5069160E-04   5.3694476E+05   -1.8116070E+00
   1.5138751E-04   5.3248224E+05   -1.8110658E+00
   1.5208663E-04   5.2805812E+05   -1.8105239E+00
   1.5278899E-04   5.2367206E+05   -1.8099813E+00
   1.5349458E-04   5.1932374E+05   -1.8094382E+00
   1.5420343E-04   5.1501281E+05   -1.8088945E+00
   1.5491556E-04   5.1073895E+05   -1.8083502E+00
   1.5563098E-04   5.0650183E+05   -1.8078054E+00
   1.5634970E-04   5.0230112E+05   -1.8072599E+00
   1.5707174E-04   4.9813650E+05   -1.8067139E+00
   1.5779711E-04   4.9400765E+05   -1.8061673E+00
   1.5852584E-04   4.8991426E+05   -1.8056201E+00
   1.5925792E-04   4.8585601E+05   -1.8050724E+00
   1.5999339E-04   4.8183260E+05   -1.8045241E+00
   1.6073226E-04   4.7784371E+05   -1.8039752E+00
   1.6147454E-04   4.7388904E+05   -1.8034258E+00
   1.6222024E-04   4.6996829E+05   -1.8028759E+00
   1.6296939E-04   4.6608117E+05   -1.8023254E+00
   1.6372200E-04   4.6222736E+05   -1.8017744E+00
   1.6447809E-04   4.5840659E+05   -1.8012229E+00
   1.6523767E-04   4.5461856E+05   -1.8006709E+00
   1.6600075E-04   4.5086297E+05   -1.8001183E+00
   1.6676736E-04   4.4713955E+05   -1.7995652E+00
   1.6753751E-04   4.4344801E+05   -1.7990117E+00
   1.6831122E-04   4.3978806E+05   -1.7984576E+00
   1.6908849E-04   4.3615944E+05   -1.7979030E+00
   1.6986936E-04   4.3256186E+05   -1.7973479E+00
   1.7065384E-04   4.2899506E+05   -1.7967924E+00
   1.7144193E-04   4.2545875E+05   -1.7962364E+00
   1.7223367E-04   4.2195268E+05   -1.7956799E+00
   1.7302906E-04   4.1847657E+05   -1.7951229E+00
   1.7382813E-04   4.1503017E+05   -1.7945655E+00
   1.7463089E-04   4.1161321E+05   -1.7940076E+00
   1.7543735E-04   4.0822542E+05   -1.7934492E+00
   1.7624754E-04   4.0486657E+05   -1.7928904E+00
   1.7706147E-04   4.0153638E+05   -1.7923312E+00
   1.7787916E-04   3.9823461E+05   -1.7917715E+00
   1.7870062E-04   3.9496101E+05   -1.7912114E+00
   1.7952588E-04   3.9171534E+05   -1.7906509E+00
   1.8035495E-04   3.8849733E+05   -1.7900899E+00
   1.8118785E-04   3.8530676E+05   -1.7895286E+00
   1.8202459E-04   3.8214338E+05   -1.7889668E+00
   1.8286520E-04   3.7900696E+05   -1.7884046E+00
   1.8370969E-04   3.7589725E+05   -1.7878420E+00
   1.8455808E-04   3.7281402E+05   -1.7872791E+00
   1.8541039E-04   3.6975705E+05   -1.7867157E+00
   1.8626663E-04   3.6672609E+05   -1.7861520E+00
   1.8712683E-04   3.6372092E+05   -1.7855879E+00
   1.8799100E-04   3.6074131E+05   -1.7850234E+00
   1.8885917E-04   3.5778705E+05   -1.7844585E+00
   1.8973134E-04   3.5485790E+05   -1.7838933E+00
   1.9060754E-04   3.5195365E+05   -1.7833278E+00
   1.9148778E-04   3.4907407E+05   -1.7827619E+00
   1.9237209E-04   3.4621897E+05   -1.7821956E+00
   1.9326049E-04   3.4338810E+05   -1.7816290E+00
   1.9415299E-04   3.4058128E+05   -1.7810621E+00
   1.9504960E-04   3.3779828E+05   -1.7804949E+00
   1.9595036E-04   3.3503890E+05   -1.7799273E+00
   1.9685528E-04   3.3230293E+05   -1.7793594E+00
   1.9776438E-04   3.2959016E+05   -1.7787912E+00
   1.9867768E-04   3.2690039E+05   -1.7782228E+00
   1.9959519E-04   3.2423343E+05   -1.7776540E+00
   2.0051694E-04   3.2158906E+05   -1.7770849E+00
   2.0144295E-04   3.1896710E+05   -1.7765156E+00
   2.0237324E-04   3.1636735E+05   -1.7759459E+00
   2.0330782E-04   3.1378961E+05   -1.7753760E+00
   2.0424671E-04   3.1123368E+05   -1.7748058E+00
   2.0518995E-04   3.0869939E+05   -1.7742354E+00
   2.0613754E-04   3.0618654E+05   -1.7736647E+00
   2.0708950E-04   3.0369495E+05   -1.7730938E+00
   2.0804586E-04   3.0122442E+05   -1.7725226E+00
   2.0900664E-04   2.9877478E+05   -1.7719512E+00
   2.0997185E-04   2.9634584E+05   -1.7713795E+00
   2.1094152E-04   2.9393742E+05   -1.7708076E+00
   2.1191567E-04   2.9154934E+05   -1.7702355E+00
   2.1289432E-04   2.8918142E+05   -1.7696632E+00
   2.1387749E-04   2.8683349E+05   -1.7690907E+00
   2.1486520E-04   2.8450538E+05   -1.7685180E+00
   2.1585747E-04   2.8219691E+05   -1.7679451E+00
   2.1685432E-04   2.7990791E+05   -1.7673720E+00
   2.1785578E-04   2.7763820E+05   -1.7667987E+00
   2.1886186E-04   2.7538763E+05   -1.7662252E+00
   2.1987259E-04   2.7315603E+05   -1.7656516E+00
   2.2088798E-04   2.7094323E+05   -1.7650778E+00
   2.2190807E-04   2.6874906E+05   -1.7645038E+00
   2.2293286E-04   2.6657336E+05   -1.7639297E+00
   2.2396239E-04   2.6441598E+05   -1.7633554E+00
   2.2499667E-04   2.6227676E+05   -1.7627810E+00
   2.2603573E-04   2.6015552E+05   -1.7622065E+00
   2.2707958E-04   2.5805213E+05   -1.7616318E+00
   2.2812826E-04   2.5596642E+05   -1.7610570E+00
   2.2918178E-04   2.5389824E+05   -1.7604821E+00
   2.3024017E-04   2.5184744E+05   -1.7599071E+00
   2.3130344E-04   2.4981387E+05   -1.7593319E+00
   2.3237162E-04   2.4779737E+05   -1.7587567E+00
   2.3344474E-04   2.4579781E+05   -1.7581814E+00
   2.3452281E-04   2.4381502E+05   -1.7576060E+00
   2.3560586E-04   2.4184887E+05   -1.7570305E+00
   2.3669392E-04   2.3989921E+05   -1.7564549E+00
   2.3778699E-04   2.3796590E+05   -1.7558793E+00
   2.3888512E-04   2.3604880E+05   -1.7553036E+00
   2.3998831E-04   2.3414776E+05   -1.7547278E+00
   2.4109661E-04   2.3226264E+05   -1.7541520E+00
   2.4221001E-04   2.3039332E+05   -1.7535762E+00
   2.4332857E-04   2.2853965E+05   -1.7530003E+00
   2.4445228E-04   2.2670149E+05   -1.7524244E+00
   2.4558119E-04   2.2487871E+05   -1.7518484E+00
   2.4671531E-04   2.2307119E+05   -1.7512724E+00
   2.4785467E-04   2.2127877E+05   -1.7506965E+00
   2.4899928E-04   2.1950135E+05   -1.7501205E+00
   2.5014919E-04   2.1773877E+05   -1.7495445E+00
   2.5130440E-04   2.1599093E+05   -1.7489685E+00
   2.5246495E-04   2.1425768E+05   -1.7483925E+00
   2.5363086E-04   2.1253891E+05   -1.7478166E+00
   2.5480216E-04   2.1083448E+05   -1.7472406E+00
   2.5597886E-04   2.0914428E+05   -1.7466647E+00
   2.5716100E-04   2.0746817E+05   -1.7460889E+00
   2.5834859E-04   2.0580605E+05   -1.7455130E+00
   2.5954168E-04   2.0415778E+05   -1.7449372E+00
   2.6074027E-04   2.0252325E+05   -1.7443615E+00
   2.6194439E-04   2.0090234E+05   -1.7437858E+00
   2.6315408E-04   1.9929493E+05   -1.7432102E+00
   2.6436935E-04   1.9770091E+05   -1.7426347E+00
   2.6559024E-04   1.9612016E+05   -1.7420593E+00
   2.6681676E-04   1.9455256E+05   -1.7414839E+00
   2.6804895E-04   1.9299800E+05   -1.7409086E+00
   2.6928683E-04   1.9145637E+05   -1.7403334E+00
   2.7053042E-04   1.8992756E+05   -1.7397583E+00
   2.7177976E-04   1.8841146E+05   -1.7391834E+00
   2.7303487E-04   1.8690795E+05   -1.7386085E+00
   2.7429577E-04   1.8541694E+05   -1.7380338E+00
   2.7556250E-04   1.8393830E+05   -1.7374591E+00
   2.7683507E-04   1.8247194E+05   -1.7368847E+00
   2.7811353E-04   1.8101775E+05   -1.7363103E+00
   2.7939788E-04   1.7957562E+05   -1.7357361E+00
   2.8068817E-04   1.7814545E+05   -1.7351621E+00
   2.8198442E-04   1.7672714E+05   -1.7345882E+00
   2.8328665E-04   1.7532059E+05   -1.7340144E+00
   2.8459490E-04   1.7392569E+05   -1.7334409E+00
   2.8590919E-04   1.7254234E+05   -1.7328675E+00
   2.8722955E-04   1.7117045E+05   -1.7322943E+00
   2.8855600E-04   1.6980991E+05   -1.7317213E+00
   2.8988859E-04   1.6846064E+05   -1.7311484E+00
   2.9122732E-04   1.6712252E+05   -1.7305758E+00
   2.9257224E-04   1.6579547E+05   -1.7300034E+00
   2.9392337E-04   1.6447940E+05   -1.7294312E+00
   2.9528074E-04   1.6317420E+05   -1.7288592E+00
   2.9664438E-04   1.6187978E+05   -1.7282874E+00
   2.9801431E-04   1.6059606E+05   -1.7277159E+00
   2.9939057E-04   1.5932293E+05   -1.7271445E+00
   3.0077319E-04   1.5806032E+05   -1.7265735E+00
   3.0216219E-04   1.5680812E+05   -1.7260026E+00
   3.0355761E-04   1.5556625E+05   -1.7254321E+00
   3.0495947E-04   1.5433462E+05   -1.7248617E+00
   3.0636780E-04   1.5311315E+05   -1.7242917E+00
   3.0778264E-04   1.5190174E+05   -1.7237219E+00
   3.0920401E-04   1.5070031E+05   -1.7231524E+00
   3.1063195E-04   1.4950878E+05   -1.7225832E+00
   3.1206648E-04   1.4832705E+05   -1.7220142E+00
   3.1350764E-04   1.4715505E+05   -1.7214456E+00
   3.1495545E-04   1.4599270E+05   -1.7208772E+00
   3.1640994E-04   1.4483990E+05   -1.7203092E+00
   3.1787116E-04   1.4369659E+05   -1.7197415E+00
   3.1933912E-04   1.4256267E+05   -1.7191740E+00
   3.2081386E-04   1.4143807E+05   -1.7186069E+00
   3.2229541E-04   1.4032271E+05   -1.7180402E+00
   3.2378381E-04   1.3921650E+05   -1.7174737E+00
   3.2527908E-04   1.3811938E+05   -1.7169076E+00
   3.2678125E-04   1.3703126E+05   -1.7163419E+00
   3.2829036E-04   1.3595207E+05   -1.7157765E+00
   3.2980644E-04   1.3488173E+05   -1.7152114E+00
   3.3132952E-04   1.3382016E+05   -1.7146468E+00
   3.3285963E-04   1.3276729E+05   -1.7140824E+00
   3.3439681E-04   1.3172305E+05   -1.7135185E+00
   3.3594109E-04   1.3068736E+05   -1.7129549E+00
   3.3749250E-04   1.2966015E+05   -1.7123918E+00
   3.3905108E-04   1.2864135E+05   -1.7118290E+00
   3.4061685E-04   1.2763089E+05   -1.7112666E+00
   3.4218986E-04   1.2662869E+05   -1.7107046E+00
   3.4377013E-04   1.2563468E+05   -1.7101430E+00
   3.4535769E-04   1.2464881E+05   -1.7095818E+00
   3.4695259E-04   1.2367098E+05   -1.7090210E+00
   3.4855485E-04   1.2270114E+05   -1.7084607E+00
   3.5016452E-04   1.2173923E+05   -1.7079008E+00
   3.5178161E-04   1.2078516E+05   -1.7073413E+00
   3.5340618E-04   1.1983889E+05   -1.7067823E+00
   3.5503824E-04   1.1890033E+05   -1.7062237E+00
   3.5667785E-04   1.1796942E+05   -1.7056656E+00
   3.5832502E-04   1.1704611E+05   -1.7051079E+00
   3.5997981E-04   1.1613032E+05   -1.7045506E+00
   3.6164223E-04   1.1522199E+05   -1.7039939E+00
   3.6331233E-04   1.1432106E+05   -1.7034376E+00
   3.6499015E-04   1.1342746E+05   -1.7028818E+00
   3.6667571E-04   1.1254113E+05   -1.7023264E+00
   3.6836906E-04   1.1166202E+05   -1.7017716E+00
   3.7007022E-04   1.1079006E+05   -1.7012172E+00
   3.7177925E-04   1.0992519E+05   -1.7006634E+00
   3.7349616E-04   1.0906734E+05   -1.7001100E+00
   3.7522101E-04   1.0821647E+05   -1.6995572E+00
   3.7695382E-04   1.0737251E+05   -1.6990049E+00
   3.7869463E-04   1.0653540E+05   -1.6984531E+00
   3.8044348E-04   1.0570509E+05   -1.6979018E+00
   3.8220041E-04   1.0488151E+05   -1.6973510E+00
   3.8396545E-04   1.0406462E+05   -1.6968008E+00
   3.8573864E-04   1.0325435E+05   -1.6962511E+00
   3.8752002E-04   1.0245065E+05   -1.6957019E+00
   3.8930963E-04   1.0165346E+05   -1.6951534E+00
   3.9110750E-04   1.0086272E+05   -1.6946053E+00
   3.9291368E-04   1.0007840E+05   -1.6940578E+00
   3.9472820E-04   9.9300417E+04   -1.6935109E+00
   3.9655109E-04   9.8528734E+04   -1.6929646E+00
   3.9838241E-04   9.7763294E+04   -1.6924188E+00
   4.0022218E-04   9.7004044E+04   -1.6918736E+00
   4.0207045E-04   9.6250933E+04   -1.6913290E+00
   4.0392725E-04   9.5503907E+04   -1.6907849E+00
   4.0579263E-04   9.4762918E+04   -1.6902415E+00
   4.0766662E-04   9.4027912E+04   -1.6896987E+00
   4.0954927E-04   9.3298841E+04   -1.6891564E+00
   4.1144061E-04   9.2575654E+04   -1.6886148E+00
   4.1334068E-04   9.1858301E+04   -1.6880738E+00
   4.1524953E-04   9.1146735E+04   -1.6875334E+00
   4.1716720E-04   9.0440905E+04   -1.6869936E+00
   4.1909372E-04   8.9740764E+04   -1.6864544E+00
   4.2102914E-04   8.9046265E+04   -1.6859159E+00
   4.2297350E-04   8.8357359E+04   -1.6853780E+00
   4.2492683E-04   8.7674000E+04   -1.6848408E+00
   4.2688919E-04   8.6996141E+04   -1.6843042E+00
   4.2886061E-04   8.6323737E+04   -1.6837682E+00
   4.3084113E-04   8.5656741E+04   -1.6832329E+00
   4.3283080E-04   8.4995109E+04   -1.6826982E+00
   4.3482966E-04   8.4338795E+04   -1.6821643E+00
   4.3683775E-04   8.3687754E+04   -1.6816309E+00
   4.3885511E-04   8.3041943E+04   -1.6810983E+00
   4.4088179E-04   8.2401317E+04   -1.6805663E+00
   4.4291783E-04   8.1765834E+04   -1.6800350E+00
   4.4496327E-04   8.1135450E+04   -1.6795044E+00
   4.4701816E-04   8.0510123E+04   -1.6789745E+00
   4.4908253E-04   7.9889811E+04   -1.6784453E+00
   4.5115644E-04   7.9274471E+04   -1.6779167E+00
   4.5323993E-04   7.8664062E+04   -1.6773889E+00
   4.5533304E-04   7.8058543E+04   -1.6768618E+00
   4.5743582E-04   7.7457873E+04   -1.6763354E+00
   4.5954830E-04   7.6862011E+04   -1.6758097E+00
   4.6167054E-04   7.6270918E+04   -1.6752847E+00
   4.6380259E-04   7.5684554E+04   -1.6747604E+00
   4.6594448E-04   7.5102878E+04   -1.6742369E+00
   4.6809626E-04   7.4525853E+04   -1.6737141E+00
   4.7025797E-04   7.3953439E+04   -1.6731920E+00
   4.7242967E-04   7.3385598E+04   -1.6726706E+00
   4.7461140E-04   7.2822292E+04   -1.6721500E+00
   4.7680321E-04   7.2263483E+04   -1.6716302E+00
   4.7900514E-04   7.1709134E+04   -1.6711111E+00
   4.8121723E-04   7.1159207E+04   -1.6705927E+00
   4.8343954E-04   7.0613667E+04   -1.6700752E+00
   4.8567212E-04   7.0072475E+04   -1.6695583E+00
   4.8791500E-04   6.9535597E+04   -1.6690423E+00
   4.9016825E-04   6.9002997E+04   -1.6685270E+00
   4.9243189E-04   6.8474638E+04   -1.6680124E+00
   4.9470600E-04   6.7950486E+04   -1.6674987E+00
   4.9699060E-04   6.7430505E+04   -1.6669857E+00
   4.9928575E-04   6.6914661E+04   -1.6664735E+00
   5.0159151E-04   6.6402921E+04   -1.6659621E+00
   5.0390791E-04   6.5895249E+04   -1.6654515E+00
   5.0623501E-04   6.5391612E+04   -1.6649417E+00
   5.0857286E-04   6.4891976E+04   -1.6644327E+00
   5.1092150E-04   6.4396310E+04   -1.6639245E+00
   5.1328099E-04   6.3904578E+04   -1.6634171E+00
   5.1565137E-04   6.3416750E+04   -1.6629105E+00
   5.1803270E-04   6.2932793E+04   -1.6624047E+00
   5.2042503E-04   6.2452674E+04   -1.6618997E+00
   5.2282841E-04   6.1976362E+04   -1.6613955E+00
   5.2524289E-04   6.1503826E+04   -1.6608922E+00
   5.2766851E-04   6.1035034E+04   -1.6603897E+00
   5.3010534E-04   6.0569955E+04   -1.6598880E+00
   5.3255342E-04   6.0108559E+04   -1.6593872E+00
   5.3501281E-04   5.9650815E+04   -1.6588871E+00
   5.3748356E-04   5.9196693E+04   -1.6583880E+00
   5.3996571E-04   5.8746163E+04   -1.6578896E+00
   5.4245933E-04   5.8299196E+04   -1.6573921E+00
   5.4496446E-04   5.7855763E+04   -1.6568955E+00
   5.4748117E-04   5.7415833E+04   -1.6563997E+00
   5.5000949E-04   5.6979379E+04   -1.6559048E+00
   5.5254949E-04   5.6546371E+04   -1.6554107E+00
   5.5510123E-04   5.6116782E+04   -1.6549174E+00
   5.5766474E-04   5.5690582E+04   -1.6544251E+00
   5.6024010E-04   5.5267745E+04   -1.6539336E+00
   5.6282734E-04   5.4848242E+04   -1.6534430E+00
   5.6542654E-04   5.4432047E+04   -1.6529532E+00
   5.6803774E-04   5.4019131E+04   -1.6524643E+00
   5.7066099E-04   5.3609468E+04   -1.6519763E+00
   5.7329637E-04   5.3203032E+04   -1.6514892E+00
   5.7594391E-04   5.2799795E+04   -1.6510029E+00
   5.7860368E-04   5.2399732E+04   -1.6505176E+00
   5.8127573E-04   5.2002816E+04   -1.6500331E+00
   5.8396012E-04   5.1609022E+04   -1.6495495E+00
   5.8665691E-04   5.1218324E+04   -1.6490668E+00
   5.8936616E-04   5.0830697E+04   -1.6485850E+00
   5.9208791E-04   5.0446115E+04   -1.6481042E+00
   5.9482223E-04   5.0064554E+04   -1.6476242E+00
   5.9756919E-04   4.9685988E+04   -1.6471451E+00
   6.0032882E-04   4.9310394E+04   -1.6466669E+00
   6.0310120E-04   4.8937747E+04   -1.6461896E+00
   6.0588639E-04   4.8568022E+04   -1.6457133E+00
   6.0868443E-04   4.8201197E+04   -1.6452378E+00
   6.1149540E-04   4.7837246E+04   -1.6447633E+00
   6.1431935E-04   4.7476148E+04   -1.6442897E+00
   6.1715634E-04   4.7117878E+04   -1.6438170E+00
   6.2000644E-04   4.6762414E+04   -1.6433452E+00
   6.2286969E-04   4.6409731E+04   -1.6428744E+00
