#        a       HoverH0(a)       dlogHdloga_of_a(a)
   1.0000000E-04   1.0650337E+06   -1.8468519E+00
   1.0046181E-04   1.0560106E+06   -1.8463619E+00
   1.0092575E-04   1.0470663E+06   -1.8458711E+00
   1.0139184E-04   1.0382002E+06   -1.8453794E+00
   1.0186008E-04   1.0294114E+06   -1.8448869E+00
   1.0233048E-04   1.0206994E+06   -1.8443935E+00
   1.0280305E-04   1.0120634E+06   -1.8438992E+00
   1.0327781E-04   1.0035028E+06   -1.8434041E+00
   1.0375475E-04   9.9501681E+05   -1.8429081E+00
   1.0423390E-04   9.8660487E+05   -1.8424113E+00
   1.0471527E-04   9.7826628E+05   -1.8419136E+00
   1.0519885E-04   9.7000040E+05   -1.8414151E+00
   1.0568467E-04   9.6180657E+05   -1.8409157E+00
   1.0617274E-04   9.5368415E+05   -1.8404155E+00
   1.0666305E-04   9.4563251E+05   -1.8399145E+00
   1.0715563E-04   9.3765101E+05   -1.8394126E+00
   1.0765049E-04   9.2973904E+05   -1.8389099E+00
   1.0814763E-04   9.2189596E+05   -1.8384064E+00
   1.0864707E-04   9.1412116E+05   -1.8379021E+00
   1.0914881E-04   9.0641404E+05   -1.8373969E+00
   1.0965287E-04   8.9877400E+05   -1.8368909E+00
   1.1015926E-04   8.9120043E+05   -1.8363842E+00
   1.1066799E-04   8.8369274E+05   -1.8358766E+00
   1.1117906E-04   8.7625036E+05   -1.8353682E+00
   1.1169250E-04   8.6887268E+05   -1.8348590E+00
   1.1220831E-04   8.6155915E+05   -1.8343490E+00
   1.1272650E-04   8.5430919E+05   -1.8338382E+00
   1.1324708E-04   8.4712223E+05   -1.8333266E+00
   1.1377007E-04   8.3999771E+05   -1.8328143E+00
   1.1429547E-04   8.3293508E+05   -1.8323011E+00
   1.1482330E-04   8.2593379E+05   -1.8317872E+00
   1.1535356E-04   8.1899329E+05   -1.8312725E+00
   1.1588628E-04   8.1211303E+05   -1.8307571E+00
   1.1642145E-04   8.0529249E+05   -1.8302408E+00
   1.1695910E-04   7.9853114E+05   -1.8297238E+00
   1.1749923E-04   7.9182844E+05   -1.8292061E+00
   1.1804185E-04   7.8518387E+05   -1.8286875E+00
   1.1858698E-04   7.7859693E+05   -1.8281683E+00
   1.1913463E-04   7.7206709E+05   -1.8276483E+00
   1.1968481E-04   7.6559385E+05   -1.8271275E+00
   1.2023752E-04   7.5917670E+05   -1.8266060E+00
   1.2079279E-04   7.5281516E+05   -1.8260837E+00
   1.2135063E-04   7.4650872E+05   -1.8255608E+00
   1.2191104E-04   7.4025690E+05   -1.8250371E+00
   1.2247403E-04   7.3405920E+05   -1.8245126E+00
   1.2303963E-04   7.2791516E+05   -1.8239875E+00
   1.2360784E-04   7.2182428E+05   -1.8234616E+00
   1.2417868E-04   7.1578611E+05   -1.8229350E+00
   1.2475215E-04   7.0980017E+05   -1.8224078E+00
   1.2532826E-04   7.0386601E+05   -1.8218798E+00
   1.2590704E-04   6.9798315E+05   -1.8213511E+00
   1.2648850E-04   6.9215114E+05   -1.8208217E+00
   1.2707263E-04   6.8636955E+05   -1.8202916E+00
   1.2765947E-04   6.8063791E+05   -1.8197608E+00
   1.2824901E-04   6.7495578E+05   -1.8192294E+00
   1.2884128E-04   6.6932273E+05   -1.8186973E+00
   1.2943628E-04   6.6373833E+05   -1.8181645E+00
   1.3003403E-04   6.5820213E+05   -1.8176310E+00
   1.3063454E-04   6.5271371E+05   -1.8170969E+00
   1.3123783E-04   6.4727265E+05   -1.8165621E+00
   1.3184390E-04   6.4187854E+05   -1.8160266E+00
   1.3245277E-04   6.3653094E+05   -1.8154905E+00
   1.3306445E-04   6.3122946E+05   -1.8149537E+00
   1.3367895E-04   6.2597368E+05   -1.8144163E+00
   1.3429630E-04   6.2076320E+05   -1.8138783E+00
   1.3491649E-04   6.1559762E+05   -1.8133396E+00
   1.3553955E-04   6.1047653E+05   -1.8128003E+00
   1.3616548E-04   6.0539956E+05   -1.8122604E+00
   1.3679431E-04   6.0036630E+05   -1.8117199E+00
   1.3742604E-04   5.9537637E+05   -1.8111787E+00
   1.3806069E-04   5.9042939E+05   -1.8106369E+00
   1.3869827E-04   5.8552498E+05   -1.8100946E+00
   1.3933879E-04   5.8066276E+05   -1.8095516E+00
   1.3998227E-04   5.7584235E+05   -1.8090080E+00
   1.4062872E-04   5.7106339E+05   -1.8084639E+00
   1.4127816E-04   5.6632551E+05   -1.8079191E+00
   1.4193060E-04   5.6162835E+05   -1.8073738E+00
   1.4258605E-04   5.5697155E+05   -1.8068279E+00
   1.4324453E-04   5.5235476E+05   -1.8062814E+00
   1.4390605E-04   5.4777761E+05   -1.8057343E+00
   1.4457062E-04   5.4323976E+05   -1.8051867E+00
   1.4523826E-04   5.3874086E+05   -1.8046385E+00
   1.4590899E-04   5.3428057E+05   -1.8040898E+00
   1.4658281E-04   5.2985855E+05   -1.8035405E+00
   1.4725974E-04   5.2547446E+05   -1.8029907E+00
   1.4793981E-04   5.2112797E+05   -1.8024404E+00
   1.4862301E-04   5.1681873E+05   -1.8018895E+00
   1.4930936E-04   5.1254643E+05   -1.8013381E+00
   1.4999889E-04   5.0831074E+05   -1.8007862E+00
   1.5069160E-04   5.0411134E+05   -1.8002337E+00
   1.5138751E-04   4.9994790E+05   -1.7996808E+00
   1.5208663E-04   4.9582012E+05   -1.7991273E+00
   1.5278899E-04   4.9172766E+05   -1.7985733E+00
   1.5349458E-04   4.8767024E+05   -1.7980189E+00
   1.5420343E-04   4.8364753E+05   -1.7974639E+00
   1.5491556E-04   4.7965922E+05   -1.7969085E+00
   1.5563098E-04   4.7570503E+05   -1.7963525E+00
   1.5634970E-04   4.7178464E+05   -1.7957961E+00
   1.5707174E-04   4.6789776E+05   -1.7952393E+00
   1.5779711E-04   4.6404409E+05   -1.7946819E+00
   1.5852584E-04   4.6022335E+05   -1.7941241E+00
   1.5925792E-04   4.5643523E+05   -1.7935659E+00
   1.5999339E-04   4.5267947E+05   -1.7930072E+00
   1.6073226E-04   4.4895576E+05   -1.7924481E+00
   1.6147454E-04   4.4526383E+05   -1.7918885E+00
   1.6222024E-04   4.4160340E+05   -1.7913285E+00
   1.6296939E-04   4.3797419E+05   -1.7907680E+00
   1.6372200E-04   4.3437593E+05   -1.7902072E+00
   1.6447809E-04   4.3080834E+05   -1.7896459E+00
   1.6523767E-04   4.2727117E+05   -1.7890842E+00
   1.6600075E-04   4.2376413E+05   -1.7885221E+00
   1.6676736E-04   4.2028696E+05   -1.7879597E+00
   1.6753751E-04   4.1683941E+05   -1.7873968E+00
   1.6831122E-04   4.1342121E+05   -1.7868335E+00
   1.6908849E-04   4.1003211E+05   -1.7862699E+00
   1.6986936E-04   4.0667184E+05   -1.7857058E+00
   1.7065384E-04   4.0334016E+05   -1.7851414E+00
   1.7144193E-04   4.0003682E+05   -1.7845767E+00
   1.7223367E-04   3.9676156E+05   -1.7840115E+00
   1.7302906E-04   3.9351415E+05   -1.7834461E+00
   1.7382813E-04   3.9029433E+05   -1.7828802E+00
   1.7463089E-04   3.8710186E+05   -1.7823140E+00
   1.7543735E-04   3.8393651E+05   -1.7817475E+00
   1.7624754E-04   3.8079804E+05   -1.7811807E+00
   1.7706147E-04   3.7768621E+05   -1.7806135E+00
   1.7787916E-04   3.7460079E+05   -1.7800460E+00
   1.7870062E-04   3.7154155E+05   -1.7794782E+00
   1.7952588E-04   3.6850825E+05   -1.7789101E+00
   1.8035495E-04   3.6550068E+05   -1.7783417E+00
   1.8118785E-04   3.6251860E+05   -1.7777730E+00
   1.8202459E-04   3.5956179E+05   -1.7772040E+00
   1.8286520E-04   3.5663004E+05   -1.7766347E+00
   1.8370969E-04   3.5372312E+05   -1.7760651E+00
   1.8455808E-04   3.5084081E+05   -1.7754953E+00
   1.8541039E-04   3.4798290E+05   -1.7749252E+00
   1.8626663E-04   3.4514919E+05   -1.7743548E+00
   1.8712683E-04   3.4233944E+05   -1.7737842E+00
   1.8799100E-04   3.3955347E+05   -1.7732133E+00
   1.8885917E-04   3.3679105E+05   -1.7726422E+00
   1.8973134E-04   3.3405198E+05   -1.7720708E+00
   1.9060754E-04   3.3133607E+05   -1.7714992E+00
   1.9148778E-04   3.2864309E+05   -1.7709274E+00
   1.9237209E-04   3.2597287E+05   -1.7703553E+00
   1.9326049E-04   3.2332519E+05   -1.7697831E+00
   1.9415299E-04   3.2069987E+05   -1.7692106E+00
   1.9504960E-04   3.1809670E+05   -1.7686379E+00
   1.9595036E-04   3.1551550E+05   -1.7680651E+00
   1.9685528E-04   3.1295606E+05   -1.7674920E+00
   1.9776438E-04   3.1041821E+05   -1.7669188E+00
   1.9867768E-04   3.0790175E+05   -1.7663454E+00
   1.9959519E-04   3.0540650E+05   -1.7657718E+00
   2.0051694E-04   3.0293227E+05   -1.7651980E+00
   2.0144295E-04   3.0047888E+05   -1.7646241E+00
   2.0237324E-04   2.9804615E+05   -1.7640500E+00
   2.0330782E-04   2.9563389E+05   -1.7634758E+00
   2.0424671E-04   2.9324194E+05   -1.7629014E+00
   2.0518995E-04   2.9087010E+05   -1.7623269E+00
   2.0613754E-04   2.8851822E+05   -1.7617522E+00
   2.0708950E-04   2.8618611E+05   -1.7611775E+00
   2.0804586E-04   2.8387360E+05   -1.7606026E+00
   2.0900664E-04   2.8158053E+05   -1.7600276E+00
   2.0997185E-04   2.7930672E+05   -1.7594525E+00
   2.1094152E-04   2.7705200E+05   -1.7588773E+00
   2.1191567E-04   2.7481621E+05   -1.7583020E+00
   2.1289432E-04   2.7259919E+05   -1.7577266E+00
   2.1387749E-04   2.7040077E+05   -1.7571512E+00
   2.1486520E-04   2.6822079E+05   -1.7565756E+00
   2.1585747E-04   2.6605910E+05   -1.7560000E+00
   2.1685432E-04   2.6391552E+05   -1.7554243E+00
   2.1785578E-04   2.6178991E+05   -1.7548486E+00
   2.1886186E-04   2.5968210E+05   -1.7542728E+00
   2.1987259E-04   2.5759196E+05   -1.7536970E+00
   2.2088798E-04   2.5551931E+05   -1.7531211E+00
   2.2190807E-04   2.5346401E+05   -1.7525452E+00
   2.2293286E-04   2.5142591E+05   -1.7519693E+00
   2.2396239E-04   2.4940487E+05   -1.7513933E+00
   2.2499667E-04   2.4740072E+05   -1.7508174E+00
   2.2603573E-04   2.4541333E+05   -1.7502414E+00
   2.2707958E-04   2.4344255E+05   -1.7496654E+00
   2.2812826E-04   2.4148824E+05   -1.7490894E+00
   2.2918178E-04   2.3955025E+05   -1.7485134E+00
   2.3024017E-04   2.3762845E+05   -1.7479375E+00
   2.3130344E-04   2.3572269E+05   -1.7473616E+00
   2.3237162E-04   2.3383283E+05   -1.7467857E+00
   2.3344474E-04   2.3195874E+05   -1.7462098E+00
   2.3452281E-04   2.3010029E+05   -1.7456340E+00
   2.3560586E-04   2.2825732E+05   -1.7450582E+00
   2.3669392E-04   2.2642972E+05   -1.7444825E+00
   2.3778699E-04   2.2461735E+05   -1.7439068E+00
   2.3888512E-04   2.2282008E+05   -1.7433312E+00
   2.3998831E-04   2.2103777E+05   -1.7427556E+00
   2.4109661E-04   2.1927030E+05   -1.7421802E+00
   2.4221001E-04   2.1751754E+05   -1.7416048E+00
   2.4332857E-04   2.1577936E+05   -1.7410295E+00
   2.4445228E-04   2.1405564E+05   -1.7404543E+00
   2.4558119E-04   2.1234625E+05   -1.7398792E+00
   2.4671531E-04   2.1065108E+05   -1.7393042E+00
   2.4785467E-04   2.0896998E+05   -1.7387293E+00
   2.4899928E-04   2.0730286E+05   -1.7381546E+00
   2.5014919E-04   2.0564957E+05   -1.7375800E+00
   2.5130440E-04   2.0401002E+05   -1.7370055E+00
   2.5246495E-04   2.0238406E+05   -1.7364311E+00
   2.5363086E-04   2.0077160E+05   -1.7358569E+00
   2.5480216E-04   1.9917252E+05   -1.7352828E+00
   2.5597886E-04   1.9758669E+05   -1.7347089E+00
   2.5716100E-04   1.9601401E+05   -1.7341351E+00
   2.5834859E-04   1.9445436E+05   -1.7335616E+00
   2.5954168E-04   1.9290762E+05   -1.7329881E+00
   2.6074027E-04   1.9137370E+05   -1.7324149E+00
   2.6194439E-04   1.8985248E+05   -1.7318419E+00
   2.6315408E-04   1.8834384E+05   -1.7312690E+00
   2.6436935E-04   1.8684769E+05   -1.7306963E+00
   2.6559024E-04   1.8536391E+05   -1.7301239E+00
   2.6681676E-04   1.8389239E+05   -1.7295516E+00
   2.6804895E-04   1.8243304E+05   -1.7289796E+00
   2.6928683E-04   1.8098575E+05   -1.7284078E+00
   2.7053042E-04   1.7955042E+05   -1.7278362E+00
   2.7177976E-04   1.7812693E+05   -1.7272649E+00
   2.7303487E-04   1.7671520E+05   -1.7266938E+00
   2.7429577E-04   1.7531511E+05   -1.7261229E+00
   2.7556250E-04   1.7392658E+05   -1.7255523E+00
   2.7683507E-04   1.7254950E+05   -1.7249819E+00
   2.7811353E-04   1.7118377E+05   -1.7244118E+00
   2.7939788E-04   1.6982929E+05   -1.7238420E+00
   2.8068817E-04   1.6848598E+05   -1.7232724E+00
   2.8198442E-04   1.6715372E+05   -1.7227032E+00
   2.8328665E-04   1.6583244E+05   -1.7221342E+00
   2.8459490E-04   1.6452204E+05   -1.7215655E+00
   2.8590919E-04   1.6322241E+05   -1.7209971E+00
   2.8722955E-04   1.6193348E+05   -1.7204290E+00
   2.8855600E-04   1.6065514E+05   -1.7198612E+00
   2.8988859E-04   1.5938732E+05   -1.7192937E+00
   2.9122732E-04   1.5812991E+05   -1.7187266E+00
   2.9257224E-04   1.5688283E+05   -1.7181598E+00
   2.9392337E-04   1.5564599E+05   -1.7175933E+00
   2.9528074E-04   1.5441931E+05   -1.7170271E+00
   2.9664438E-04   1.5320269E+05   -1.7164613E+00
   2.9801431E-04   1.5199606E+05   -1.7158958E+00
   2.9939057E-04   1.5079932E+05   -1.7153307E+00
   3.0077319E-04   1.4961239E+05   -1.7147660E+00
   3.0216219E-04   1.4843519E+05   -1.7142016E+00
   3.0355761E-04   1.4726764E+05   -1.7136376E+00
   3.0495947E-04   1.4610965E+05   -1.7130740E+00
   3.0636780E-04   1.4496114E+05   -1.7125107E+00
   3.0778264E-04   1.4382204E+05   -1.7119479E+00
   3.0920401E-04   1.4269225E+05   -1.7113854E+00
   3.1063195E-04   1.4157171E+05   -1.7108233E+00
   3.1206648E-04   1.4046033E+05   -1.7102617E+00
   3.1350764E-04   1.3935803E+05   -1.7097004E+00
   3.1495545E-04   1.3826474E+05   -1.7091396E+00
   3.1640994E-04   1.3718039E+05   -1.7085792E+00
   3.1787116E-04   1.3610488E+05   -1.7080192E+00
   3.1933912E-04   1.3503816E+05   -1.7074596E+00
   3.2081386E-04   1.3398015E+05   -1.7069005E+00
   3.2229541E-04   1.3293077E+05   -1.7063419E+00
   3.2378381E-04   1.3188994E+05   -1.7057836E+00
   3.2527908E-04   1.3085760E+05   -1.7052259E+00
   3.2678125E-04   1.2983368E+05   -1.7046686E+00
   3.2829036E-04   1.2881810E+05   -1.7041117E+00
   3.2980644E-04   1.2781079E+05   -1.7035553E+00
   3.3132952E-04   1.2681168E+05   -1.7029994E+00
   3.3285963E-04   1.2582070E+05   -1.7024440E+00
   3.3439681E-04   1.2483779E+05   -1.7018891E+00
   3.3594109E-04   1.2386287E+05   -1.7013347E+00
   3.3749250E-04   1.2289588E+05   -1.7007807E+00
   3.3905108E-04   1.2193675E+05   -1.7002273E+00
   3.4061685E-04   1.2098541E+05   -1.6996743E+00
   3.4218986E-04   1.2004180E+05   -1.6991219E+00
   3.4377013E-04   1.1910586E+05   -1.6985700E+00
   3.4535769E-04   1.1817751E+05   -1.6980186E+00
   3.4695259E-04   1.1725669E+05   -1.6974678E+00
   3.4855485E-04   1.1634335E+05   -1.6969175E+00
   3.5016452E-04   1.1543741E+05   -1.6963677E+00
   3.5178161E-04   1.1453882E+05   -1.6958184E+00
   3.5340618E-04   1.1364751E+05   -1.6952697E+00
   3.5503824E-04   1.1276342E+05   -1.6947216E+00
   3.5667785E-04   1.1188649E+05   -1.6941740E+00
   3.5832502E-04   1.1101666E+05   -1.6936270E+00
   3.5997981E-04   1.1015386E+05   -1.6930805E+00
   3.6164223E-04   1.0929805E+05   -1.6925346E+00
   3.6331233E-04   1.0844917E+05   -1.6919893E+00
   3.6499015E-04   1.0760714E+05   -1.6914446E+00
   3.6667571E-04   1.0677192E+05   -1.6909005E+00
   3.6836906E-04   1.0594345E+05   -1.6903569E+00
   3.7007022E-04   1.0512167E+05   -1.6898140E+00
   3.7177925E-04   1.0430652E+05   -1.6892716E+00
   3.7349616E-04   1.0349796E+05   -1.6887299E+00
   3.7522101E-04   1.0269591E+05   -1.6881888E+00
   3.7695382E-04   1.0190034E+05   -1.6876483E+00
   3.7869463E-04   1.0111118E+05   -1.6871084E+00
   3.8044348E-04   1.0032839E+05   -1.6865691E+00
   3.8220041E-04   9.9551897E+04   -1.6860305E+00
   3.8396545E-04   9.8781663E+04   -1.6854925E+00
   3.8573864E-04   9.8017631E+04   -1.6849551E+00
   3.8752002E-04   9.7259748E+04   -1.6844184E+00
   3.8930963E-04   9.6507964E+04   -1.6838823E+00
   3.9110750E-04   9.5762228E+04   -1.6833469E+00
   3.9291368E-04   9.5022488E+04   -1.6828121E+00
   3.9472820E-04   9.4288695E+04   -1.6822780E+00
   3.9655109E-04   9.3560799E+04   -1.6817446E+00
   3.9838241E-04   9.2838749E+04   -1.6812118E+00
   4.0022218E-04   9.2122498E+04   -1.6806797E+00
   4.0207045E-04   9.1411997E+04   -1.6801483E+00
   4.0392725E-04   9.0707198E+04   -1.6796175E+00
   4.0579263E-04   9.0008053E+04   -1.6790875E+00
   4.0766662E-04   8.9314515E+04   -1.6785581E+00
   4.0954927E-04   8.8626536E+04   -1.6780295E+00
   4.1144061E-04   8.7944071E+04   -1.6775015E+00
   4.1334068E-04   8.7267074E+04   -1.6769743E+00
   4.1524953E-04   8.6595498E+04   -1.6764477E+00
   4.1716720E-04   8.5929299E+04   -1.6759219E+00
   4.1909372E-04   8.5268431E+04   -1.6753968E+00
   4.2102914E-04   8.4612851E+04   -1.6748724E+00
   4.2297350E-04   8.3962513E+04   -1.6743487E+00
   4.2492683E-04   8.3317375E+04   -1.6738258E+00
   4.2688919E-04   8.2677394E+04   -1.6733035E+00
   4.2886061E-04   8.2042525E+04   -1.6727821E+00
   4.3084113E-04   8.1412727E+04   -1.6722613E+00
   4.3283080E-04   8.0787957E+04   -1.6717414E+00
   4.3482966E-04   8.0168174E+04   -1.6712221E+00
   4.3683775E-04   7.9553336E+04   -1.6707036E+00
   4.3885511E-04   7.8943401E+04   -1.6701859E+00
   4.4088179E-04   7.8338330E+04   -1.6696689E+00
   4.4291783E-04   7.7738081E+04   -1.6691527E+00
   4.4496327E-04   7.7142615E+04   -1.6686373E+00
   4.4701816E-04   7.6551892E+04   -1.6681226E+00
   4.4908253E-04   7.5965872E+04   -1.6676087E+00
   4.5115644E-04   7.5384517E+04   -1.6670956E+00
   4.5323993E-04   7.4807787E+04   -1.6665833E+00
   4.5533304E-04   7.4235645E+04   -1.6660718E+00
   4.5743582E-04   7.3668052E+04   -1.6655610E+00
   4.5954830E-04   7.3104971E+04   -1.6650510E+00
   4.6167054E-04   7.2546364E+04   -1.6645419E+00
   4.6380259E-04   7.1992194E+04   -1.6640335E+00
   4.6594448E-04   7.1442425E+04   -1.6635260E+00
   4.6809626E-04   7.0897020E+04   -1.6630192E+00
   4.7025797E-04   7.0355942E+04   -1.6625133E+00
   4.7242967E-04   6.9819157E+04   -1.6620082E+00
   4.7461140E-04   6.9286628E+04   -1.6615039E+00
   4.7680321E-04   6.8758320E+04   -1.6610004E+00
   4.7900514E-04   6.8234199E+04   -1.6604977E+00
   4.8121723E-04   6.7714230E+04   -1.6599959E+00
   4.8343954E-04   6.7198378E+04   -1.6594949E+00
   4.8567212E-04   6.6686610E+04   -1.6589947E+00
   4.8791500E-04   6.6178892E+04   -1.6584954E+00
   4.9016825E-04   6.5675191E+04   -1.6579969E+00
   4.9243189E-04   6.5175473E+04   -1.6574992E+00
   4.9470600E-04   6.4679705E+04   -1.6570024E+00
   4.9699060E-04   6.4187855E+04   -1.6565065E+00
   4.9928575E-04   6.3699891E+04   -1.6560114E+00
   5.0159151E-04   6.3215780E+04   -1.6555171E+00
   5.0390791E-04   6.2735492E+04   -1.6550238E+00
   5.0623501E-04   6.2258993E+04   -1.6545312E+00
   5.0857286E-04   6.1786254E+04   -1.6540396E+00
   5.1092150E-04   6.1317244E+04   -1.6535488E+00
   5.1328099E-04   6.0851931E+04   -1.6530589E+00
   5.1565137E-04   6.0390285E+04   -1.6525698E+00
   5.1803270E-04   5.9932277E+04   -1.6520817E+00
   5.2042503E-04   5.9477876E+04   -1.6515944E+00
   5.2282841E-04   5.9027052E+04   -1.6511080E+00
   5.2524289E-04   5.8579777E+04   -1.6506225E+00
   5.2766851E-04   5.8136021E+04   -1.6501378E+00
   5.3010534E-04   5.7695755E+04   -1.6496541E+00
   5.3255342E-04   5.7258951E+04   -1.6491712E+00
   5.3501281E-04   5.6825580E+04   -1.6486893E+00
   5.3748356E-04   5.6395614E+04   -1.6482082E+00
   5.3996571E-04   5.5969025E+04   -1.6477281E+00
   5.4245933E-04   5.5545786E+04   -1.6472488E+00
   5.4496446E-04   5.5125869E+04   -1.6467705E+00
   5.4748117E-04   5.4709247E+04   -1.6462930E+00
   5.5000949E-04   5.4295893E+04   -1.6458165E+00
   5.5254949E-04   5.3885781E+04   -1.6453409E+00
   5.5510123E-04   5.3478883E+04   -1.6448662E+00
   5.5766474E-04   5.3075174E+04   -1.6443924E+00
   5.6024010E-04   5.2674627E+04   -1.6439196E+00
   5.6282734E-04   5.2277217E+04   -1.6434476E+00
   5.6542654E-04   5.1882917E+04   -1.6429766E+00
   5.6803774E-04   5.1491704E+04   -1.6425065E+00
   5.7066099E-04   5.1103550E+04   -1.6420374E+00
   5.7329637E-04   5.0718433E+04   -1.6415692E+00
   5.7594391E-04   5.0336326E+04   -1.6411019E+00
   5.7860368E-04   4.9957205E+04   -1.6406355E+00
   5.8127573E-04   4.9581046E+04   -1.6401701E+00
   5.8396012E-04   4.9207825E+04   -1.6397056E+00
   5.8665691E-04   4.8837518E+04   -1.6392421E+00
   5.8936616E-04   4.8470101E+04   -1.6387795E+00
   5.9208791E-04   4.8105550E+04   -1.6383178E+00
   5.9482223E-04   4.7743843E+04   -1.6378572E+00
   5.9756919E-04   4.7384956E+04   -1.6373974E+00
   6.0032882E-04   4.7028866E+04   -1.6369386E+00
   6.0310120E-04   4.6675550E+04   -1.6364808E+00
   6.0588639E-04   4.6324987E+04   -1.6360239E+00
   6.0868443E-04   4.5977153E+04   -1.6355680E+00
   6.1149540E-04   4.5632027E+04   -1.6351130E+00
   6.1431935E-04   4.5289586E+04   -1.6346590E+00
   6.1715634E-04   4.4949809E+04   -1.6342060E+00
   6.2000644E-04   4.4612674E+04   -1.6337539E+00
   6.2286969E-04   4.4278160E+04   -1.6333028E+00
