#        a       HoverH0(a)       dlogHdloga_of_a(a)
   1.0000000E-04   1.1385490E+06   -1.8537819E+00
   1.0046181E-04   1.1288670E+06   -1.8533048E+00
   1.0092575E-04   1.1192698E+06   -1.8528267E+00
   1.0139184E-04   1.1097567E+06   -1.8523477E+00
   1.0186008E-04   1.1003268E+06   -1.8518679E+00
   1.0233048E-04   1.0909795E+06   -1.8513871E+00
   1.0280305E-04   1.0817140E+06   -1.8509054E+00
   1.0327781E-04   1.0725296E+06   -1.8504229E+00
   1.0375475E-04   1.0634255E+06   -1.8499394E+00
   1.0423390E-04   1.0544010E+06   -1.8494550E+00
   1.0471527E-04   1.0454555E+06   -1.8489698E+00
   1.0519885E-04   1.0365882E+06   -1.8484837E+00
   1.0568467E-04   1.0277983E+06   -1.8479967E+00
   1.0617274E-04   1.0190853E+06   -1.8475088E+00
   1.0666305E-04   1.0104485E+06   -1.8470200E+00
   1.0715563E-04   1.0018871E+06   -1.8465303E+00
   1.0765049E-04   9.9340048E+05   -1.8460398E+00
   1.0814763E-04   9.8498798E+05   -1.8455484E+00
   1.0864707E-04   9.7664893E+05   -1.8450562E+00
   1.0914881E-04   9.6838268E+05   -1.8445631E+00
   1.0965287E-04   9.6018858E+05   -1.8440691E+00
   1.1015926E-04   9.5206598E+05   -1.8435743E+00
   1.1066799E-04   9.4401425E+05   -1.8430786E+00
   1.1117906E-04   9.3603275E+05   -1.8425820E+00
   1.1169250E-04   9.2812086E+05   -1.8420846E+00
   1.1220831E-04   9.2027796E+05   -1.8415864E+00
   1.1272650E-04   9.1250343E+05   -1.8410873E+00
   1.1324708E-04   9.0479666E+05   -1.8405874E+00
   1.1377007E-04   8.9715705E+05   -1.8400867E+00
   1.1429547E-04   8.8958400E+05   -1.8395851E+00
   1.1482330E-04   8.8207691E+05   -1.8390827E+00
   1.1535356E-04   8.7463520E+05   -1.8385794E+00
   1.1588628E-04   8.6725829E+05   -1.8380754E+00
   1.1642145E-04   8.5994559E+05   -1.8375705E+00
   1.1695910E-04   8.5269654E+05   -1.8370648E+00
   1.1749923E-04   8.4551056E+05   -1.8365583E+00
   1.1804185E-04   8.3838711E+05   -1.8360510E+00
   1.1858698E-04   8.3132561E+05   -1.8355429E+00
   1.1913463E-04   8.2432552E+05   -1.8350340E+00
   1.1968481E-04   8.1738630E+05   -1.8345242E+00
   1.2023752E-04   8.1050739E+05   -1.8340137E+00
   1.2079279E-04   8.0368827E+05   -1.8335024E+00
   1.2135063E-04   7.9692840E+05   -1.8329903E+00
   1.2191104E-04   7.9022725E+05   -1.8324775E+00
   1.2247403E-04   7.8358430E+05   -1.8319638E+00
   1.2303963E-04   7.7699904E+05   -1.8314494E+00
   1.2360784E-04   7.7047094E+05   -1.8309342E+00
   1.2417868E-04   7.6399951E+05   -1.8304182E+00
   1.2475215E-04   7.5758424E+05   -1.8299014E+00
   1.2532826E-04   7.5122462E+05   -1.8293839E+00
   1.2590704E-04   7.4492017E+05   -1.8288657E+00
   1.2648850E-04   7.3867039E+05   -1.8283467E+00
   1.2707263E-04   7.3247480E+05   -1.8278269E+00
   1.2765947E-04   7.2633292E+05   -1.8273064E+00
   1.2824901E-04   7.2024426E+05   -1.8267851E+00
   1.2884128E-04   7.1420836E+05   -1.8262631E+00
   1.2943628E-04   7.0822475E+05   -1.8257404E+00
   1.3003403E-04   7.0229297E+05   -1.8252170E+00
   1.3063454E-04   6.9641254E+05   -1.8246928E+00
   1.3123783E-04   6.9058302E+05   -1.8241679E+00
   1.3184390E-04   6.8480396E+05   -1.8236423E+00
   1.3245277E-04   6.7907490E+05   -1.8231159E+00
   1.3306445E-04   6.7339541E+05   -1.8225889E+00
   1.3367895E-04   6.6776504E+05   -1.8220611E+00
   1.3429630E-04   6.6218336E+05   -1.8215327E+00
   1.3491649E-04   6.5664993E+05   -1.8210035E+00
   1.3553955E-04   6.5116433E+05   -1.8204737E+00
   1.3616548E-04   6.4572613E+05   -1.8199431E+00
   1.3679431E-04   6.4033492E+05   -1.8194119E+00
   1.3742604E-04   6.3499028E+05   -1.8188800E+00
   1.3806069E-04   6.2969179E+05   -1.8183475E+00
   1.3869827E-04   6.2443904E+05   -1.8178142E+00
   1.3933879E-04   6.1923164E+05   -1.8172803E+00
   1.3998227E-04   6.1406917E+05   -1.8167457E+00
   1.4062872E-04   6.0895124E+05   -1.8162105E+00
   1.4127816E-04   6.0387746E+05   -1.8156746E+00
   1.4193060E-04   5.9884743E+05   -1.8151381E+00
   1.4258605E-04   5.9386076E+05   -1.8146009E+00
   1.4324453E-04   5.8891708E+05   -1.8140631E+00
   1.4390605E-04   5.8401601E+05   -1.8135246E+00
   1.4457062E-04   5.7915716E+05   -1.8129855E+00
   1.4523826E-04   5.7434016E+05   -1.8124458E+00
   1.4590899E-04   5.6956464E+05   -1.8119055E+00
   1.4658281E-04   5.6483023E+05   -1.8113645E+00
   1.4725974E-04   5.6013658E+05   -1.8108230E+00
   1.4793981E-04   5.5548332E+05   -1.8102808E+00
   1.4862301E-04   5.5087009E+05   -1.8097380E+00
   1.4930936E-04   5.4629654E+05   -1.8091946E+00
   1.4999889E-04   5.4176232E+05   -1.8086507E+00
   1.5069160E-04   5.3726707E+05   -1.8081061E+00
   1.5138751E-04   5.3281047E+05   -1.8075610E+00
   1.5208663E-04   5.2839216E+05   -1.8070153E+00
   1.5278899E-04   5.2401181E+05   -1.8064690E+00
   1.5349458E-04   5.1966908E+05   -1.8059221E+00
   1.5420343E-04   5.1536364E+05   -1.8053747E+00
   1.5491556E-04   5.1109516E+05   -1.8048267E+00
   1.5563098E-04   5.0686331E+05   -1.8042782E+00
   1.5634970E-04   5.0266777E+05   -1.8037291E+00
   1.5707174E-04   4.9850823E+05   -1.8031795E+00
   1.5779711E-04   4.9438435E+05   -1.8026293E+00
   1.5852584E-04   4.9029584E+05   -1.8020786E+00
   1.5925792E-04   4.8624237E+05   -1.8015274E+00
   1.5999339E-04   4.8222363E+05   -1.8009756E+00
   1.6073226E-04   4.7823933E+05   -1.8004233E+00
   1.6147454E-04   4.7428916E+05   -1.7998705E+00
   1.6222024E-04   4.7037281E+05   -1.7993172E+00
   1.6296939E-04   4.6648999E+05   -1.7987634E+00
   1.6372200E-04   4.6264040E+05   -1.7982091E+00
   1.6447809E-04   4.5882375E+05   -1.7976543E+00
   1.6523767E-04   4.5503976E+05   -1.7970991E+00
   1.6600075E-04   4.5128812E+05   -1.7965433E+00
   1.6676736E-04   4.4756856E+05   -1.7959871E+00
   1.6753751E-04   4.4388080E+05   -1.7954304E+00
   1.6831122E-04   4.4022455E+05   -1.7948732E+00
   1.6908849E-04   4.3659954E+05   -1.7943155E+00
   1.6986936E-04   4.3300550E+05   -1.7937574E+00
   1.7065384E-04   4.2944214E+05   -1.7931989E+00
   1.7144193E-04   4.2590920E+05   -1.7926399E+00
   1.7223367E-04   4.2240642E+05   -1.7920805E+00
   1.7302906E-04   4.1893353E+05   -1.7915206E+00
   1.7382813E-04   4.1549026E+05   -1.7909603E+00
   1.7463089E-04   4.1207635E+05   -1.7903996E+00
   1.7543735E-04   4.0869156E+05   -1.7898385E+00
   1.7624754E-04   4.0533561E+05   -1.7892769E+00
   1.7706147E-04   4.0200826E+05   -1.7887150E+00
   1.7787916E-04   3.9870926E+05   -1.7881526E+00
   1.7870062E-04   3.9543835E+05   -1.7875899E+00
   1.7952588E-04   3.9219530E+05   -1.7870267E+00
   1.8035495E-04   3.8897985E+05   -1.7864632E+00
   1.8118785E-04   3.8579177E+05   -1.7858993E+00
   1.8202459E-04   3.8263081E+05   -1.7853350E+00
   1.8286520E-04   3.7949673E+05   -1.7847704E+00
   1.8370969E-04   3.7638931E+05   -1.7842054E+00
   1.8455808E-04   3.7330831E+05   -1.7836400E+00
   1.8541039E-04   3.7025348E+05   -1.7830743E+00
   1.8626663E-04   3.6722462E+05   -1.7825082E+00
   1.8712683E-04   3.6422148E+05   -1.7819418E+00
   1.8799100E-04   3.6124385E+05   -1.7813751E+00
   1.8885917E-04   3.5829149E+05   -1.7808080E+00
   1.8973134E-04   3.5536419E+05   -1.7802406E+00
   1.9060754E-04   3.5246173E+05   -1.7796729E+00
   1.9148778E-04   3.4958389E+05   -1.7791049E+00
   1.9237209E-04   3.4673045E+05   -1.7785366E+00
   1.9326049E-04   3.4390121E+05   -1.7779680E+00
   1.9415299E-04   3.4109594E+05   -1.7773991E+00
   1.9504960E-04   3.3831445E+05   -1.7768299E+00
   1.9595036E-04   3.3555652E+05   -1.7762604E+00
   1.9685528E-04   3.3282195E+05   -1.7756907E+00
   1.9776438E-04   3.3011052E+05   -1.7751206E+00
   1.9867768E-04   3.2742205E+05   -1.7745503E+00
   1.9959519E-04   3.2475632E+05   -1.7739798E+00
   2.0051694E-04   3.2211315E+05   -1.7734090E+00
   2.0144295E-04   3.1949233E+05   -1.7728379E+00
   2.0237324E-04   3.1689366E+05   -1.7722667E+00
   2.0330782E-04   3.1431696E+05   -1.7716951E+00
   2.0424671E-04   3.1176203E+05   -1.7711234E+00
   2.0518995E-04   3.0922869E+05   -1.7705514E+00
   2.0613754E-04   3.0671674E+05   -1.7699792E+00
   2.0708950E-04   3.0422600E+05   -1.7694068E+00
   2.0804586E-04   3.0175628E+05   -1.7688342E+00
   2.0900664E-04   2.9930739E+05   -1.7682614E+00
   2.0997185E-04   2.9687917E+05   -1.7676884E+00
   2.1094152E-04   2.9447142E+05   -1.7671152E+00
   2.1191567E-04   2.9208398E+05   -1.7665419E+00
   2.1289432E-04   2.8971665E+05   -1.7659683E+00
   2.1387749E-04   2.8736927E+05   -1.7653946E+00
   2.1486520E-04   2.8504166E+05   -1.7648207E+00
   2.1585747E-04   2.8273366E+05   -1.7642467E+00
   2.1685432E-04   2.8044508E+05   -1.7636725E+00
   2.1785578E-04   2.7817576E+05   -1.7630982E+00
   2.1886186E-04   2.7592554E+05   -1.7625237E+00
   2.1987259E-04   2.7369425E+05   -1.7619491E+00
   2.2088798E-04   2.7148171E+05   -1.7613744E+00
   2.2190807E-04   2.6928778E+05   -1.7607995E+00
   2.2293286E-04   2.6711229E+05   -1.7602246E+00
   2.2396239E-04   2.6495507E+05   -1.7596495E+00
   2.2499667E-04   2.6281597E+05   -1.7590743E+00
   2.2603573E-04   2.6069483E+05   -1.7584991E+00
   2.2707958E-04   2.5859149E+05   -1.7579237E+00
   2.2812826E-04   2.5650581E+05   -1.7573483E+00
   2.2918178E-04   2.5443762E+05   -1.7567727E+00
   2.3024017E-04   2.5238677E+05   -1.7561971E+00
   2.3130344E-04   2.5035312E+05   -1.7556215E+00
   2.3237162E-04   2.4833652E+05   -1.7550458E+00
   2.3344474E-04   2.4633681E+05   -1.7544700E+00
   2.3452281E-04   2.4435386E+05   -1.7538942E+00
   2.3560586E-04   2.4238751E+05   -1.7533183E+00
   2.3669392E-04   2.4043762E+05   -1.7527424E+00
   2.3778699E-04   2.3850405E+05   -1.7521665E+00
   2.3888512E-04   2.3658666E+05   -1.7515905E+00
   2.3998831E-04   2.3468530E+05   -1.7510146E+00
   2.4109661E-04   2.3279985E+05   -1.7504386E+00
   2.4221001E-04   2.3093015E+05   -1.7498626E+00
   2.4332857E-04   2.2907608E+05   -1.7492866E+00
   2.4445228E-04   2.2723749E+05   -1.7487106E+00
   2.4558119E-04   2.2541426E+05   -1.7481347E+00
   2.4671531E-04   2.2360626E+05   -1.7475587E+00
   2.4785467E-04   2.2181334E+05   -1.7469828E+00
   2.4899928E-04   2.2003538E+05   -1.7464069E+00
   2.5014919E-04   2.1827226E+05   -1.7458311E+00
   2.5130440E-04   2.1652383E+05   -1.7452552E+00
   2.5246495E-04   2.1478999E+05   -1.7446795E+00
   2.5363086E-04   2.1307059E+05   -1.7441038E+00
   2.5480216E-04   2.1136551E+05   -1.7435282E+00
   2.5597886E-04   2.0967464E+05   -1.7429526E+00
   2.5716100E-04   2.0799784E+05   -1.7423771E+00
   2.5834859E-04   2.0633500E+05   -1.7418017E+00
   2.5954168E-04   2.0468600E+05   -1.7412263E+00
   2.6074027E-04   2.0305071E+05   -1.7406511E+00
   2.6194439E-04   2.0142902E+05   -1.7400760E+00
   2.6315408E-04   1.9982082E+05   -1.7395009E+00
   2.6436935E-04   1.9822597E+05   -1.7389260E+00
   2.6559024E-04   1.9664438E+05   -1.7383512E+00
   2.6681676E-04   1.9507593E+05   -1.7377765E+00
   2.6804895E-04   1.9352049E+05   -1.7372020E+00
   2.6928683E-04   1.9197797E+05   -1.7366276E+00
   2.7053042E-04   1.9044825E+05   -1.7360533E+00
   2.7177976E-04   1.8893121E+05   -1.7354792E+00
   2.7303487E-04   1.8742676E+05   -1.7349052E+00
   2.7429577E-04   1.8593477E+05   -1.7343314E+00
   2.7556250E-04   1.8445515E+05   -1.7337577E+00
   2.7683507E-04   1.8298779E+05   -1.7331842E+00
   2.7811353E-04   1.8153258E+05   -1.7326109E+00
   2.7939788E-04   1.8008942E+05   -1.7320378E+00
   2.8068817E-04   1.7865821E+05   -1.7314649E+00
   2.8198442E-04   1.7723883E+05   -1.7308921E+00
   2.8328665E-04   1.7583120E+05   -1.7303196E+00
   2.8459490E-04   1.7443520E+05   -1.7297473E+00
   2.8590919E-04   1.7305075E+05   -1.7291752E+00
   2.8722955E-04   1.7167774E+05   -1.7286033E+00
   2.8855600E-04   1.7031607E+05   -1.7280316E+00
   2.8988859E-04   1.6896564E+05   -1.7274602E+00
   2.9122732E-04   1.6762636E+05   -1.7268890E+00
   2.9257224E-04   1.6629814E+05   -1.7263180E+00
   2.9392337E-04   1.6498087E+05   -1.7257473E+00
   2.9528074E-04   1.6367447E+05   -1.7251768E+00
   2.9664438E-04   1.6237884E+05   -1.7246066E+00
   2.9801431E-04   1.6109389E+05   -1.7240367E+00
   2.9939057E-04   1.5981952E+05   -1.7234671E+00
   3.0077319E-04   1.5855566E+05   -1.7228977E+00
   3.0216219E-04   1.5730220E+05   -1.7223286E+00
   3.0355761E-04   1.5605906E+05   -1.7217598E+00
   3.0495947E-04   1.5482615E+05   -1.7211913E+00
   3.0636780E-04   1.5360338E+05   -1.7206231E+00
   3.0778264E-04   1.5239067E+05   -1.7200552E+00
   3.0920401E-04   1.5118793E+05   -1.7194876E+00
   3.1063195E-04   1.4999507E+05   -1.7189203E+00
   3.1206648E-04   1.4881201E+05   -1.7183534E+00
   3.1350764E-04   1.4763867E+05   -1.7177867E+00
   3.1495545E-04   1.4647497E+05   -1.7172205E+00
   3.1640994E-04   1.4532081E+05   -1.7166545E+00
   3.1787116E-04   1.4417613E+05   -1.7160889E+00
   3.1933912E-04   1.4304083E+05   -1.7155237E+00
   3.2081386E-04   1.4191485E+05   -1.7149588E+00
   3.2229541E-04   1.4079809E+05   -1.7143943E+00
   3.2378381E-04   1.3969048E+05   -1.7138301E+00
   3.2527908E-04   1.3859195E+05   -1.7132664E+00
   3.2678125E-04   1.3750242E+05   -1.7127030E+00
   3.2829036E-04   1.3642180E+05   -1.7121400E+00
   3.2980644E-04   1.3535002E+05   -1.7115774E+00
   3.3132952E-04   1.3428702E+05   -1.7110152E+00
   3.3285963E-04   1.3323271E+05   -1.7104533E+00
   3.3439681E-04   1.3218702E+05   -1.7098919E+00
   3.3594109E-04   1.3114987E+05   -1.7093310E+00
   3.3749250E-04   1.3012120E+05   -1.7087704E+00
   3.3905108E-04   1.2910093E+05   -1.7082103E+00
   3.4061685E-04   1.2808899E+05   -1.7076505E+00
   3.4218986E-04   1.2708531E+05   -1.7070913E+00
   3.4377013E-04   1.2608982E+05   -1.7065324E+00
   3.4535769E-04   1.2510245E+05   -1.7059740E+00
   3.4695259E-04   1.2412313E+05   -1.7054161E+00
   3.4855485E-04   1.2315179E+05   -1.7048586E+00
   3.5016452E-04   1.2218837E+05   -1.7043016E+00
   3.5178161E-04   1.2123279E+05   -1.7037451E+00
   3.5340618E-04   1.2028500E+05   -1.7031890E+00
   3.5503824E-04   1.1934492E+05   -1.7026334E+00
   3.5667785E-04   1.1841249E+05   -1.7020783E+00
   3.5832502E-04   1.1748765E+05   -1.7015237E+00
   3.5997981E-04   1.1657033E+05   -1.7009696E+00
   3.6164223E-04   1.1566047E+05   -1.7004159E+00
   3.6331233E-04   1.1475800E+05   -1.6998628E+00
   3.6499015E-04   1.1386286E+05   -1.6993102E+00
   3.6667571E-04   1.1297499E+05   -1.6987581E+00
   3.6836906E-04   1.1209433E+05   -1.6982065E+00
   3.7007022E-04   1.1122082E+05   -1.6976555E+00
   3.7177925E-04   1.1035440E+05   -1.6971050E+00
   3.7349616E-04   1.0949500E+05   -1.6965550E+00
   3.7522101E-04   1.0864257E+05   -1.6960056E+00
   3.7695382E-04   1.0779705E+05   -1.6954567E+00
   3.7869463E-04   1.0695838E+05   -1.6949083E+00
   3.8044348E-04   1.0612650E+05   -1.6943605E+00
   3.8220041E-04   1.0530136E+05   -1.6938133E+00
   3.8396545E-04   1.0448289E+05   -1.6932667E+00
   3.8573864E-04   1.0367105E+05   -1.6927206E+00
   3.8752002E-04   1.0286578E+05   -1.6921750E+00
   3.8930963E-04   1.0206702E+05   -1.6916301E+00
   3.9110750E-04   1.0127471E+05   -1.6910858E+00
   3.9291368E-04   1.0048881E+05   -1.6905420E+00
   3.9472820E-04   9.9709254E+04   -1.6899988E+00
   3.9655109E-04   9.8935994E+04   -1.6894563E+00
   3.9838241E-04   9.8168976E+04   -1.6889143E+00
   4.0022218E-04   9.7408148E+04   -1.6883730E+00
   4.0207045E-04   9.6653457E+04   -1.6878322E+00
   4.0392725E-04   9.5904852E+04   -1.6872921E+00
   4.0579263E-04   9.5162282E+04   -1.6867526E+00
   4.0766662E-04   9.4425696E+04   -1.6862137E+00
   4.0954927E-04   9.3695044E+04   -1.6856755E+00
   4.1144061E-04   9.2970276E+04   -1.6851379E+00
   4.1334068E-04   9.2251342E+04   -1.6846010E+00
   4.1524953E-04   9.1538195E+04   -1.6840646E+00
   4.1716720E-04   9.0830785E+04   -1.6835290E+00
   4.1909372E-04   9.0129063E+04   -1.6829940E+00
   4.2102914E-04   8.9432984E+04   -1.6824596E+00
   4.2297350E-04   8.8742498E+04   -1.6819260E+00
   4.2492683E-04   8.8057561E+04   -1.6813929E+00
   4.2688919E-04   8.7378124E+04   -1.6808606E+00
   4.2886061E-04   8.6704142E+04   -1.6803289E+00
   4.3084113E-04   8.6035569E+04   -1.6797980E+00
   4.3283080E-04   8.5372361E+04   -1.6792677E+00
   4.3482966E-04   8.4714472E+04   -1.6787381E+00
   4.3683775E-04   8.4061857E+04   -1.6782091E+00
   4.3885511E-04   8.3414473E+04   -1.6776809E+00
   4.4088179E-04   8.2772276E+04   -1.6771534E+00
   4.4291783E-04   8.2135223E+04   -1.6766266E+00
   4.4496327E-04   8.1503271E+04   -1.6761005E+00
   4.4701816E-04   8.0876376E+04   -1.6755752E+00
   4.4908253E-04   8.0254498E+04   -1.6750505E+00
   4.5115644E-04   7.9637594E+04   -1.6745266E+00
   4.5323993E-04   7.9025622E+04   -1.6740034E+00
   4.5533304E-04   7.8418543E+04   -1.6734809E+00
   4.5743582E-04   7.7816314E+04   -1.6729591E+00
   4.5954830E-04   7.7218895E+04   -1.6724381E+00
   4.6167054E-04   7.6626247E+04   -1.6719179E+00
   4.6380259E-04   7.6038329E+04   -1.6713984E+00
   4.6594448E-04   7.5455103E+04   -1.6708796E+00
   4.6809626E-04   7.4876529E+04   -1.6703616E+00
   4.7025797E-04   7.4302569E+04   -1.6698444E+00
   4.7242967E-04   7.3733183E+04   -1.6693279E+00
   4.7461140E-04   7.3168335E+04   -1.6688122E+00
   4.7680321E-04   7.2607987E+04   -1.6682972E+00
   4.7900514E-04   7.2052100E+04   -1.6677831E+00
   4.8121723E-04   7.1500639E+04   -1.6672697E+00
   4.8343954E-04   7.0953567E+04   -1.6667571E+00
   4.8567212E-04   7.0410846E+04   -1.6662452E+00
   4.8791500E-04   6.9872441E+04   -1.6657342E+00
   4.9016825E-04   6.9338316E+04   -1.6652239E+00
   4.9243189E-04   6.8808436E+04   -1.6647145E+00
   4.9470600E-04   6.8282766E+04   -1.6642058E+00
   4.9699060E-04   6.7761270E+04   -1.6636980E+00
   4.9928575E-04   6.7243914E+04   -1.6631910E+00
   5.0159151E-04   6.6730663E+04   -1.6626847E+00
   5.0390791E-04   6.6221485E+04   -1.6621793E+00
   5.0623501E-04   6.5716344E+04   -1.6616747E+00
   5.0857286E-04   6.5215209E+04   -1.6611709E+00
   5.1092150E-04   6.4718045E+04   -1.6606680E+00
   5.1328099E-04   6.4224820E+04   -1.6601658E+00
   5.1565137E-04   6.3735501E+04   -1.6596645E+00
   5.1803270E-04   6.3250056E+04   -1.6591641E+00
   5.2042503E-04   6.2768453E+04   -1.6586644E+00
   5.2282841E-04   6.2290661E+04   -1.6581656E+00
   5.2524289E-04   6.1816647E+04   -1.6576677E+00
   5.2766851E-04   6.1346381E+04   -1.6571706E+00
   5.3010534E-04   6.0879832E+04   -1.6566743E+00
   5.3255342E-04   6.0416969E+04   -1.6561789E+00
   5.3501281E-04   5.9957762E+04   -1.6556844E+00
   5.3748356E-04   5.9502181E+04   -1.6551907E+00
   5.3996571E-04   5.9050196E+04   -1.6546978E+00
   5.4245933E-04   5.8601776E+04   -1.6542059E+00
   5.4496446E-04   5.8156894E+04   -1.6537148E+00
   5.4748117E-04   5.7715520E+04   -1.6532245E+00
   5.5000949E-04   5.7277625E+04   -1.6527352E+00
   5.5254949E-04   5.6843180E+04   -1.6522467E+00
   5.5510123E-04   5.6412157E+04   -1.6517591E+00
   5.5766474E-04   5.5984529E+04   -1.6512724E+00
   5.6024010E-04   5.5560266E+04   -1.6507865E+00
   5.6282734E-04   5.5139341E+04   -1.6503016E+00
   5.6542654E-04   5.4721728E+04   -1.6498175E+00
   5.6803774E-04   5.4307399E+04   -1.6493343E+00
   5.7066099E-04   5.3896327E+04   -1.6488521E+00
   5.7329637E-04   5.3488485E+04   -1.6483707E+00
   5.7594391E-04   5.3083846E+04   -1.6478902E+00
   5.7860368E-04   5.2682386E+04   -1.6474106E+00
   5.8127573E-04   5.2284077E+04   -1.6469319E+00
   5.8396012E-04   5.1888894E+04   -1.6464542E+00
   5.8665691E-04   5.1496811E+04   -1.6459773E+00
   5.8936616E-04   5.1107803E+04   -1.6455014E+00
   5.9208791E-04   5.0721844E+04   -1.6450263E+00
   5.9482223E-04   5.0338911E+04   -1.6445522E+00
   5.9756919E-04   4.9958977E+04   -1.6440790E+00
   6.0032882E-04   4.9582019E+04   -1.6436068E+00
   6.0310120E-04   4.9208012E+04   -1.6431354E+00
   6.0588639E-04   4.8836932E+04   -1.6426650E+00
   6.0868443E-04   4.8468756E+04   -1.6421955E+00
   6.1149540E-04   4.8103459E+04   -1.6417270E+00
   6.1431935E-04   4.7741018E+04   -1.6412593E+00
   6.1715634E-04   4.7381410E+04   -1.6407926E+00
   6.2000644E-04   4.7024612E+04   -1.6403269E+00
   6.2286969E-04   4.6670601E+04   -1.6398621E+00
