#        a       HoverH0(a)       dlogHdloga_of_a(a)
   1.0000000E-04   1.1301261E+06   -1.8803167E+00
   1.0046181E-04   1.1203786E+06   -1.8798967E+00
   1.0092575E-04   1.1107174E+06   -1.8794757E+00
   1.0139184E-04   1.1011415E+06   -1.8790538E+00
   1.0186008E-04   1.0916504E+06   -1.8786308E+00
   1.0233048E-04   1.0822432E+06   -1.8782068E+00
   1.0280305E-04   1.0729192E+06   -1.8777818E+00
   1.0327781E-04   1.0636775E+06   -1.8773558E+00
   1.0375475E-04   1.0545176E+06   -1.8769288E+00
   1.0423390E-04   1.0454386E+06   -1.8765009E+00
   1.0471527E-04   1.0364398E+06   -1.8760719E+00
   1.0519885E-04   1.0275204E+06   -1.8756419E+00
   1.0568467E-04   1.0186799E+06   -1.8752109E+00
   1.0617274E-04   1.0099175E+06   -1.8747789E+00
   1.0666305E-04   1.0012324E+06   -1.8743460E+00
   1.0715563E-04   9.9262394E+05   -1.8739120E+00
   1.0765049E-04   9.8409150E+05   -1.8734770E+00
   1.0814763E-04   9.7563436E+05   -1.8730411E+00
   1.0864707E-04   9.6725185E+05   -1.8726041E+00
   1.0914881E-04   9.5894329E+05   -1.8721662E+00
   1.0965287E-04   9.5070803E+05   -1.8717273E+00
   1.1015926E-04   9.4254539E+05   -1.8712874E+00
   1.1066799E-04   9.3445473E+05   -1.8708465E+00
   1.1117906E-04   9.2643540E+05   -1.8704046E+00
   1.1169250E-04   9.1848677E+05   -1.8699618E+00
   1.1220831E-04   9.1060819E+05   -1.8695180E+00
   1.1272650E-04   9.0279905E+05   -1.8690732E+00
   1.1324708E-04   8.9505871E+05   -1.8686274E+00
   1.1377007E-04   8.8738656E+05   -1.8681806E+00
   1.1429547E-04   8.7978198E+05   -1.8677329E+00
   1.1482330E-04   8.7224438E+05   -1.8672842E+00
   1.1535356E-04   8.6477314E+05   -1.8668345E+00
   1.1588628E-04   8.5736768E+05   -1.8663838E+00
   1.1642145E-04   8.5002740E+05   -1.8659322E+00
   1.1695910E-04   8.4275171E+05   -1.8654796E+00
   1.1749923E-04   8.3554005E+05   -1.8650261E+00
   1.1804185E-04   8.2839183E+05   -1.8645716E+00
   1.1858698E-04   8.2130649E+05   -1.8641161E+00
   1.1913463E-04   8.1428346E+05   -1.8636597E+00
   1.1968481E-04   8.0732218E+05   -1.8632023E+00
   1.2023752E-04   8.0042211E+05   -1.8627439E+00
   1.2079279E-04   7.9358269E+05   -1.8622846E+00
   1.2135063E-04   7.8680337E+05   -1.8618244E+00
   1.2191104E-04   7.8008363E+05   -1.8613632E+00
   1.2247403E-04   7.7342292E+05   -1.8609011E+00
   1.2303963E-04   7.6682072E+05   -1.8604380E+00
   1.2360784E-04   7.6027649E+05   -1.8599739E+00
   1.2417868E-04   7.5378974E+05   -1.8595090E+00
   1.2475215E-04   7.4735993E+05   -1.8590430E+00
   1.2532826E-04   7.4098656E+05   -1.8585762E+00
   1.2590704E-04   7.3466912E+05   -1.8581084E+00
   1.2648850E-04   7.2840711E+05   -1.8576397E+00
   1.2707263E-04   7.2220004E+05   -1.8571700E+00
   1.2765947E-04   7.1604741E+05   -1.8566994E+00
   1.2824901E-04   7.0994874E+05   -1.8562279E+00
   1.2884128E-04   7.0390355E+05   -1.8557555E+00
   1.2943628E-04   6.9791135E+05   -1.8552821E+00
   1.3003403E-04   6.9197167E+05   -1.8548079E+00
   1.3063454E-04   6.8608405E+05   -1.8543327E+00
   1.3123783E-04   6.8024800E+05   -1.8538566E+00
   1.3184390E-04   6.7446309E+05   -1.8533796E+00
   1.3245277E-04   6.6872883E+05   -1.8529016E+00
   1.3306445E-04   6.6304480E+05   -1.8524228E+00
   1.3367895E-04   6.5741052E+05   -1.8519431E+00
   1.3429630E-04   6.5182557E+05   -1.8514624E+00
   1.3491649E-04   6.4628950E+05   -1.8509809E+00
   1.3553955E-04   6.4080186E+05   -1.8504984E+00
   1.3616548E-04   6.3536224E+05   -1.8500151E+00
   1.3679431E-04   6.2997020E+05   -1.8495309E+00
   1.3742604E-04   6.2462531E+05   -1.8490458E+00
   1.3806069E-04   6.1932716E+05   -1.8485598E+00
   1.3869827E-04   6.1407532E+05   -1.8480729E+00
   1.3933879E-04   6.0886938E+05   -1.8475851E+00
   1.3998227E-04   6.0370894E+05   -1.8470965E+00
   1.4062872E-04   5.9859358E+05   -1.8466069E+00
   1.4127816E-04   5.9352290E+05   -1.8461165E+00
   1.4193060E-04   5.8849651E+05   -1.8456253E+00
   1.4258605E-04   5.8351401E+05   -1.8451332E+00
   1.4324453E-04   5.7857501E+05   -1.8446402E+00
   1.4390605E-04   5.7367911E+05   -1.8441463E+00
   1.4457062E-04   5.6882594E+05   -1.8436516E+00
   1.4523826E-04   5.6401512E+05   -1.8431560E+00
   1.4590899E-04   5.5924625E+05   -1.8426596E+00
   1.4658281E-04   5.5451898E+05   -1.8421623E+00
   1.4725974E-04   5.4983293E+05   -1.8416642E+00
   1.4793981E-04   5.4518774E+05   -1.8411653E+00
   1.4862301E-04   5.4058303E+05   -1.8406655E+00
   1.4930936E-04   5.3601844E+05   -1.8401649E+00
   1.4999889E-04   5.3149363E+05   -1.8396634E+00
   1.5069160E-04   5.2700823E+05   -1.8391611E+00
   1.5138751E-04   5.2256190E+05   -1.8386580E+00
   1.5208663E-04   5.1815428E+05   -1.8381540E+00
   1.5278899E-04   5.1378503E+05   -1.8376493E+00
   1.5349458E-04   5.0945381E+05   -1.8371437E+00
   1.5420343E-04   5.0516028E+05   -1.8366373E+00
   1.5491556E-04   5.0090411E+05   -1.8361301E+00
   1.5563098E-04   4.9668495E+05   -1.8356221E+00
   1.5634970E-04   4.9250249E+05   -1.8351133E+00
   1.5707174E-04   4.8835639E+05   -1.8346037E+00
   1.5779711E-04   4.8424634E+05   -1.8340933E+00
   1.5852584E-04   4.8017200E+05   -1.8335821E+00
   1.5925792E-04   4.7613307E+05   -1.8330701E+00
   1.5999339E-04   4.7212923E+05   -1.8325573E+00
   1.6073226E-04   4.6816016E+05   -1.8320438E+00
   1.6147454E-04   4.6422556E+05   -1.8315295E+00
   1.6222024E-04   4.6032511E+05   -1.8310144E+00
   1.6296939E-04   4.5645853E+05   -1.8304985E+00
   1.6372200E-04   4.5262550E+05   -1.8299819E+00
   1.6447809E-04   4.4882572E+05   -1.8294645E+00
   1.6523767E-04   4.4505891E+05   -1.8289463E+00
   1.6600075E-04   4.4132476E+05   -1.8284274E+00
   1.6676736E-04   4.3762299E+05   -1.8279077E+00
   1.6753751E-04   4.3395331E+05   -1.8273873E+00
   1.6831122E-04   4.3031544E+05   -1.8268662E+00
   1.6908849E-04   4.2670908E+05   -1.8263443E+00
   1.6986936E-04   4.2313397E+05   -1.8258217E+00
   1.7065384E-04   4.1958982E+05   -1.8252983E+00
   1.7144193E-04   4.1607636E+05   -1.8247742E+00
   1.7223367E-04   4.1259332E+05   -1.8242494E+00
   1.7302906E-04   4.0914043E+05   -1.8237239E+00
   1.7382813E-04   4.0571742E+05   -1.8231976E+00
   1.7463089E-04   4.0232402E+05   -1.8226707E+00
   1.7543735E-04   3.9895997E+05   -1.8221430E+00
   1.7624754E-04   3.9562502E+05   -1.8216147E+00
   1.7706147E-04   3.9231889E+05   -1.8210856E+00
   1.7787916E-04   3.8904135E+05   -1.8205559E+00
   1.7870062E-04   3.8579212E+05   -1.8200254E+00
   1.7952588E-04   3.8257097E+05   -1.8194943E+00
   1.8035495E-04   3.7937765E+05   -1.8189625E+00
   1.8118785E-04   3.7621190E+05   -1.8184300E+00
   1.8202459E-04   3.7307348E+05   -1.8178968E+00
   1.8286520E-04   3.6996215E+05   -1.8173630E+00
   1.8370969E-04   3.6687768E+05   -1.8168285E+00
   1.8455808E-04   3.6381982E+05   -1.8162934E+00
   1.8541039E-04   3.6078833E+05   -1.8157576E+00
   1.8626663E-04   3.5778299E+05   -1.8152211E+00
   1.8712683E-04   3.5480356E+05   -1.8146840E+00
   1.8799100E-04   3.5184981E+05   -1.8141463E+00
   1.8885917E-04   3.4892152E+05   -1.8136079E+00
   1.8973134E-04   3.4601846E+05   -1.8130689E+00
   1.9060754E-04   3.4314040E+05   -1.8125293E+00
   1.9148778E-04   3.4028713E+05   -1.8119890E+00
   1.9237209E-04   3.3745842E+05   -1.8114482E+00
   1.9326049E-04   3.3465406E+05   -1.8109067E+00
   1.9415299E-04   3.3187384E+05   -1.8103646E+00
   1.9504960E-04   3.2911753E+05   -1.8098219E+00
   1.9595036E-04   3.2638494E+05   -1.8092786E+00
   1.9685528E-04   3.2367584E+05   -1.8087347E+00
   1.9776438E-04   3.2099004E+05   -1.8081902E+00
   1.9867768E-04   3.1832732E+05   -1.8076451E+00
   1.9959519E-04   3.1568748E+05   -1.8070995E+00
   2.0051694E-04   3.1307032E+05   -1.8065533E+00
   2.0144295E-04   3.1047564E+05   -1.8060065E+00
   2.0237324E-04   3.0790324E+05   -1.8054591E+00
   2.0330782E-04   3.0535292E+05   -1.8049112E+00
   2.0424671E-04   3.0282449E+05   -1.8043627E+00
   2.0518995E-04   3.0031776E+05   -1.8038137E+00
   2.0613754E-04   2.9783253E+05   -1.8032641E+00
   2.0708950E-04   2.9536862E+05   -1.8027140E+00
   2.0804586E-04   2.9292583E+05   -1.8021634E+00
   2.0900664E-04   2.9050399E+05   -1.8016122E+00
   2.0997185E-04   2.8810289E+05   -1.8010605E+00
   2.1094152E-04   2.8572237E+05   -1.8005083E+00
   2.1191567E-04   2.8336225E+05   -1.7999556E+00
   2.1289432E-04   2.8102233E+05   -1.7994023E+00
   2.1387749E-04   2.7870244E+05   -1.7988486E+00
   2.1486520E-04   2.7640242E+05   -1.7982944E+00
   2.1585747E-04   2.7412207E+05   -1.7977396E+00
   2.1685432E-04   2.7186123E+05   -1.7971844E+00
   2.1785578E-04   2.6961973E+05   -1.7966287E+00
   2.1886186E-04   2.6739739E+05   -1.7960725E+00
   2.1987259E-04   2.6519405E+05   -1.7955158E+00
   2.2088798E-04   2.6300955E+05   -1.7949587E+00
   2.2190807E-04   2.6084370E+05   -1.7944011E+00
   2.2293286E-04   2.5869636E+05   -1.7938431E+00
   2.2396239E-04   2.5656736E+05   -1.7932846E+00
   2.2499667E-04   2.5445653E+05   -1.7927256E+00
   2.2603573E-04   2.5236371E+05   -1.7921662E+00
   2.2707958E-04   2.5028876E+05   -1.7916064E+00
   2.2812826E-04   2.4823150E+05   -1.7910462E+00
   2.2918178E-04   2.4619179E+05   -1.7904855E+00
   2.3024017E-04   2.4416948E+05   -1.7899244E+00
   2.3130344E-04   2.4216440E+05   -1.7893629E+00
   2.3237162E-04   2.4017640E+05   -1.7888010E+00
   2.3344474E-04   2.3820535E+05   -1.7882387E+00
   2.3452281E-04   2.3625108E+05   -1.7876760E+00
   2.3560586E-04   2.3431346E+05   -1.7871128E+00
   2.3669392E-04   2.3239233E+05   -1.7865494E+00
   2.3778699E-04   2.3048754E+05   -1.7859855E+00
   2.3888512E-04   2.2859897E+05   -1.7854212E+00
   2.3998831E-04   2.2672646E+05   -1.7848566E+00
   2.4109661E-04   2.2486987E+05   -1.7842916E+00
   2.4221001E-04   2.2302907E+05   -1.7837263E+00
   2.4332857E-04   2.2120391E+05   -1.7831606E+00
   2.4445228E-04   2.1939426E+05   -1.7825946E+00
   2.4558119E-04   2.1759998E+05   -1.7820282E+00
   2.4671531E-04   2.1582094E+05   -1.7814615E+00
   2.4785467E-04   2.1405700E+05   -1.7808945E+00
   2.4899928E-04   2.1230804E+05   -1.7803271E+00
   2.5014919E-04   2.1057391E+05   -1.7797594E+00
   2.5130440E-04   2.0885450E+05   -1.7791914E+00
   2.5246495E-04   2.0714967E+05   -1.7786231E+00
   2.5363086E-04   2.0545929E+05   -1.7780545E+00
   2.5480216E-04   2.0378324E+05   -1.7774856E+00
   2.5597886E-04   2.0212140E+05   -1.7769165E+00
   2.5716100E-04   2.0047363E+05   -1.7763470E+00
   2.5834859E-04   1.9883981E+05   -1.7757773E+00
   2.5954168E-04   1.9721983E+05   -1.7752073E+00
   2.6074027E-04   1.9561356E+05   -1.7746370E+00
   2.6194439E-04   1.9402089E+05   -1.7740664E+00
   2.6315408E-04   1.9244168E+05   -1.7734956E+00
   2.6436935E-04   1.9087584E+05   -1.7729246E+00
   2.6559024E-04   1.8932323E+05   -1.7723533E+00
   2.6681676E-04   1.8778374E+05   -1.7717818E+00
   2.6804895E-04   1.8625727E+05   -1.7712101E+00
   2.6928683E-04   1.8474369E+05   -1.7706381E+00
   2.7053042E-04   1.8324289E+05   -1.7700659E+00
   2.7177976E-04   1.8175477E+05   -1.7694935E+00
   2.7303487E-04   1.8027920E+05   -1.7689209E+00
   2.7429577E-04   1.7881609E+05   -1.7683481E+00
   2.7556250E-04   1.7736531E+05   -1.7677751E+00
   2.7683507E-04   1.7592678E+05   -1.7672019E+00
   2.7811353E-04   1.7450037E+05   -1.7666285E+00
   2.7939788E-04   1.7308598E+05   -1.7660550E+00
   2.8068817E-04   1.7168351E+05   -1.7654813E+00
   2.8198442E-04   1.7029286E+05   -1.7649074E+00
   2.8328665E-04   1.6891392E+05   -1.7643333E+00
   2.8459490E-04   1.6754658E+05   -1.7637592E+00
   2.8590919E-04   1.6619076E+05   -1.7631848E+00
   2.8722955E-04   1.6484634E+05   -1.7626103E+00
   2.8855600E-04   1.6351323E+05   -1.7620357E+00
   2.8988859E-04   1.6219133E+05   -1.7614610E+00
   2.9122732E-04   1.6088055E+05   -1.7608861E+00
   2.9257224E-04   1.5958078E+05   -1.7603111E+00
   2.9392337E-04   1.5829193E+05   -1.7597361E+00
   2.9528074E-04   1.5701390E+05   -1.7591609E+00
   2.9664438E-04   1.5574661E+05   -1.7585856E+00
   2.9801431E-04   1.5448995E+05   -1.7580102E+00
   2.9939057E-04   1.5324385E+05   -1.7574347E+00
   3.0077319E-04   1.5200819E+05   -1.7568592E+00
   3.0216219E-04   1.5078290E+05   -1.7562836E+00
   3.0355761E-04   1.4956788E+05   -1.7557079E+00
   3.0495947E-04   1.4836305E+05   -1.7551321E+00
   3.0636780E-04   1.4716831E+05   -1.7545563E+00
   3.0778264E-04   1.4598358E+05   -1.7539805E+00
   3.0920401E-04   1.4480877E+05   -1.7534046E+00
   3.1063195E-04   1.4364380E+05   -1.7528286E+00
   3.1206648E-04   1.4248858E+05   -1.7522527E+00
   3.1350764E-04   1.4134302E+05   -1.7516767E+00
   3.1495545E-04   1.4020704E+05   -1.7511007E+00
   3.1640994E-04   1.3908057E+05   -1.7505247E+00
   3.1787116E-04   1.3796351E+05   -1.7499486E+00
   3.1933912E-04   1.3685579E+05   -1.7493726E+00
   3.2081386E-04   1.3575732E+05   -1.7487966E+00
   3.2229541E-04   1.3466802E+05   -1.7482206E+00
   3.2378381E-04   1.3358782E+05   -1.7476446E+00
   3.2527908E-04   1.3251664E+05   -1.7470687E+00
   3.2678125E-04   1.3145439E+05   -1.7464927E+00
   3.2829036E-04   1.3040100E+05   -1.7459168E+00
   3.2980644E-04   1.2935640E+05   -1.7453410E+00
   3.3132952E-04   1.2832051E+05   -1.7447652E+00
   3.3285963E-04   1.2729325E+05   -1.7441894E+00
   3.3439681E-04   1.2627455E+05   -1.7436137E+00
   3.3594109E-04   1.2526433E+05   -1.7430381E+00
   3.3749250E-04   1.2426253E+05   -1.7424626E+00
   3.3905108E-04   1.2326906E+05   -1.7418871E+00
   3.4061685E-04   1.2228387E+05   -1.7413117E+00
   3.4218986E-04   1.2130686E+05   -1.7407364E+00
   3.4377013E-04   1.2033798E+05   -1.7401612E+00
   3.4535769E-04   1.1937716E+05   -1.7395861E+00
   3.4695259E-04   1.1842432E+05   -1.7390111E+00
   3.4855485E-04   1.1747940E+05   -1.7384363E+00
   3.5016452E-04   1.1654233E+05   -1.7378615E+00
   3.5178161E-04   1.1561303E+05   -1.7372869E+00
   3.5340618E-04   1.1469145E+05   -1.7367124E+00
   3.5503824E-04   1.1377752E+05   -1.7361381E+00
   3.5667785E-04   1.1287117E+05   -1.7355639E+00
   3.5832502E-04   1.1197234E+05   -1.7349899E+00
   3.5997981E-04   1.1108095E+05   -1.7344160E+00
   3.6164223E-04   1.1019696E+05   -1.7338422E+00
   3.6331233E-04   1.0932029E+05   -1.7332687E+00
   3.6499015E-04   1.0845088E+05   -1.7326953E+00
   3.6667571E-04   1.0758866E+05   -1.7321221E+00
   3.6836906E-04   1.0673359E+05   -1.7315491E+00
   3.7007022E-04   1.0588559E+05   -1.7309763E+00
   3.7177925E-04   1.0504460E+05   -1.7304037E+00
   3.7349616E-04   1.0421057E+05   -1.7298313E+00
   3.7522101E-04   1.0338343E+05   -1.7292591E+00
   3.7695382E-04   1.0256313E+05   -1.7286871E+00
   3.7869463E-04   1.0174961E+05   -1.7281154E+00
   3.8044348E-04   1.0094280E+05   -1.7275438E+00
   3.8220041E-04   1.0014266E+05   -1.7269726E+00
   3.8396545E-04   9.9349117E+04   -1.7264015E+00
   3.8573864E-04   9.8562124E+04   -1.7258307E+00
   3.8752002E-04   9.7781622E+04   -1.7252602E+00
   3.8930963E-04   9.7007555E+04   -1.7246899E+00
   3.9110750E-04   9.6239869E+04   -1.7241199E+00
   3.9291368E-04   9.5478509E+04   -1.7235501E+00
   3.9472820E-04   9.4723421E+04   -1.7229807E+00
   3.9655109E-04   9.3974551E+04   -1.7224115E+00
   3.9838241E-04   9.3231846E+04   -1.7218426E+00
   4.0022218E-04   9.2495252E+04   -1.7212740E+00
   4.0207045E-04   9.1764719E+04   -1.7207056E+00
   4.0392725E-04   9.1040195E+04   -1.7201376E+00
   4.0579263E-04   9.0321626E+04   -1.7195700E+00
   4.0766662E-04   8.9608964E+04   -1.7190026E+00
   4.0954927E-04   8.8902157E+04   -1.7184355E+00
   4.1144061E-04   8.8201156E+04   -1.7178688E+00
   4.1334068E-04   8.7505910E+04   -1.7173024E+00
   4.1524953E-04   8.6816371E+04   -1.7167364E+00
   4.1716720E-04   8.6132491E+04   -1.7161707E+00
   4.1909372E-04   8.5454220E+04   -1.7156054E+00
   4.2102914E-04   8.4781511E+04   -1.7150404E+00
   4.2297350E-04   8.4114316E+04   -1.7144757E+00
   4.2492683E-04   8.3452589E+04   -1.7139115E+00
   4.2688919E-04   8.2796283E+04   -1.7133476E+00
   4.2886061E-04   8.2145353E+04   -1.7127841E+00
   4.3084113E-04   8.1499751E+04   -1.7122210E+00
   4.3283080E-04   8.0859432E+04   -1.7116582E+00
   4.3482966E-04   8.0224353E+04   -1.7110959E+00
   4.3683775E-04   7.9594467E+04   -1.7105340E+00
   4.3885511E-04   7.8969732E+04   -1.7099725E+00
   4.4088179E-04   7.8350103E+04   -1.7094114E+00
   4.4291783E-04   7.7735536E+04   -1.7088507E+00
   4.4496327E-04   7.7125989E+04   -1.7082904E+00
   4.4701816E-04   7.6521419E+04   -1.7077306E+00
   4.4908253E-04   7.5921784E+04   -1.7071712E+00
   4.5115644E-04   7.5327042E+04   -1.7066122E+00
   4.5323993E-04   7.4737152E+04   -1.7060537E+00
   4.5533304E-04   7.4152071E+04   -1.7054956E+00
   4.5743582E-04   7.3571760E+04   -1.7049380E+00
   4.5954830E-04   7.2996178E+04   -1.7043809E+00
   4.6167054E-04   7.2425285E+04   -1.7038242E+00
   4.6380259E-04   7.1859041E+04   -1.7032680E+00
   4.6594448E-04   7.1297407E+04   -1.7027123E+00
   4.6809626E-04   7.0740343E+04   -1.7021570E+00
   4.7025797E-04   7.0187811E+04   -1.7016023E+00
   4.7242967E-04   6.9639773E+04   -1.7010480E+00
   4.7461140E-04   6.9096190E+04   -1.7004943E+00
   4.7680321E-04   6.8557025E+04   -1.6999410E+00
   4.7900514E-04   6.8022241E+04   -1.6993883E+00
   4.8121723E-04   6.7491800E+04   -1.6988360E+00
   4.8343954E-04   6.6965666E+04   -1.6982843E+00
   4.8567212E-04   6.6443802E+04   -1.6977331E+00
   4.8791500E-04   6.5926173E+04   -1.6971825E+00
   4.9016825E-04   6.5412741E+04   -1.6966323E+00
   4.9243189E-04   6.4903473E+04   -1.6960827E+00
   4.9470600E-04   6.4398333E+04   -1.6955337E+00
   4.9699060E-04   6.3897286E+04   -1.6949852E+00
   4.9928575E-04   6.3400297E+04   -1.6944373E+00
   5.0159151E-04   6.2907333E+04   -1.6938899E+00
   5.0390791E-04   6.2418358E+04   -1.6933431E+00
   5.0623501E-04   6.1933341E+04   -1.6927968E+00
   5.0857286E-04   6.1452247E+04   -1.6922512E+00
   5.1092150E-04   6.0975043E+04   -1.6917061E+00
   5.1328099E-04   6.0501697E+04   -1.6911616E+00
   5.1565137E-04   6.0032176E+04   -1.6906177E+00
   5.1803270E-04   5.9566448E+04   -1.6900743E+00
   5.2042503E-04   5.9104481E+04   -1.6895316E+00
   5.2282841E-04   5.8646243E+04   -1.6889895E+00
   5.2524289E-04   5.8191704E+04   -1.6884480E+00
   5.2766851E-04   5.7740831E+04   -1.6879071E+00
   5.3010534E-04   5.7293594E+04   -1.6873668E+00
   5.3255342E-04   5.6849963E+04   -1.6868271E+00
   5.3501281E-04   5.6409907E+04   -1.6862881E+00
   5.3748356E-04   5.5973396E+04   -1.6857497E+00
   5.3996571E-04   5.5540400E+04   -1.6852119E+00
   5.4245933E-04   5.5110891E+04   -1.6846748E+00
   5.4496446E-04   5.4684839E+04   -1.6841383E+00
   5.4748117E-04   5.4262214E+04   -1.6836025E+00
   5.5000949E-04   5.3842989E+04   -1.6830673E+00
   5.5254949E-04   5.3427134E+04   -1.6825328E+00
   5.5510123E-04   5.3014621E+04   -1.6819989E+00
   5.5766474E-04   5.2605423E+04   -1.6814657E+00
   5.6024010E-04   5.2199511E+04   -1.6809332E+00
   5.6282734E-04   5.1796858E+04   -1.6804014E+00
   5.6542654E-04   5.1397437E+04   -1.6798702E+00
   5.6803774E-04   5.1001221E+04   -1.6793398E+00
   5.7066099E-04   5.0608183E+04   -1.6788100E+00
   5.7329637E-04   5.0218296E+04   -1.6782809E+00
   5.7594391E-04   4.9831534E+04   -1.6777525E+00
   5.7860368E-04   4.9447872E+04   -1.6772248E+00
   5.8127573E-04   4.9067283E+04   -1.6766978E+00
   5.8396012E-04   4.8689741E+04   -1.6761715E+00
   5.8665691E-04   4.8315221E+04   -1.6756460E+00
   5.8936616E-04   4.7943697E+04   -1.6751211E+00
   5.9208791E-04   4.7575146E+04   -1.6745970E+00
   5.9482223E-04   4.7209542E+04   -1.6740736E+00
   5.9756919E-04   4.6846860E+04   -1.6735509E+00
   6.0032882E-04   4.6487076E+04   -1.6730290E+00
   6.0310120E-04   4.6130166E+04   -1.6725078E+00
   6.0588639E-04   4.5776107E+04   -1.6719874E+00
   6.0868443E-04   4.5424873E+04   -1.6714677E+00
   6.1149540E-04   4.5076443E+04   -1.6709487E+00
   6.1431935E-04   4.4730792E+04   -1.6704305E+00
   6.1715634E-04   4.4387897E+04   -1.6699131E+00
   6.2000644E-04   4.4047736E+04   -1.6693964E+00
   6.2286969E-04   4.3710286E+04   -1.6688805E+00
