#        a       HoverH0(a)       dlogHdloga_of_a(a)
   1.0000000E-04   1.0189116E+06   -1.8757877E+00
   1.0046181E-04   1.0101445E+06   -1.8753571E+00
   1.0092575E-04   1.0014548E+06   -1.8749254E+00
   1.0139184E-04   9.9284180E+05   -1.8744928E+00
   1.0186008E-04   9.8430486E+05   -1.8740592E+00
   1.0233048E-04   9.7584327E+05   -1.8736245E+00
   1.0280305E-04   9.6745635E+05   -1.8731889E+00
   1.0327781E-04   9.5914345E+05   -1.8727523E+00
   1.0375475E-04   9.5090389E+05   -1.8723147E+00
   1.0423390E-04   9.4273702E+05   -1.8718762E+00
   1.0471527E-04   9.3464218E+05   -1.8714366E+00
   1.0519885E-04   9.2661872E+05   -1.8709960E+00
   1.0568467E-04   9.1866601E+05   -1.8705545E+00
   1.0617274E-04   9.1078340E+05   -1.8701120E+00
   1.0666305E-04   9.0297028E+05   -1.8696685E+00
   1.0715563E-04   8.9522602E+05   -1.8692240E+00
   1.0765049E-04   8.8754999E+05   -1.8687786E+00
   1.0814763E-04   8.7994159E+05   -1.8683321E+00
   1.0864707E-04   8.7240020E+05   -1.8678847E+00
   1.0914881E-04   8.6492523E+05   -1.8674364E+00
   1.0965287E-04   8.5751609E+05   -1.8669870E+00
   1.1015926E-04   8.5017217E+05   -1.8665367E+00
   1.1066799E-04   8.4289290E+05   -1.8660854E+00
   1.1117906E-04   8.3567769E+05   -1.8656332E+00
   1.1169250E-04   8.2852598E+05   -1.8651799E+00
   1.1220831E-04   8.2143718E+05   -1.8647257E+00
   1.1272650E-04   8.1441074E+05   -1.8642706E+00
   1.1324708E-04   8.0744611E+05   -1.8638145E+00
   1.1377007E-04   8.0054271E+05   -1.8633574E+00
   1.1429547E-04   7.9370001E+05   -1.8628994E+00
   1.1482330E-04   7.8691747E+05   -1.8624404E+00
   1.1535356E-04   7.8019453E+05   -1.8619805E+00
   1.1588628E-04   7.7353067E+05   -1.8615197E+00
   1.1642145E-04   7.6692536E+05   -1.8610578E+00
   1.1695910E-04   7.6037807E+05   -1.8605951E+00
   1.1749923E-04   7.5388829E+05   -1.8601313E+00
   1.1804185E-04   7.4745549E+05   -1.8596667E+00
   1.1858698E-04   7.4107917E+05   -1.8592011E+00
   1.1913463E-04   7.3475883E+05   -1.8587346E+00
   1.1968481E-04   7.2849395E+05   -1.8582671E+00
   1.2023752E-04   7.2228405E+05   -1.8577987E+00
   1.2079279E-04   7.1612863E+05   -1.8573294E+00
   1.2135063E-04   7.1002721E+05   -1.8568591E+00
   1.2191104E-04   7.0397930E+05   -1.8563879E+00
   1.2247403E-04   6.9798442E+05   -1.8559158E+00
   1.2303963E-04   6.9204210E+05   -1.8554427E+00
   1.2360784E-04   6.8615186E+05   -1.8549688E+00
   1.2417868E-04   6.8031325E+05   -1.8544939E+00
   1.2475215E-04   6.7452579E+05   -1.8540181E+00
   1.2532826E-04   6.6878904E+05   -1.8535414E+00
   1.2590704E-04   6.6310253E+05   -1.8530638E+00
   1.2648850E-04   6.5746582E+05   -1.8525853E+00
   1.2707263E-04   6.5187847E+05   -1.8521058E+00
   1.2765947E-04   6.4634003E+05   -1.8516255E+00
   1.2824901E-04   6.4085006E+05   -1.8511443E+00
   1.2884128E-04   6.3540814E+05   -1.8506621E+00
   1.2943628E-04   6.3001383E+05   -1.8501791E+00
   1.3003403E-04   6.2466670E+05   -1.8496952E+00
   1.3063454E-04   6.1936634E+05   -1.8492104E+00
   1.3123783E-04   6.1411233E+05   -1.8487247E+00
   1.3184390E-04   6.0890425E+05   -1.8482381E+00
   1.3245277E-04   6.0374169E+05   -1.8477506E+00
   1.3306445E-04   5.9862425E+05   -1.8472623E+00
   1.3367895E-04   5.9355152E+05   -1.8467730E+00
   1.3429630E-04   5.8852310E+05   -1.8462829E+00
   1.3491649E-04   5.8353861E+05   -1.8457920E+00
   1.3553955E-04   5.7859764E+05   -1.8453002E+00
   1.3616548E-04   5.7369980E+05   -1.8448075E+00
   1.3679431E-04   5.6884472E+05   -1.8443139E+00
   1.3742604E-04   5.6403202E+05   -1.8438195E+00
   1.3806069E-04   5.5926130E+05   -1.8433242E+00
   1.3869827E-04   5.5453220E+05   -1.8428281E+00
   1.3933879E-04   5.4984435E+05   -1.8423311E+00
   1.3998227E-04   5.4519738E+05   -1.8418333E+00
   1.4062872E-04   5.4059093E+05   -1.8413346E+00
   1.4127816E-04   5.3602462E+05   -1.8408351E+00
   1.4193060E-04   5.3149811E+05   -1.8403348E+00
   1.4258605E-04   5.2701105E+05   -1.8398336E+00
   1.4324453E-04   5.2256307E+05   -1.8393316E+00
   1.4390605E-04   5.1815383E+05   -1.8388287E+00
   1.4457062E-04   5.1378299E+05   -1.8383251E+00
   1.4523826E-04   5.0945020E+05   -1.8378206E+00
   1.4590899E-04   5.0515512E+05   -1.8373153E+00
   1.4658281E-04   5.0089742E+05   -1.8368092E+00
   1.4725974E-04   4.9667677E+05   -1.8363023E+00
   1.4793981E-04   4.9249283E+05   -1.8357945E+00
   1.4862301E-04   4.8834529E+05   -1.8352860E+00
   1.4930936E-04   4.8423380E+05   -1.8347767E+00
   1.4999889E-04   4.8015806E+05   -1.8342665E+00
   1.5069160E-04   4.7611774E+05   -1.8337556E+00
   1.5138751E-04   4.7211253E+05   -1.8332439E+00
   1.5208663E-04   4.6814212E+05   -1.8327314E+00
   1.5278899E-04   4.6420620E+05   -1.8322181E+00
   1.5349458E-04   4.6030446E+05   -1.8317041E+00
   1.5420343E-04   4.5643659E+05   -1.8311892E+00
   1.5491556E-04   4.5260231E+05   -1.8306736E+00
   1.5563098E-04   4.4880129E+05   -1.8301572E+00
   1.5634970E-04   4.4503326E+05   -1.8296401E+00
   1.5707174E-04   4.4129792E+05   -1.8291222E+00
   1.5779711E-04   4.3759497E+05   -1.8286036E+00
   1.5852584E-04   4.3392414E+05   -1.8280842E+00
   1.5925792E-04   4.3028512E+05   -1.8275640E+00
   1.5999339E-04   4.2667765E+05   -1.8270431E+00
   1.6073226E-04   4.2310144E+05   -1.8265215E+00
   1.6147454E-04   4.1955621E+05   -1.8259991E+00
   1.6222024E-04   4.1604169E+05   -1.8254760E+00
   1.6296939E-04   4.1255760E+05   -1.8249522E+00
   1.6372200E-04   4.0910369E+05   -1.8244276E+00
   1.6447809E-04   4.0567966E+05   -1.8239023E+00
   1.6523767E-04   4.0228527E+05   -1.8233763E+00
   1.6600075E-04   3.9892025E+05   -1.8228496E+00
   1.6676736E-04   3.9558434E+05   -1.8223222E+00
   1.6753751E-04   3.9227728E+05   -1.8217941E+00
   1.6831122E-04   3.8899881E+05   -1.8212653E+00
   1.6908849E-04   3.8574868E+05   -1.8207357E+00
   1.6986936E-04   3.8252664E+05   -1.8202055E+00
   1.7065384E-04   3.7933244E+05   -1.8196747E+00
   1.7144193E-04   3.7616583E+05   -1.8191431E+00
   1.7223367E-04   3.7302657E+05   -1.8186108E+00
   1.7302906E-04   3.6991442E+05   -1.8180779E+00
   1.7382813E-04   3.6682913E+05   -1.8175443E+00
   1.7463089E-04   3.6377048E+05   -1.8170100E+00
   1.7543735E-04   3.6073821E+05   -1.8164751E+00
   1.7624754E-04   3.5773210E+05   -1.8159395E+00
   1.7706147E-04   3.5475192E+05   -1.8154033E+00
   1.7787916E-04   3.5179743E+05   -1.8148664E+00
   1.7870062E-04   3.4886842E+05   -1.8143289E+00
   1.7952588E-04   3.4596465E+05   -1.8137908E+00
   1.8035495E-04   3.4308590E+05   -1.8132520E+00
   1.8118785E-04   3.4023194E+05   -1.8127126E+00
   1.8202459E-04   3.3740257E+05   -1.8121725E+00
   1.8286520E-04   3.3459756E+05   -1.8116319E+00
   1.8370969E-04   3.3181670E+05   -1.8110906E+00
   1.8455808E-04   3.2905977E+05   -1.8105487E+00
   1.8541039E-04   3.2632656E+05   -1.8100062E+00
   1.8626663E-04   3.2361686E+05   -1.8094631E+00
   1.8712683E-04   3.2093047E+05   -1.8089194E+00
   1.8799100E-04   3.1826717E+05   -1.8083752E+00
   1.8885917E-04   3.1562677E+05   -1.8078303E+00
   1.8973134E-04   3.1300906E+05   -1.8072848E+00
   1.9060754E-04   3.1041384E+05   -1.8067388E+00
   1.9148778E-04   3.0784091E+05   -1.8061922E+00
   1.9237209E-04   3.0529008E+05   -1.8056451E+00
   1.9326049E-04   3.0276115E+05   -1.8050973E+00
   1.9415299E-04   3.0025392E+05   -1.8045491E+00
   1.9504960E-04   2.9776821E+05   -1.8040002E+00
   1.9595036E-04   2.9530383E+05   -1.8034509E+00
   1.9685528E-04   2.9286058E+05   -1.8029009E+00
   1.9776438E-04   2.9043829E+05   -1.8023505E+00
   1.9867768E-04   2.8803676E+05   -1.8017995E+00
   1.9959519E-04   2.8565581E+05   -1.8012480E+00
   2.0051694E-04   2.8329527E+05   -1.8006959E+00
   2.0144295E-04   2.8095494E+05   -1.8001434E+00
   2.0237324E-04   2.7863466E+05   -1.7995903E+00
   2.0330782E-04   2.7633425E+05   -1.7990368E+00
   2.0424671E-04   2.7405353E+05   -1.7984827E+00
   2.0518995E-04   2.7179232E+05   -1.7979281E+00
   2.0613754E-04   2.6955046E+05   -1.7973731E+00
   2.0708950E-04   2.6732778E+05   -1.7968175E+00
   2.0804586E-04   2.6512411E+05   -1.7962615E+00
   2.0900664E-04   2.6293927E+05   -1.7957050E+00
   2.0997185E-04   2.6077311E+05   -1.7951481E+00
   2.1094152E-04   2.5862546E+05   -1.7945906E+00
   2.1191567E-04   2.5649615E+05   -1.7940327E+00
   2.1289432E-04   2.5438503E+05   -1.7934744E+00
   2.1387749E-04   2.5229194E+05   -1.7929156E+00
   2.1486520E-04   2.5021671E+05   -1.7923564E+00
   2.1585747E-04   2.4815919E+05   -1.7917967E+00
   2.1685432E-04   2.4611922E+05   -1.7912366E+00
   2.1785578E-04   2.4409665E+05   -1.7906761E+00
   2.1886186E-04   2.4209133E+05   -1.7901151E+00
   2.1987259E-04   2.4010311E+05   -1.7895538E+00
   2.2088798E-04   2.3813183E+05   -1.7889920E+00
   2.2190807E-04   2.3617735E+05   -1.7884298E+00
   2.2293286E-04   2.3423951E+05   -1.7878672E+00
   2.2396239E-04   2.3231818E+05   -1.7873043E+00
   2.2499667E-04   2.3041320E+05   -1.7867409E+00
   2.2603573E-04   2.2852444E+05   -1.7861772E+00
   2.2707958E-04   2.2665175E+05   -1.7856131E+00
   2.2812826E-04   2.2479499E+05   -1.7850486E+00
   2.2918178E-04   2.2295402E+05   -1.7844837E+00
   2.3024017E-04   2.2112871E+05   -1.7839185E+00
   2.3130344E-04   2.1931890E+05   -1.7833530E+00
   2.3237162E-04   2.1752448E+05   -1.7827871E+00
   2.3344474E-04   2.1574530E+05   -1.7822208E+00
   2.3452281E-04   2.1398124E+05   -1.7816542E+00
   2.3560586E-04   2.1223215E+05   -1.7810873E+00
   2.3669392E-04   2.1049791E+05   -1.7805200E+00
   2.3778699E-04   2.0877838E+05   -1.7799525E+00
   2.3888512E-04   2.0707345E+05   -1.7793846E+00
   2.3998831E-04   2.0538297E+05   -1.7788164E+00
   2.4109661E-04   2.0370683E+05   -1.7782479E+00
   2.4221001E-04   2.0204489E+05   -1.7776791E+00
   2.4332857E-04   2.0039704E+05   -1.7771101E+00
   2.4445228E-04   1.9876316E+05   -1.7765407E+00
   2.4558119E-04   1.9714311E+05   -1.7759711E+00
   2.4671531E-04   1.9553677E+05   -1.7754011E+00
   2.4785467E-04   1.9394404E+05   -1.7748310E+00
   2.4899928E-04   1.9236478E+05   -1.7742605E+00
   2.5014919E-04   1.9079889E+05   -1.7736898E+00
   2.5130440E-04   1.8924624E+05   -1.7731189E+00
   2.5246495E-04   1.8770672E+05   -1.7725477E+00
   2.5363086E-04   1.8618021E+05   -1.7719762E+00
   2.5480216E-04   1.8466661E+05   -1.7714046E+00
   2.5597886E-04   1.8316579E+05   -1.7708327E+00
   2.5716100E-04   1.8167765E+05   -1.7702606E+00
   2.5834859E-04   1.8020207E+05   -1.7696883E+00
   2.5954168E-04   1.7873895E+05   -1.7691157E+00
   2.6074027E-04   1.7728818E+05   -1.7685430E+00
   2.6194439E-04   1.7584964E+05   -1.7679701E+00
   2.6315408E-04   1.7442324E+05   -1.7673970E+00
   2.6436935E-04   1.7300887E+05   -1.7668237E+00
   2.6559024E-04   1.7160642E+05   -1.7662502E+00
   2.6681676E-04   1.7021579E+05   -1.7656765E+00
   2.6804895E-04   1.6883687E+05   -1.7651027E+00
   2.6928683E-04   1.6746957E+05   -1.7645287E+00
   2.7053042E-04   1.6611377E+05   -1.7639546E+00
   2.7177976E-04   1.6476939E+05   -1.7633803E+00
   2.7303487E-04   1.6343633E+05   -1.7628059E+00
   2.7429577E-04   1.6211448E+05   -1.7622313E+00
   2.7556250E-04   1.6080374E+05   -1.7616566E+00
   2.7683507E-04   1.5950402E+05   -1.7610818E+00
   2.7811353E-04   1.5821523E+05   -1.7605069E+00
   2.7939788E-04   1.5693727E+05   -1.7599318E+00
   2.8068817E-04   1.5567004E+05   -1.7593567E+00
   2.8198442E-04   1.5441346E+05   -1.7587814E+00
   2.8328665E-04   1.5316742E+05   -1.7582061E+00
   2.8459490E-04   1.5193184E+05   -1.7576307E+00
   2.8590919E-04   1.5070663E+05   -1.7570552E+00
   2.8722955E-04   1.4949170E+05   -1.7564796E+00
   2.8855600E-04   1.4828695E+05   -1.7559039E+00
   2.8988859E-04   1.4709230E+05   -1.7553282E+00
   2.9122732E-04   1.4590766E+05   -1.7547524E+00
   2.9257224E-04   1.4473295E+05   -1.7541766E+00
   2.9392337E-04   1.4356808E+05   -1.7536007E+00
   2.9528074E-04   1.4241296E+05   -1.7530248E+00
   2.9664438E-04   1.4126751E+05   -1.7524489E+00
   2.9801431E-04   1.4013164E+05   -1.7518729E+00
   2.9939057E-04   1.3900527E+05   -1.7512969E+00
   3.0077319E-04   1.3788833E+05   -1.7507209E+00
   3.0216219E-04   1.3678072E+05   -1.7501449E+00
   3.0355761E-04   1.3568237E+05   -1.7495689E+00
   3.0495947E-04   1.3459320E+05   -1.7489928E+00
   3.0636780E-04   1.3351312E+05   -1.7484168E+00
   3.0778264E-04   1.3244207E+05   -1.7478409E+00
   3.0920401E-04   1.3137995E+05   -1.7472649E+00
   3.1063195E-04   1.3032670E+05   -1.7466890E+00
   3.1206648E-04   1.2928223E+05   -1.7461131E+00
   3.1350764E-04   1.2824648E+05   -1.7455372E+00
   3.1495545E-04   1.2721936E+05   -1.7449614E+00
   3.1640994E-04   1.2620080E+05   -1.7443856E+00
   3.1787116E-04   1.2519073E+05   -1.7438099E+00
   3.1933912E-04   1.2418907E+05   -1.7432343E+00
   3.2081386E-04   1.2319576E+05   -1.7426587E+00
   3.2229541E-04   1.2221071E+05   -1.7420832E+00
   3.2378381E-04   1.2123386E+05   -1.7415078E+00
   3.2527908E-04   1.2026514E+05   -1.7409325E+00
   3.2678125E-04   1.1930447E+05   -1.7403573E+00
   3.2829036E-04   1.1835179E+05   -1.7397822E+00
   3.2980644E-04   1.1740703E+05   -1.7392072E+00
   3.3132952E-04   1.1647012E+05   -1.7386323E+00
   3.3285963E-04   1.1554099E+05   -1.7380575E+00
   3.3439681E-04   1.1461958E+05   -1.7374829E+00
   3.3594109E-04   1.1370582E+05   -1.7369083E+00
   3.3749250E-04   1.1279964E+05   -1.7363340E+00
   3.3905108E-04   1.1190098E+05   -1.7357597E+00
   3.4061685E-04   1.1100977E+05   -1.7351856E+00
   3.4218986E-04   1.1012595E+05   -1.7346117E+00
   3.4377013E-04   1.0924946E+05   -1.7340379E+00
   3.4535769E-04   1.0838022E+05   -1.7334643E+00
   3.4695259E-04   1.0751819E+05   -1.7328909E+00
   3.4855485E-04   1.0666330E+05   -1.7323177E+00
   3.5016452E-04   1.0581548E+05   -1.7317446E+00
   3.5178161E-04   1.0497468E+05   -1.7311717E+00
   3.5340618E-04   1.0414084E+05   -1.7305991E+00
   3.5503824E-04   1.0331389E+05   -1.7300266E+00
   3.5667785E-04   1.0249378E+05   -1.7294543E+00
   3.5832502E-04   1.0168044E+05   -1.7288823E+00
   3.5997981E-04   1.0087383E+05   -1.7283105E+00
   3.6164223E-04   1.0007388E+05   -1.7277389E+00
   3.6331233E-04   9.9280532E+04   -1.7271675E+00
   3.6499015E-04   9.8493735E+04   -1.7265964E+00
   3.6667571E-04   9.7713429E+04   -1.7260255E+00
   3.6836906E-04   9.6939561E+04   -1.7254549E+00
   3.7007022E-04   9.6172074E+04   -1.7248846E+00
   3.7177925E-04   9.5410915E+04   -1.7243145E+00
   3.7349616E-04   9.4656028E+04   -1.7237446E+00
   3.7522101E-04   9.3907360E+04   -1.7231751E+00
   3.7695382E-04   9.3164858E+04   -1.7226058E+00
   3.7869463E-04   9.2428469E+04   -1.7220368E+00
   3.8044348E-04   9.1698141E+04   -1.7214681E+00
   3.8220041E-04   9.0973823E+04   -1.7208997E+00
   3.8396545E-04   9.0255461E+04   -1.7203316E+00
   3.8573864E-04   8.9543007E+04   -1.7197638E+00
   3.8752002E-04   8.8836409E+04   -1.7191964E+00
   3.8930963E-04   8.8135617E+04   -1.7186292E+00
   3.9110750E-04   8.7440582E+04   -1.7180624E+00
   3.9291368E-04   8.6751254E+04   -1.7174959E+00
   3.9472820E-04   8.6067585E+04   -1.7169298E+00
   3.9655109E-04   8.5389527E+04   -1.7163640E+00
   3.9838241E-04   8.4717031E+04   -1.7157985E+00
   4.0022218E-04   8.4050050E+04   -1.7152334E+00
   4.0207045E-04   8.3388538E+04   -1.7146687E+00
   4.0392725E-04   8.2732448E+04   -1.7141043E+00
   4.0579263E-04   8.2081732E+04   -1.7135403E+00
   4.0766662E-04   8.1436347E+04   -1.7129767E+00
   4.0954927E-04   8.0796245E+04   -1.7124135E+00
   4.1144061E-04   8.0161383E+04   -1.7118506E+00
   4.1334068E-04   7.9531716E+04   -1.7112882E+00
   4.1524953E-04   7.8907199E+04   -1.7107261E+00
   4.1716720E-04   7.8287788E+04   -1.7101645E+00
   4.1909372E-04   7.7673441E+04   -1.7096032E+00
   4.2102914E-04   7.7064114E+04   -1.7090424E+00
   4.2297350E-04   7.6459764E+04   -1.7084820E+00
   4.2492683E-04   7.5860350E+04   -1.7079220E+00
   4.2688919E-04   7.5265829E+04   -1.7073625E+00
   4.2886061E-04   7.4676160E+04   -1.7068034E+00
   4.3084113E-04   7.4091301E+04   -1.7062447E+00
   4.3283080E-04   7.3511212E+04   -1.7056865E+00
   4.3482966E-04   7.2935852E+04   -1.7051288E+00
   4.3683775E-04   7.2365182E+04   -1.7045715E+00
   4.3885511E-04   7.1799160E+04   -1.7040147E+00
   4.4088179E-04   7.1237749E+04   -1.7034583E+00
   4.4291783E-04   7.0680908E+04   -1.7029025E+00
   4.4496327E-04   7.0128600E+04   -1.7023471E+00
   4.4701816E-04   6.9580785E+04   -1.7017922E+00
   4.4908253E-04   6.9037427E+04   -1.7012377E+00
   4.5115644E-04   6.8498486E+04   -1.7006838E+00
   4.5323993E-04   6.7963926E+04   -1.7001304E+00
   4.5533304E-04   6.7433709E+04   -1.6995775E+00
   4.5743582E-04   6.6907799E+04   -1.6990251E+00
   4.5954830E-04   6.6386160E+04   -1.6984732E+00
   4.6167054E-04   6.5868755E+04   -1.6979219E+00
   4.6380259E-04   6.5355548E+04   -1.6973710E+00
   4.6594448E-04   6.4846505E+04   -1.6968207E+00
   4.6809626E-04   6.4341589E+04   -1.6962710E+00
   4.7025797E-04   6.3840767E+04   -1.6957218E+00
   4.7242967E-04   6.3344003E+04   -1.6951731E+00
   4.7461140E-04   6.2851263E+04   -1.6946250E+00
   4.7680321E-04   6.2362514E+04   -1.6940774E+00
   4.7900514E-04   6.1877721E+04   -1.6935304E+00
   4.8121723E-04   6.1396851E+04   -1.6929840E+00
   4.8343954E-04   6.0919872E+04   -1.6924382E+00
   4.8567212E-04   6.0446751E+04   -1.6918929E+00
   4.8791500E-04   5.9977454E+04   -1.6913482E+00
   4.9016825E-04   5.9511951E+04   -1.6908041E+00
   4.9243189E-04   5.9050208E+04   -1.6902606E+00
   4.9470600E-04   5.8592194E+04   -1.6897177E+00
   4.9699060E-04   5.8137878E+04   -1.6891754E+00
   4.9928575E-04   5.7687229E+04   -1.6886337E+00
   5.0159151E-04   5.7240216E+04   -1.6880926E+00
   5.0390791E-04   5.6796808E+04   -1.6875521E+00
   5.0623501E-04   5.6356975E+04   -1.6870122E+00
   5.0857286E-04   5.5920688E+04   -1.6864730E+00
   5.1092150E-04   5.5487915E+04   -1.6859344E+00
   5.1328099E-04   5.5058629E+04   -1.6853964E+00
   5.1565137E-04   5.4632799E+04   -1.6848591E+00
   5.1803270E-04   5.4210397E+04   -1.6843224E+00
   5.2042503E-04   5.3791393E+04   -1.6837864E+00
   5.2282841E-04   5.3375760E+04   -1.6832510E+00
   5.2524289E-04   5.2963469E+04   -1.6827163E+00
   5.2766851E-04   5.2554491E+04   -1.6821822E+00
   5.3010534E-04   5.2148801E+04   -1.6816488E+00
   5.3255342E-04   5.1746368E+04   -1.6811161E+00
   5.3501281E-04   5.1347168E+04   -1.6805840E+00
   5.3748356E-04   5.0951172E+04   -1.6800527E+00
   5.3996571E-04   5.0558353E+04   -1.6795220E+00
   5.4245933E-04   5.0168686E+04   -1.6789920E+00
   5.4496446E-04   4.9782144E+04   -1.6784626E+00
   5.4748117E-04   4.9398700E+04   -1.6779340E+00
   5.5000949E-04   4.9018329E+04   -1.6774061E+00
   5.5254949E-04   4.8641005E+04   -1.6768789E+00
   5.5510123E-04   4.8266703E+04   -1.6763524E+00
   5.5766474E-04   4.7895397E+04   -1.6758266E+00
   5.6024010E-04   4.7527062E+04   -1.6753015E+00
   5.6282734E-04   4.7161674E+04   -1.6747772E+00
   5.6542654E-04   4.6799209E+04   -1.6742536E+00
   5.6803774E-04   4.6439641E+04   -1.6737307E+00
   5.7066099E-04   4.6082946E+04   -1.6732085E+00
   5.7329637E-04   4.5729101E+04   -1.6726871E+00
   5.7594391E-04   4.5378082E+04   -1.6721664E+00
   5.7860368E-04   4.5029866E+04   -1.6716465E+00
   5.8127573E-04   4.4684429E+04   -1.6711273E+00
   5.8396012E-04   4.4341747E+04   -1.6706088E+00
   5.8665691E-04   4.4001799E+04   -1.6700911E+00
   5.8936616E-04   4.3664561E+04   -1.6695742E+00
   5.9208791E-04   4.3330010E+04   -1.6690581E+00
   5.9482223E-04   4.2998126E+04   -1.6685427E+00
   5.9756919E-04   4.2668884E+04   -1.6680281E+00
   6.0032882E-04   4.2342264E+04   -1.6675142E+00
   6.0310120E-04   4.2018243E+04   -1.6670012E+00
   6.0588639E-04   4.1696800E+04   -1.6664889E+00
   6.0868443E-04   4.1377914E+04   -1.6659774E+00
   6.1149540E-04   4.1061564E+04   -1.6654667E+00
   6.1431935E-04   4.0747728E+04   -1.6649568E+00
   6.1715634E-04   4.0436385E+04   -1.6644477E+00
   6.2000644E-04   4.0127516E+04   -1.6639394E+00
   6.2286969E-04   3.9821099E+04   -1.6634319E+00
