#        a       HoverH0(a)       dlogHdloga_of_a(a)
   1.0000000E-04   1.0652332E+06   -1.8556847E+00
   1.0046181E-04   1.0561654E+06   -1.8552113E+00
   1.0092575E-04   1.0471771E+06   -1.8547368E+00
   1.0139184E-04   1.0382676E+06   -1.8542615E+00
   1.0186008E-04   1.0294361E+06   -1.8537853E+00
   1.0233048E-04   1.0206819E+06   -1.8533081E+00
   1.0280305E-04   1.0120045E+06   -1.8528301E+00
   1.0327781E-04   1.0034030E+06   -1.8523511E+00
   1.0375475E-04   9.9487686E+05   -1.8518713E+00
   1.0423390E-04   9.8642533E+05   -1.8513905E+00
   1.0471527E-04   9.7804777E+05   -1.8509088E+00
   1.0519885E-04   9.6974350E+05   -1.8504263E+00
   1.0568467E-04   9.6151189E+05   -1.8499428E+00
   1.0617274E-04   9.5335227E+05   -1.8494585E+00
   1.0666305E-04   9.4526401E+05   -1.8489732E+00
   1.0715563E-04   9.3724647E+05   -1.8484871E+00
   1.0765049E-04   9.2929902E+05   -1.8480001E+00
   1.0814763E-04   9.2142102E+05   -1.8475122E+00
   1.0864707E-04   9.1361187E+05   -1.8470234E+00
   1.0914881E-04   9.0587094E+05   -1.8465338E+00
   1.0965287E-04   8.9819763E+05   -1.8460433E+00
   1.1015926E-04   8.9059133E+05   -1.8455519E+00
   1.1066799E-04   8.8305144E+05   -1.8450597E+00
   1.1117906E-04   8.7557738E+05   -1.8445665E+00
   1.1169250E-04   8.6816855E+05   -1.8440726E+00
   1.1220831E-04   8.6082437E+05   -1.8435777E+00
   1.1272650E-04   8.5354426E+05   -1.8430821E+00
   1.1324708E-04   8.4632766E+05   -1.8425855E+00
   1.1377007E-04   8.3917400E+05   -1.8420881E+00
   1.1429547E-04   8.3208271E+05   -1.8415899E+00
   1.1482330E-04   8.2505324E+05   -1.8410908E+00
   1.1535356E-04   8.1808504E+05   -1.8405909E+00
   1.1588628E-04   8.1117756E+05   -1.8400902E+00
   1.1642145E-04   8.0433026E+05   -1.8395886E+00
   1.1695910E-04   7.9754261E+05   -1.8390862E+00
   1.1749923E-04   7.9081407E+05   -1.8385830E+00
   1.1804185E-04   7.8414411E+05   -1.8380789E+00
   1.1858698E-04   7.7753222E+05   -1.8375741E+00
   1.1913463E-04   7.7097787E+05   -1.8370684E+00
   1.1968481E-04   7.6448055E+05   -1.8365619E+00
   1.2023752E-04   7.5803976E+05   -1.8360546E+00
   1.2079279E-04   7.5165500E+05   -1.8355465E+00
   1.2135063E-04   7.4532576E+05   -1.8350375E+00
   1.2191104E-04   7.3905155E+05   -1.8345278E+00
   1.2247403E-04   7.3283187E+05   -1.8340173E+00
   1.2303963E-04   7.2666625E+05   -1.8335060E+00
   1.2360784E-04   7.2055421E+05   -1.8329939E+00
   1.2417868E-04   7.1449526E+05   -1.8324811E+00
   1.2475215E-04   7.0848893E+05   -1.8319674E+00
   1.2532826E-04   7.0253476E+05   -1.8314530E+00
   1.2590704E-04   6.9663228E+05   -1.8309378E+00
   1.2648850E-04   6.9078103E+05   -1.8304218E+00
   1.2707263E-04   6.8498055E+05   -1.8299051E+00
   1.2765947E-04   6.7923040E+05   -1.8293876E+00
   1.2824901E-04   6.7353013E+05   -1.8288693E+00
   1.2884128E-04   6.6787930E+05   -1.8283503E+00
   1.2943628E-04   6.6227746E+05   -1.8278305E+00
   1.3003403E-04   6.5672418E+05   -1.8273100E+00
   1.3063454E-04   6.5121902E+05   -1.8267888E+00
   1.3123783E-04   6.4576157E+05   -1.8262668E+00
   1.3184390E-04   6.4035139E+05   -1.8257441E+00
   1.3245277E-04   6.3498807E+05   -1.8252206E+00
   1.3306445E-04   6.2967119E+05   -1.8246965E+00
   1.3367895E-04   6.2440034E+05   -1.8241716E+00
   1.3429630E-04   6.1917510E+05   -1.8236459E+00
   1.3491649E-04   6.1399509E+05   -1.8231196E+00
   1.3553955E-04   6.0885988E+05   -1.8225926E+00
   1.3616548E-04   6.0376909E+05   -1.8220648E+00
   1.3679431E-04   5.9872233E+05   -1.8215364E+00
   1.3742604E-04   5.9371920E+05   -1.8210072E+00
   1.3806069E-04   5.8875931E+05   -1.8204774E+00
   1.3869827E-04   5.8384228E+05   -1.8199468E+00
   1.3933879E-04   5.7896773E+05   -1.8194156E+00
   1.3998227E-04   5.7413528E+05   -1.8188837E+00
   1.4062872E-04   5.6934457E+05   -1.8183512E+00
   1.4127816E-04   5.6459522E+05   -1.8178179E+00
   1.4193060E-04   5.5988686E+05   -1.8172840E+00
   1.4258605E-04   5.5521913E+05   -1.8167494E+00
   1.4324453E-04   5.5059167E+05   -1.8162142E+00
   1.4390605E-04   5.4600413E+05   -1.8156783E+00
   1.4457062E-04   5.4145615E+05   -1.8151418E+00
   1.4523826E-04   5.3694738E+05   -1.8146046E+00
   1.4590899E-04   5.3247748E+05   -1.8140668E+00
   1.4658281E-04   5.2804610E+05   -1.8135284E+00
   1.4725974E-04   5.2365289E+05   -1.8129893E+00
   1.4793981E-04   5.1929752E+05   -1.8124496E+00
   1.4862301E-04   5.1497966E+05   -1.8119092E+00
   1.4930936E-04   5.1069898E+05   -1.8113683E+00
   1.4999889E-04   5.0645514E+05   -1.8108267E+00
   1.5069160E-04   5.0224782E+05   -1.8102846E+00
   1.5138751E-04   4.9807669E+05   -1.8097418E+00
   1.5208663E-04   4.9394145E+05   -1.8091984E+00
   1.5278899E-04   4.8984176E+05   -1.8086545E+00
   1.5349458E-04   4.8577732E+05   -1.8081099E+00
   1.5420343E-04   4.8174781E+05   -1.8075648E+00
   1.5491556E-04   4.7775293E+05   -1.8070191E+00
   1.5563098E-04   4.7379237E+05   -1.8064728E+00
   1.5634970E-04   4.6986582E+05   -1.8059259E+00
   1.5707174E-04   4.6597299E+05   -1.8053785E+00
   1.5779711E-04   4.6211358E+05   -1.8048305E+00
   1.5852584E-04   4.5828729E+05   -1.8042820E+00
   1.5925792E-04   4.5449383E+05   -1.8037329E+00
   1.5999339E-04   4.5073291E+05   -1.8031833E+00
   1.6073226E-04   4.4700425E+05   -1.8026331E+00
   1.6147454E-04   4.4330755E+05   -1.8020824E+00
   1.6222024E-04   4.3964254E+05   -1.8015312E+00
   1.6296939E-04   4.3600895E+05   -1.8009794E+00
   1.6372200E-04   4.3240648E+05   -1.8004271E+00
   1.6447809E-04   4.2883487E+05   -1.7998744E+00
   1.6523767E-04   4.2529384E+05   -1.7993211E+00
   1.6600075E-04   4.2178313E+05   -1.7987673E+00
   1.6676736E-04   4.1830247E+05   -1.7982130E+00
   1.6753751E-04   4.1485159E+05   -1.7976582E+00
   1.6831122E-04   4.1143023E+05   -1.7971029E+00
   1.6908849E-04   4.0803813E+05   -1.7965471E+00
   1.6986936E-04   4.0467504E+05   -1.7959909E+00
   1.7065384E-04   4.0134069E+05   -1.7954342E+00
   1.7144193E-04   3.9803484E+05   -1.7948770E+00
   1.7223367E-04   3.9475723E+05   -1.7943194E+00
   1.7302906E-04   3.9150762E+05   -1.7937613E+00
   1.7382813E-04   3.8828576E+05   -1.7932027E+00
   1.7463089E-04   3.8509140E+05   -1.7926438E+00
   1.7543735E-04   3.8192431E+05   -1.7920843E+00
   1.7624754E-04   3.7878424E+05   -1.7915245E+00
   1.7706147E-04   3.7567095E+05   -1.7909642E+00
   1.7787916E-04   3.7258422E+05   -1.7904035E+00
   1.7870062E-04   3.6952380E+05   -1.7898423E+00
   1.7952588E-04   3.6648947E+05   -1.7892808E+00
   1.8035495E-04   3.6348100E+05   -1.7887188E+00
   1.8118785E-04   3.6049816E+05   -1.7881565E+00
   1.8202459E-04   3.5754072E+05   -1.7875937E+00
   1.8286520E-04   3.5460847E+05   -1.7870306E+00
   1.8370969E-04   3.5170117E+05   -1.7864671E+00
   1.8455808E-04   3.4881862E+05   -1.7859032E+00
   1.8541039E-04   3.4596059E+05   -1.7853389E+00
   1.8626663E-04   3.4312687E+05   -1.7847742E+00
   1.8712683E-04   3.4031725E+05   -1.7842092E+00
   1.8799100E-04   3.3753151E+05   -1.7836439E+00
   1.8885917E-04   3.3476945E+05   -1.7830782E+00
   1.8973134E-04   3.3203086E+05   -1.7825121E+00
   1.9060754E-04   3.2931552E+05   -1.7819457E+00
   1.9148778E-04   3.2662325E+05   -1.7813790E+00
   1.9237209E-04   3.2395383E+05   -1.7808119E+00
   1.9326049E-04   3.2130707E+05   -1.7802445E+00
   1.9415299E-04   3.1868277E+05   -1.7796768E+00
   1.9504960E-04   3.1608073E+05   -1.7791088E+00
   1.9595036E-04   3.1350075E+05   -1.7785405E+00
   1.9685528E-04   3.1094265E+05   -1.7779719E+00
   1.9776438E-04   3.0840623E+05   -1.7774030E+00
   1.9867768E-04   3.0589130E+05   -1.7768338E+00
   1.9959519E-04   3.0339768E+05   -1.7762643E+00
   2.0051694E-04   3.0092517E+05   -1.7756945E+00
   2.0144295E-04   2.9847360E+05   -1.7751245E+00
   2.0237324E-04   2.9604278E+05   -1.7745542E+00
   2.0330782E-04   2.9363252E+05   -1.7739837E+00
   2.0424671E-04   2.9124266E+05   -1.7734129E+00
   2.0518995E-04   2.8887300E+05   -1.7728418E+00
   2.0613754E-04   2.8652338E+05   -1.7722705E+00
   2.0708950E-04   2.8419362E+05   -1.7716990E+00
   2.0804586E-04   2.8188355E+05   -1.7711273E+00
   2.0900664E-04   2.7959299E+05   -1.7705553E+00
   2.0997185E-04   2.7732177E+05   -1.7699831E+00
   2.1094152E-04   2.7506973E+05   -1.7694107E+00
   2.1191567E-04   2.7283670E+05   -1.7688381E+00
   2.1289432E-04   2.7062250E+05   -1.7682653E+00
   2.1387749E-04   2.6842699E+05   -1.7676923E+00
   2.1486520E-04   2.6624999E+05   -1.7671191E+00
   2.1585747E-04   2.6409135E+05   -1.7665457E+00
   2.1685432E-04   2.6195089E+05   -1.7659722E+00
   2.1785578E-04   2.5982848E+05   -1.7653985E+00
   2.1886186E-04   2.5772394E+05   -1.7648246E+00
   2.1987259E-04   2.5563712E+05   -1.7642506E+00
   2.2088798E-04   2.5356787E+05   -1.7636764E+00
   2.2190807E-04   2.5151604E+05   -1.7631021E+00
   2.2293286E-04   2.4948147E+05   -1.7625276E+00
   2.2396239E-04   2.4746401E+05   -1.7619530E+00
   2.2499667E-04   2.4546352E+05   -1.7613783E+00
   2.2603573E-04   2.4347984E+05   -1.7608034E+00
   2.2707958E-04   2.4151283E+05   -1.7602285E+00
   2.2812826E-04   2.3956235E+05   -1.7596534E+00
   2.2918178E-04   2.3762826E+05   -1.7590782E+00
   2.3024017E-04   2.3571040E+05   -1.7585029E+00
   2.3130344E-04   2.3380864E+05   -1.7579276E+00
   2.3237162E-04   2.3192283E+05   -1.7573521E+00
   2.3344474E-04   2.3005285E+05   -1.7567766E+00
   2.3452281E-04   2.2819855E+05   -1.7562010E+00
   2.3560586E-04   2.2635980E+05   -1.7556254E+00
   2.3669392E-04   2.2453646E+05   -1.7550496E+00
   2.3778699E-04   2.2272840E+05   -1.7544739E+00
   2.3888512E-04   2.2093548E+05   -1.7538980E+00
   2.3998831E-04   2.1915758E+05   -1.7533222E+00
   2.4109661E-04   2.1739456E+05   -1.7527463E+00
   2.4221001E-04   2.1564630E+05   -1.7521703E+00
   2.4332857E-04   2.1391266E+05   -1.7515944E+00
   2.4445228E-04   2.1219352E+05   -1.7510184E+00
   2.4558119E-04   2.1048876E+05   -1.7504424E+00
   2.4671531E-04   2.0879825E+05   -1.7498664E+00
   2.4785467E-04   2.0712186E+05   -1.7492904E+00
   2.4899928E-04   2.0545948E+05   -1.7487145E+00
   2.5014919E-04   2.0381098E+05   -1.7481385E+00
   2.5130440E-04   2.0217625E+05   -1.7475626E+00
   2.5246495E-04   2.0055516E+05   -1.7469866E+00
   2.5363086E-04   1.9894759E+05   -1.7464107E+00
   2.5480216E-04   1.9735344E+05   -1.7458349E+00
   2.5597886E-04   1.9577258E+05   -1.7452591E+00
   2.5716100E-04   1.9420489E+05   -1.7446833E+00
   2.5834859E-04   1.9265028E+05   -1.7441076E+00
   2.5954168E-04   1.9110861E+05   -1.7435320E+00
   2.6074027E-04   1.8957978E+05   -1.7429564E+00
   2.6194439E-04   1.8806368E+05   -1.7423809E+00
   2.6315408E-04   1.8656020E+05   -1.7418055E+00
   2.6436935E-04   1.8506923E+05   -1.7412302E+00
   2.6559024E-04   1.8359067E+05   -1.7406549E+00
   2.6681676E-04   1.8212440E+05   -1.7400798E+00
   2.6804895E-04   1.8067032E+05   -1.7395047E+00
   2.6928683E-04   1.7922832E+05   -1.7389298E+00
   2.7053042E-04   1.7779830E+05   -1.7383550E+00
   2.7177976E-04   1.7638016E+05   -1.7377803E+00
   2.7303487E-04   1.7497379E+05   -1.7372058E+00
   2.7429577E-04   1.7357910E+05   -1.7366313E+00
   2.7556250E-04   1.7219598E+05   -1.7360571E+00
   2.7683507E-04   1.7082433E+05   -1.7354829E+00
   2.7811353E-04   1.6946406E+05   -1.7349090E+00
   2.7939788E-04   1.6811506E+05   -1.7343351E+00
   2.8068817E-04   1.6677724E+05   -1.7337615E+00
   2.8198442E-04   1.6545051E+05   -1.7331880E+00
   2.8328665E-04   1.6413476E+05   -1.7326147E+00
   2.8459490E-04   1.6282991E+05   -1.7320416E+00
   2.8590919E-04   1.6153586E+05   -1.7314686E+00
   2.8722955E-04   1.6025251E+05   -1.7308959E+00
   2.8855600E-04   1.5897978E+05   -1.7303234E+00
   2.8988859E-04   1.5771757E+05   -1.7297510E+00
   2.9122732E-04   1.5646580E+05   -1.7291789E+00
   2.9257224E-04   1.5522437E+05   -1.7286070E+00
   2.9392337E-04   1.5399320E+05   -1.7280353E+00
   2.9528074E-04   1.5277219E+05   -1.7274639E+00
   2.9664438E-04   1.5156127E+05   -1.7268927E+00
   2.9801431E-04   1.5036033E+05   -1.7263217E+00
   2.9939057E-04   1.4916931E+05   -1.7257510E+00
   3.0077319E-04   1.4798811E+05   -1.7251806E+00
   3.0216219E-04   1.4681665E+05   -1.7246104E+00
   3.0355761E-04   1.4565484E+05   -1.7240404E+00
   3.0495947E-04   1.4450261E+05   -1.7234708E+00
   3.0636780E-04   1.4335987E+05   -1.7229014E+00
   3.0778264E-04   1.4222654E+05   -1.7223323E+00
   3.0920401E-04   1.4110254E+05   -1.7217635E+00
   3.1063195E-04   1.3998779E+05   -1.7211949E+00
   3.1206648E-04   1.3888220E+05   -1.7206267E+00
   3.1350764E-04   1.3778572E+05   -1.7200588E+00
   3.1495545E-04   1.3669824E+05   -1.7194912E+00
   3.1640994E-04   1.3561970E+05   -1.7189240E+00
   3.1787116E-04   1.3455003E+05   -1.7183570E+00
   3.1933912E-04   1.3348914E+05   -1.7177904E+00
   3.2081386E-04   1.3243696E+05   -1.7172241E+00
   3.2229541E-04   1.3139341E+05   -1.7166582E+00
   3.2378381E-04   1.3035843E+05   -1.7160926E+00
   3.2527908E-04   1.2933194E+05   -1.7155273E+00
   3.2678125E-04   1.2831386E+05   -1.7149624E+00
   3.2829036E-04   1.2730413E+05   -1.7143979E+00
   3.2980644E-04   1.2630268E+05   -1.7138338E+00
   3.3132952E-04   1.2530943E+05   -1.7132700E+00
   3.3285963E-04   1.2432431E+05   -1.7127066E+00
   3.3439681E-04   1.2334725E+05   -1.7121436E+00
   3.3594109E-04   1.2237820E+05   -1.7115810E+00
   3.3749250E-04   1.2141707E+05   -1.7110188E+00
   3.3905108E-04   1.2046380E+05   -1.7104569E+00
   3.4061685E-04   1.1951832E+05   -1.7098955E+00
   3.4218986E-04   1.1858057E+05   -1.7093345E+00
   3.4377013E-04   1.1765049E+05   -1.7087740E+00
   3.4535769E-04   1.1672800E+05   -1.7082138E+00
   3.4695259E-04   1.1581304E+05   -1.7076541E+00
   3.4855485E-04   1.1490555E+05   -1.7070948E+00
   3.5016452E-04   1.1400546E+05   -1.7065360E+00
   3.5178161E-04   1.1311272E+05   -1.7059776E+00
   3.5340618E-04   1.1222725E+05   -1.7054196E+00
   3.5503824E-04   1.1134901E+05   -1.7048622E+00
   3.5667785E-04   1.1047792E+05   -1.7043051E+00
   3.5832502E-04   1.0961392E+05   -1.7037486E+00
   3.5997981E-04   1.0875696E+05   -1.7031925E+00
   3.6164223E-04   1.0790698E+05   -1.7026369E+00
   3.6331233E-04   1.0706391E+05   -1.7020818E+00
   3.6499015E-04   1.0622771E+05   -1.7015272E+00
   3.6667571E-04   1.0539830E+05   -1.7009730E+00
   3.6836906E-04   1.0457563E+05   -1.7004194E+00
   3.7007022E-04   1.0375966E+05   -1.6998663E+00
   3.7177925E-04   1.0295031E+05   -1.6993137E+00
   3.7349616E-04   1.0214753E+05   -1.6987616E+00
   3.7522101E-04   1.0135127E+05   -1.6982100E+00
   3.7695382E-04   1.0056147E+05   -1.6976589E+00
   3.7869463E-04   9.9778085E+04   -1.6971084E+00
   3.8044348E-04   9.9001050E+04   -1.6965584E+00
   3.8220041E-04   9.8230315E+04   -1.6960090E+00
   3.8396545E-04   9.7465827E+04   -1.6954601E+00
   3.8573864E-04   9.6707533E+04   -1.6949117E+00
   3.8752002E-04   9.5955380E+04   -1.6943639E+00
   3.8930963E-04   9.5209318E+04   -1.6938167E+00
   3.9110750E-04   9.4469295E+04   -1.6932700E+00
   3.9291368E-04   9.3735260E+04   -1.6927239E+00
   3.9472820E-04   9.3007162E+04   -1.6921784E+00
   3.9655109E-04   9.2284951E+04   -1.6916335E+00
   3.9838241E-04   9.1568578E+04   -1.6910891E+00
   4.0022218E-04   9.0857994E+04   -1.6905453E+00
   4.0207045E-04   9.0153150E+04   -1.6900022E+00
   4.0392725E-04   8.9453998E+04   -1.6894596E+00
   4.0579263E-04   8.8760489E+04   -1.6889176E+00
   4.0766662E-04   8.8072577E+04   -1.6883763E+00
   4.0954927E-04   8.7390214E+04   -1.6878355E+00
   4.1144061E-04   8.6713354E+04   -1.6872954E+00
   4.1334068E-04   8.6041951E+04   -1.6867559E+00
   4.1524953E-04   8.5375957E+04   -1.6862170E+00
   4.1716720E-04   8.4715330E+04   -1.6856788E+00
   4.1909372E-04   8.4060022E+04   -1.6851412E+00
   4.2102914E-04   8.3409990E+04   -1.6846042E+00
   4.2297350E-04   8.2765189E+04   -1.6840679E+00
   4.2492683E-04   8.2125575E+04   -1.6835322E+00
   4.2688919E-04   8.1491106E+04   -1.6829972E+00
   4.2886061E-04   8.0861737E+04   -1.6824629E+00
   4.3084113E-04   8.0237427E+04   -1.6819292E+00
   4.3283080E-04   7.9618132E+04   -1.6813961E+00
   4.3482966E-04   7.9003812E+04   -1.6808638E+00
   4.3683775E-04   7.8394423E+04   -1.6803321E+00
   4.3885511E-04   7.7789925E+04   -1.6798011E+00
   4.4088179E-04   7.7190277E+04   -1.6792708E+00
   4.4291783E-04   7.6595439E+04   -1.6787412E+00
   4.4496327E-04   7.6005370E+04   -1.6782123E+00
   4.4701816E-04   7.5420030E+04   -1.6776841E+00
   4.4908253E-04   7.4839380E+04   -1.6771566E+00
   4.5115644E-04   7.4263381E+04   -1.6766297E+00
   4.5323993E-04   7.3691994E+04   -1.6761036E+00
   4.5533304E-04   7.3125180E+04   -1.6755783E+00
   4.5743582E-04   7.2562902E+04   -1.6750536E+00
   4.5954830E-04   7.2005121E+04   -1.6745297E+00
   4.6167054E-04   7.1451800E+04   -1.6740064E+00
   4.6380259E-04   7.0902902E+04   -1.6734840E+00
   4.6594448E-04   7.0358389E+04   -1.6729622E+00
   4.6809626E-04   6.9818226E+04   -1.6724412E+00
   4.7025797E-04   6.9282377E+04   -1.6719209E+00
   4.7242967E-04   6.8750804E+04   -1.6714014E+00
   4.7461140E-04   6.8223473E+04   -1.6708826E+00
   4.7680321E-04   6.7700349E+04   -1.6703646E+00
   4.7900514E-04   6.7181396E+04   -1.6698474E+00
   4.8121723E-04   6.6666580E+04   -1.6693309E+00
   4.8343954E-04   6.6155866E+04   -1.6688152E+00
   4.8567212E-04   6.5649221E+04   -1.6683002E+00
   4.8791500E-04   6.5146610E+04   -1.6677860E+00
   4.9016825E-04   6.4648000E+04   -1.6672726E+00
   4.9243189E-04   6.4153358E+04   -1.6667600E+00
   4.9470600E-04   6.3662651E+04   -1.6662482E+00
   4.9699060E-04   6.3175846E+04   -1.6657371E+00
   4.9928575E-04   6.2692911E+04   -1.6652269E+00
   5.0159151E-04   6.2213814E+04   -1.6647174E+00
   5.0390791E-04   6.1738523E+04   -1.6642088E+00
   5.0623501E-04   6.1267006E+04   -1.6637009E+00
   5.0857286E-04   6.0799233E+04   -1.6631938E+00
   5.1092150E-04   6.0335172E+04   -1.6626876E+00
   5.1328099E-04   5.9874793E+04   -1.6621822E+00
   5.1565137E-04   5.9418064E+04   -1.6616776E+00
   5.1803270E-04   5.8964957E+04   -1.6611738E+00
   5.2042503E-04   5.8515441E+04   -1.6606708E+00
   5.2282841E-04   5.8069486E+04   -1.6601687E+00
   5.2524289E-04   5.7627063E+04   -1.6596673E+00
   5.2766851E-04   5.7188143E+04   -1.6591669E+00
   5.3010534E-04   5.6752696E+04   -1.6586672E+00
   5.3255342E-04   5.6320695E+04   -1.6581684E+00
   5.3501281E-04   5.5892110E+04   -1.6576705E+00
   5.3748356E-04   5.5466914E+04   -1.6571733E+00
   5.3996571E-04   5.5045078E+04   -1.6566771E+00
   5.4245933E-04   5.4626576E+04   -1.6561817E+00
   5.4496446E-04   5.4211379E+04   -1.6556871E+00
   5.4748117E-04   5.3799460E+04   -1.6551934E+00
   5.5000949E-04   5.3390793E+04   -1.6547005E+00
   5.5254949E-04   5.2985350E+04   -1.6542086E+00
   5.5510123E-04   5.2583105E+04   -1.6537175E+00
   5.5766474E-04   5.2184031E+04   -1.6532272E+00
   5.6024010E-04   5.1788103E+04   -1.6527378E+00
   5.6282734E-04   5.1395295E+04   -1.6522493E+00
   5.6542654E-04   5.1005581E+04   -1.6517617E+00
   5.6803774E-04   5.0618936E+04   -1.6512750E+00
   5.7066099E-04   5.0235334E+04   -1.6507891E+00
   5.7329637E-04   4.9854751E+04   -1.6503042E+00
   5.7594391E-04   4.9477161E+04   -1.6498201E+00
   5.7860368E-04   4.9102541E+04   -1.6493369E+00
   5.8127573E-04   4.8730866E+04   -1.6488546E+00
   5.8396012E-04   4.8362111E+04   -1.6483732E+00
   5.8665691E-04   4.7996253E+04   -1.6478928E+00
   5.8936616E-04   4.7633269E+04   -1.6474132E+00
   5.9208791E-04   4.7273133E+04   -1.6469345E+00
   5.9482223E-04   4.6915824E+04   -1.6464567E+00
   5.9756919E-04   4.6561318E+04   -1.6459798E+00
   6.0032882E-04   4.6209592E+04   -1.6455039E+00
   6.0310120E-04   4.5860624E+04   -1.6450288E+00
   6.0588639E-04   4.5514390E+04   -1.6445547E+00
   6.0868443E-04   4.5170869E+04   -1.6440815E+00
   6.1149540E-04   4.4830038E+04   -1.6436092E+00
   6.1431935E-04   4.4491876E+04   -1.6431379E+00
   6.1715634E-04   4.4156361E+04   -1.6426674E+00
   6.2000644E-04   4.3823470E+04   -1.6421979E+00
   6.2286969E-04   4.3493183E+04   -1.6417294E+00
