#        a       HoverH0(a)       dlogHdloga_of_a(a)
   1.0000000E-04   1.0837413E+06   -1.8727881E+00
   1.0046181E-04   1.0744312E+06   -1.8723506E+00
   1.0092575E-04   1.0652032E+06   -1.8719121E+00
   1.0139184E-04   1.0560567E+06   -1.8714727E+00
   1.0186008E-04   1.0469907E+06   -1.8710322E+00
   1.0233048E-04   1.0380048E+06   -1.8705907E+00
   1.0280305E-04   1.0290980E+06   -1.8701483E+00
   1.0327781E-04   1.0202698E+06   -1.8697049E+00
   1.0375475E-04   1.0115193E+06   -1.8692605E+00
   1.0423390E-04   1.0028460E+06   -1.8688151E+00
   1.0471527E-04   9.9424903E+05   -1.8683688E+00
   1.0519885E-04   9.8572783E+05   -1.8679214E+00
   1.0568467E-04   9.7728167E+05   -1.8674731E+00
   1.0617274E-04   9.6890989E+05   -1.8670239E+00
   1.0666305E-04   9.6061181E+05   -1.8665736E+00
   1.0715563E-04   9.5238678E+05   -1.8661224E+00
   1.0765049E-04   9.4423414E+05   -1.8656703E+00
   1.0814763E-04   9.3615325E+05   -1.8652171E+00
   1.0864707E-04   9.2814344E+05   -1.8647630E+00
   1.0914881E-04   9.2020410E+05   -1.8643080E+00
   1.0965287E-04   9.1233459E+05   -1.8638519E+00
   1.1015926E-04   9.0453428E+05   -1.8633949E+00
   1.1066799E-04   8.9680255E+05   -1.8629370E+00
   1.1117906E-04   8.8913878E+05   -1.8624781E+00
   1.1169250E-04   8.8154237E+05   -1.8620183E+00
   1.1220831E-04   8.7401272E+05   -1.8615575E+00
   1.1272650E-04   8.6654922E+05   -1.8610957E+00
   1.1324708E-04   8.5915129E+05   -1.8606330E+00
   1.1377007E-04   8.5181833E+05   -1.8601694E+00
   1.1429547E-04   8.4454977E+05   -1.8597048E+00
   1.1482330E-04   8.3734503E+05   -1.8592393E+00
   1.1535356E-04   8.3020353E+05   -1.8587729E+00
   1.1588628E-04   8.2312470E+05   -1.8583055E+00
   1.1642145E-04   8.1610800E+05   -1.8578371E+00
   1.1695910E-04   8.0915285E+05   -1.8573679E+00
   1.1749923E-04   8.0225872E+05   -1.8568977E+00
   1.1804185E-04   7.9542505E+05   -1.8564266E+00
   1.1858698E-04   7.8865130E+05   -1.8559545E+00
   1.1913463E-04   7.8193694E+05   -1.8554816E+00
   1.1968481E-04   7.7528144E+05   -1.8550077E+00
   1.2023752E-04   7.6868426E+05   -1.8545329E+00
   1.2079279E-04   7.6214489E+05   -1.8540572E+00
   1.2135063E-04   7.5566282E+05   -1.8535805E+00
   1.2191104E-04   7.4923752E+05   -1.8531030E+00
   1.2247403E-04   7.4286848E+05   -1.8526245E+00
   1.2303963E-04   7.3655522E+05   -1.8521452E+00
   1.2360784E-04   7.3029722E+05   -1.8516649E+00
   1.2417868E-04   7.2409400E+05   -1.8511838E+00
   1.2475215E-04   7.1794506E+05   -1.8507017E+00
   1.2532826E-04   7.1184991E+05   -1.8502188E+00
   1.2590704E-04   7.0580809E+05   -1.8497349E+00
   1.2648850E-04   6.9981911E+05   -1.8492502E+00
   1.2707263E-04   6.9388249E+05   -1.8487645E+00
   1.2765947E-04   6.8799778E+05   -1.8482780E+00
   1.2824901E-04   6.8216451E+05   -1.8477906E+00
   1.2884128E-04   6.7638222E+05   -1.8473024E+00
   1.2943628E-04   6.7065044E+05   -1.8468132E+00
   1.3003403E-04   6.6496875E+05   -1.8463232E+00
   1.3063454E-04   6.5933667E+05   -1.8458323E+00
   1.3123783E-04   6.5375378E+05   -1.8453406E+00
   1.3184390E-04   6.4821963E+05   -1.8448479E+00
   1.3245277E-04   6.4273379E+05   -1.8443544E+00
   1.3306445E-04   6.3729582E+05   -1.8438601E+00
   1.3367895E-04   6.3190530E+05   -1.8433649E+00
   1.3429630E-04   6.2656181E+05   -1.8428688E+00
   1.3491649E-04   6.2126493E+05   -1.8423719E+00
   1.3553955E-04   6.1601423E+05   -1.8418742E+00
   1.3616548E-04   6.1080932E+05   -1.8413756E+00
   1.3679431E-04   6.0564978E+05   -1.8408761E+00
   1.3742604E-04   6.0053520E+05   -1.8403759E+00
   1.3806069E-04   5.9546519E+05   -1.8398748E+00
   1.3869827E-04   5.9043934E+05   -1.8393728E+00
   1.3933879E-04   5.8545727E+05   -1.8388701E+00
   1.3998227E-04   5.8051859E+05   -1.8383665E+00
   1.4062872E-04   5.7562290E+05   -1.8378621E+00
   1.4127816E-04   5.7076982E+05   -1.8373568E+00
   1.4193060E-04   5.6595898E+05   -1.8368508E+00
   1.4258605E-04   5.6119000E+05   -1.8363439E+00
   1.4324453E-04   5.5646251E+05   -1.8358363E+00
   1.4390605E-04   5.5177613E+05   -1.8353278E+00
   1.4457062E-04   5.4713050E+05   -1.8348185E+00
   1.4523826E-04   5.4252526E+05   -1.8343085E+00
   1.4590899E-04   5.3796005E+05   -1.8337976E+00
   1.4658281E-04   5.3343450E+05   -1.8332860E+00
   1.4725974E-04   5.2894828E+05   -1.8327735E+00
   1.4793981E-04   5.2450103E+05   -1.8322603E+00
   1.4862301E-04   5.2009240E+05   -1.8317463E+00
   1.4930936E-04   5.1572204E+05   -1.8312316E+00
   1.4999889E-04   5.1138963E+05   -1.8307160E+00
   1.5069160E-04   5.0709481E+05   -1.8301997E+00
   1.5138751E-04   5.0283726E+05   -1.8296826E+00
   1.5208663E-04   4.9861665E+05   -1.8291648E+00
   1.5278899E-04   4.9443264E+05   -1.8286462E+00
   1.5349458E-04   4.9028491E+05   -1.8281269E+00
   1.5420343E-04   4.8617315E+05   -1.8276068E+00
   1.5491556E-04   4.8209702E+05   -1.8270859E+00
   1.5563098E-04   4.7805622E+05   -1.8265644E+00
   1.5634970E-04   4.7405042E+05   -1.8260421E+00
   1.5707174E-04   4.7007932E+05   -1.8255190E+00
   1.5779711E-04   4.6614262E+05   -1.8249952E+00
   1.5852584E-04   4.6223999E+05   -1.8244707E+00
   1.5925792E-04   4.5837115E+05   -1.8239455E+00
   1.5999339E-04   4.5453579E+05   -1.8234196E+00
   1.6073226E-04   4.5073361E+05   -1.8228929E+00
   1.6147454E-04   4.4696433E+05   -1.8223656E+00
   1.6222024E-04   4.4322764E+05   -1.8218375E+00
   1.6296939E-04   4.3952327E+05   -1.8213088E+00
   1.6372200E-04   4.3585091E+05   -1.8207793E+00
   1.6447809E-04   4.3221030E+05   -1.8202492E+00
   1.6523767E-04   4.2860114E+05   -1.8197183E+00
   1.6600075E-04   4.2502316E+05   -1.8191868E+00
   1.6676736E-04   4.2147608E+05   -1.8186546E+00
   1.6753751E-04   4.1795963E+05   -1.8181218E+00
   1.6831122E-04   4.1447354E+05   -1.8175882E+00
   1.6908849E-04   4.1101754E+05   -1.8170540E+00
   1.6986936E-04   4.0759135E+05   -1.8165192E+00
   1.7065384E-04   4.0419472E+05   -1.8159836E+00
   1.7144193E-04   4.0082739E+05   -1.8154475E+00
   1.7223367E-04   3.9748909E+05   -1.8149106E+00
   1.7302906E-04   3.9417958E+05   -1.8143732E+00
   1.7382813E-04   3.9089858E+05   -1.8138351E+00
   1.7463089E-04   3.8764586E+05   -1.8132963E+00
   1.7543735E-04   3.8442116E+05   -1.8127570E+00
   1.7624754E-04   3.8122423E+05   -1.8122170E+00
   1.7706147E-04   3.7805483E+05   -1.8116764E+00
   1.7787916E-04   3.7491271E+05   -1.8111352E+00
   1.7870062E-04   3.7179764E+05   -1.8105933E+00
   1.7952588E-04   3.6870937E+05   -1.8100509E+00
   1.8035495E-04   3.6564766E+05   -1.8095079E+00
   1.8118785E-04   3.6261229E+05   -1.8089642E+00
   1.8202459E-04   3.5960301E+05   -1.8084200E+00
   1.8286520E-04   3.5661961E+05   -1.8078752E+00
   1.8370969E-04   3.5366184E+05   -1.8073298E+00
   1.8455808E-04   3.5072949E+05   -1.8067838E+00
   1.8541039E-04   3.4782233E+05   -1.8062373E+00
   1.8626663E-04   3.4494013E+05   -1.8056902E+00
   1.8712683E-04   3.4208268E+05   -1.8051425E+00
   1.8799100E-04   3.3924975E+05   -1.8045943E+00
   1.8885917E-04   3.3644114E+05   -1.8040455E+00
   1.8973134E-04   3.3365662E+05   -1.8034961E+00
   1.9060754E-04   3.3089599E+05   -1.8029463E+00
   1.9148778E-04   3.2815903E+05   -1.8023959E+00
   1.9237209E-04   3.2544553E+05   -1.8018449E+00
   1.9326049E-04   3.2275529E+05   -1.8012934E+00
   1.9415299E-04   3.2008810E+05   -1.8007415E+00
   1.9504960E-04   3.1744376E+05   -1.8001889E+00
   1.9595036E-04   3.1482207E+05   -1.7996359E+00
   1.9685528E-04   3.1222283E+05   -1.7990824E+00
   1.9776438E-04   3.0964584E+05   -1.7985284E+00
   1.9867768E-04   3.0709090E+05   -1.7979739E+00
   1.9959519E-04   3.0455782E+05   -1.7974188E+00
   2.0051694E-04   3.0204641E+05   -1.7968633E+00
   2.0144295E-04   2.9955647E+05   -1.7963074E+00
   2.0237324E-04   2.9708782E+05   -1.7957509E+00
   2.0330782E-04   2.9464027E+05   -1.7951940E+00
   2.0424671E-04   2.9221364E+05   -1.7946366E+00
   2.0518995E-04   2.8980773E+05   -1.7940788E+00
   2.0613754E-04   2.8742238E+05   -1.7935205E+00
   2.0708950E-04   2.8505739E+05   -1.7929617E+00
   2.0804586E-04   2.8271259E+05   -1.7924025E+00
   2.0900664E-04   2.8038780E+05   -1.7918429E+00
   2.0997185E-04   2.7808284E+05   -1.7912828E+00
   2.1094152E-04   2.7579754E+05   -1.7907223E+00
   2.1191567E-04   2.7353173E+05   -1.7901614E+00
   2.1289432E-04   2.7128524E+05   -1.7896001E+00
   2.1387749E-04   2.6905789E+05   -1.7890384E+00
   2.1486520E-04   2.6684952E+05   -1.7884762E+00
   2.1585747E-04   2.6465997E+05   -1.7879137E+00
   2.1685432E-04   2.6248905E+05   -1.7873508E+00
   2.1785578E-04   2.6033663E+05   -1.7867874E+00
   2.1886186E-04   2.5820252E+05   -1.7862237E+00
   2.1987259E-04   2.5608657E+05   -1.7856597E+00
   2.2088798E-04   2.5398862E+05   -1.7850952E+00
   2.2190807E-04   2.5190852E+05   -1.7845304E+00
   2.2293286E-04   2.4984610E+05   -1.7839652E+00
   2.2396239E-04   2.4780121E+05   -1.7833997E+00
   2.2499667E-04   2.4577370E+05   -1.7828338E+00
   2.2603573E-04   2.4376341E+05   -1.7822676E+00
   2.2707958E-04   2.4177020E+05   -1.7817010E+00
   2.2812826E-04   2.3979391E+05   -1.7811341E+00
   2.2918178E-04   2.3783440E+05   -1.7805669E+00
   2.3024017E-04   2.3589152E+05   -1.7799994E+00
   2.3130344E-04   2.3396512E+05   -1.7794315E+00
   2.3237162E-04   2.3205505E+05   -1.7788634E+00
   2.3344474E-04   2.3016119E+05   -1.7782949E+00
   2.3452281E-04   2.2828338E+05   -1.7777261E+00
   2.3560586E-04   2.2642148E+05   -1.7771571E+00
   2.3669392E-04   2.2457536E+05   -1.7765878E+00
   2.3778699E-04   2.2274488E+05   -1.7760181E+00
   2.3888512E-04   2.2092990E+05   -1.7754483E+00
   2.3998831E-04   2.1913028E+05   -1.7748781E+00
   2.4109661E-04   2.1734589E+05   -1.7743077E+00
   2.4221001E-04   2.1557659E+05   -1.7737370E+00
   2.4332857E-04   2.1382226E+05   -1.7731661E+00
   2.4445228E-04   2.1208277E+05   -1.7725949E+00
   2.4558119E-04   2.1035798E+05   -1.7720235E+00
   2.4671531E-04   2.0864777E+05   -1.7714519E+00
   2.4785467E-04   2.0695201E+05   -1.7708800E+00
   2.4899928E-04   2.0527057E+05   -1.7703079E+00
   2.5014919E-04   2.0360333E+05   -1.7697356E+00
   2.5130440E-04   2.0195016E+05   -1.7691631E+00
   2.5246495E-04   2.0031095E+05   -1.7685904E+00
   2.5363086E-04   1.9868556E+05   -1.7680175E+00
   2.5480216E-04   1.9707388E+05   -1.7674444E+00
   2.5597886E-04   1.9547580E+05   -1.7668711E+00
   2.5716100E-04   1.9389118E+05   -1.7662976E+00
   2.5834859E-04   1.9231992E+05   -1.7657240E+00
   2.5954168E-04   1.9076189E+05   -1.7651502E+00
   2.6074027E-04   1.8921699E+05   -1.7645762E+00
   2.6194439E-04   1.8768510E+05   -1.7640021E+00
   2.6315408E-04   1.8616610E+05   -1.7634279E+00
   2.6436935E-04   1.8465988E+05   -1.7628535E+00
   2.6559024E-04   1.8316633E+05   -1.7622789E+00
   2.6681676E-04   1.8168535E+05   -1.7617042E+00
   2.6804895E-04   1.8021682E+05   -1.7611294E+00
   2.6928683E-04   1.7876063E+05   -1.7605545E+00
   2.7053042E-04   1.7731667E+05   -1.7599795E+00
   2.7177976E-04   1.7588485E+05   -1.7594043E+00
   2.7303487E-04   1.7446505E+05   -1.7588291E+00
   2.7429577E-04   1.7305717E+05   -1.7582538E+00
   2.7556250E-04   1.7166110E+05   -1.7576784E+00
   2.7683507E-04   1.7027675E+05   -1.7571029E+00
   2.7811353E-04   1.6890401E+05   -1.7565273E+00
   2.7939788E-04   1.6754279E+05   -1.7559516E+00
   2.8068817E-04   1.6619297E+05   -1.7553759E+00
   2.8198442E-04   1.6485447E+05   -1.7548002E+00
   2.8328665E-04   1.6352718E+05   -1.7542243E+00
   2.8459490E-04   1.6221100E+05   -1.7536485E+00
   2.8590919E-04   1.6090585E+05   -1.7530726E+00
   2.8722955E-04   1.5961162E+05   -1.7524966E+00
   2.8855600E-04   1.5832823E+05   -1.7519207E+00
   2.8988859E-04   1.5705556E+05   -1.7513447E+00
   2.9122732E-04   1.5579355E+05   -1.7507687E+00
   2.9257224E-04   1.5454208E+05   -1.7501927E+00
   2.9392337E-04   1.5330107E+05   -1.7496167E+00
   2.9528074E-04   1.5207043E+05   -1.7490407E+00
   2.9664438E-04   1.5085007E+05   -1.7484647E+00
   2.9801431E-04   1.4963990E+05   -1.7478887E+00
   2.9939057E-04   1.4843984E+05   -1.7473127E+00
   3.0077319E-04   1.4724979E+05   -1.7467368E+00
   3.0216219E-04   1.4606966E+05   -1.7461609E+00
   3.0355761E-04   1.4489938E+05   -1.7455850E+00
   3.0495947E-04   1.4373886E+05   -1.7450092E+00
   3.0636780E-04   1.4258801E+05   -1.7444335E+00
   3.0778264E-04   1.4144675E+05   -1.7438578E+00
   3.0920401E-04   1.4031500E+05   -1.7432821E+00
   3.1063195E-04   1.3919267E+05   -1.7427066E+00
   3.1206648E-04   1.3807968E+05   -1.7421311E+00
   3.1350764E-04   1.3697596E+05   -1.7415557E+00
   3.1495545E-04   1.3588142E+05   -1.7409803E+00
   3.1640994E-04   1.3479598E+05   -1.7404051E+00
   3.1787116E-04   1.3371957E+05   -1.7398300E+00
   3.1933912E-04   1.3265210E+05   -1.7392550E+00
   3.2081386E-04   1.3159351E+05   -1.7386801E+00
   3.2229541E-04   1.3054371E+05   -1.7381053E+00
   3.2378381E-04   1.2950262E+05   -1.7375307E+00
   3.2527908E-04   1.2847018E+05   -1.7369561E+00
   3.2678125E-04   1.2744631E+05   -1.7363817E+00
   3.2829036E-04   1.2643093E+05   -1.7358075E+00
   3.2980644E-04   1.2542398E+05   -1.7352334E+00
   3.3132952E-04   1.2442537E+05   -1.7346595E+00
   3.3285963E-04   1.2343504E+05   -1.7340857E+00
   3.3439681E-04   1.2245291E+05   -1.7335121E+00
   3.3594109E-04   1.2147892E+05   -1.7329386E+00
   3.3749250E-04   1.2051300E+05   -1.7323654E+00
   3.3905108E-04   1.1955507E+05   -1.7317923E+00
   3.4061685E-04   1.1860507E+05   -1.7312194E+00
   3.4218986E-04   1.1766293E+05   -1.7306468E+00
   3.4377013E-04   1.1672858E+05   -1.7300743E+00
   3.4535769E-04   1.1580196E+05   -1.7295020E+00
   3.4695259E-04   1.1488299E+05   -1.7289300E+00
   3.4855485E-04   1.1397162E+05   -1.7283581E+00
   3.5016452E-04   1.1306778E+05   -1.7277865E+00
   3.5178161E-04   1.1217140E+05   -1.7272152E+00
   3.5340618E-04   1.1128241E+05   -1.7266440E+00
   3.5503824E-04   1.1040077E+05   -1.7260732E+00
   3.5667785E-04   1.0952639E+05   -1.7255025E+00
   3.5832502E-04   1.0865923E+05   -1.7249321E+00
   3.5997981E-04   1.0779922E+05   -1.7243620E+00
   3.6164223E-04   1.0694629E+05   -1.7237922E+00
   3.6331233E-04   1.0610039E+05   -1.7232226E+00
   3.6499015E-04   1.0526146E+05   -1.7226533E+00
   3.6667571E-04   1.0442944E+05   -1.7220843E+00
   3.6836906E-04   1.0360426E+05   -1.7215156E+00
   3.7007022E-04   1.0278587E+05   -1.7209472E+00
   3.7177925E-04   1.0197422E+05   -1.7203791E+00
   3.7349616E-04   1.0116924E+05   -1.7198113E+00
   3.7522101E-04   1.0037087E+05   -1.7192438E+00
   3.7695382E-04   9.9579066E+04   -1.7186766E+00
   3.7869463E-04   9.8793767E+04   -1.7181098E+00
   3.8044348E-04   9.8014917E+04   -1.7175433E+00
   3.8220041E-04   9.7242460E+04   -1.7169771E+00
   3.8396545E-04   9.6476343E+04   -1.7164113E+00
   3.8573864E-04   9.5716511E+04   -1.7158458E+00
   3.8752002E-04   9.4962910E+04   -1.7152807E+00
   3.8930963E-04   9.4215488E+04   -1.7147159E+00
   3.9110750E-04   9.3474192E+04   -1.7141515E+00
   3.9291368E-04   9.2738970E+04   -1.7135875E+00
   3.9472820E-04   9.2009769E+04   -1.7130239E+00
   3.9655109E-04   9.1286539E+04   -1.7124606E+00
   3.9838241E-04   9.0569229E+04   -1.7118977E+00
   4.0022218E-04   8.9857788E+04   -1.7113352E+00
   4.0207045E-04   8.9152167E+04   -1.7107732E+00
   4.0392725E-04   8.8452316E+04   -1.7102115E+00
   4.0579263E-04   8.7758186E+04   -1.7096502E+00
   4.0766662E-04   8.7069728E+04   -1.7090894E+00
   4.0954927E-04   8.6386894E+04   -1.7085290E+00
   4.1144061E-04   8.5709637E+04   -1.7079690E+00
   4.1334068E-04   8.5037908E+04   -1.7074094E+00
   4.1524953E-04   8.4371661E+04   -1.7068503E+00
   4.1716720E-04   8.3710850E+04   -1.7062916E+00
   4.1909372E-04   8.3055428E+04   -1.7057334E+00
   4.2102914E-04   8.2405349E+04   -1.7051756E+00
   4.2297350E-04   8.1760568E+04   -1.7046183E+00
   4.2492683E-04   8.1121041E+04   -1.7040614E+00
   4.2688919E-04   8.0486723E+04   -1.7035050E+00
   4.2886061E-04   7.9857570E+04   -1.7029491E+00
   4.3084113E-04   7.9233537E+04   -1.7023937E+00
   4.3283080E-04   7.8614582E+04   -1.7018387E+00
   4.3482966E-04   7.8000661E+04   -1.7012843E+00
   4.3683775E-04   7.7391732E+04   -1.7007303E+00
   4.3885511E-04   7.6787753E+04   -1.7001769E+00
   4.4088179E-04   7.6188681E+04   -1.6996240E+00
   4.4291783E-04   7.5594476E+04   -1.6990715E+00
   4.4496327E-04   7.5005096E+04   -1.6985196E+00
   4.4701816E-04   7.4420500E+04   -1.6979682E+00
   4.4908253E-04   7.3840648E+04   -1.6974174E+00
   4.5115644E-04   7.3265500E+04   -1.6968670E+00
   4.5323993E-04   7.2695016E+04   -1.6963172E+00
   4.5533304E-04   7.2129157E+04   -1.6957680E+00
   4.5743582E-04   7.1567883E+04   -1.6952193E+00
   4.5954830E-04   7.1011156E+04   -1.6946711E+00
   4.6167054E-04   7.0458938E+04   -1.6941235E+00
   4.6380259E-04   6.9911191E+04   -1.6935765E+00
   4.6594448E-04   6.9367877E+04   -1.6930300E+00
   4.6809626E-04   6.8828958E+04   -1.6924842E+00
   4.7025797E-04   6.8294397E+04   -1.6919388E+00
   4.7242967E-04   6.7764159E+04   -1.6913941E+00
   4.7461140E-04   6.7238206E+04   -1.6908500E+00
   4.7680321E-04   6.6716502E+04   -1.6903064E+00
   4.7900514E-04   6.6199012E+04   -1.6897635E+00
   4.8121723E-04   6.5685700E+04   -1.6892211E+00
   4.8343954E-04   6.5176531E+04   -1.6886794E+00
   4.8567212E-04   6.4671470E+04   -1.6881382E+00
   4.8791500E-04   6.4170483E+04   -1.6875977E+00
   4.9016825E-04   6.3673536E+04   -1.6870578E+00
   4.9243189E-04   6.3180594E+04   -1.6865185E+00
   4.9470600E-04   6.2691624E+04   -1.6859799E+00
   4.9699060E-04   6.2206592E+04   -1.6854419E+00
   4.9928575E-04   6.1725466E+04   -1.6849045E+00
   5.0159151E-04   6.1248213E+04   -1.6843678E+00
   5.0390791E-04   6.0774800E+04   -1.6838317E+00
   5.0623501E-04   6.0305194E+04   -1.6832963E+00
   5.0857286E-04   5.9839366E+04   -1.6827615E+00
   5.1092150E-04   5.9377281E+04   -1.6822274E+00
   5.1328099E-04   5.8918910E+04   -1.6816940E+00
   5.1565137E-04   5.8464221E+04   -1.6811612E+00
   5.1803270E-04   5.8013183E+04   -1.6806291E+00
   5.2042503E-04   5.7565766E+04   -1.6800977E+00
   5.2282841E-04   5.7121939E+04   -1.6795669E+00
   5.2524289E-04   5.6681673E+04   -1.6790369E+00
   5.2766851E-04   5.6244937E+04   -1.6785075E+00
   5.3010534E-04   5.5811703E+04   -1.6779788E+00
   5.3255342E-04   5.5381940E+04   -1.6774509E+00
   5.3501281E-04   5.4955620E+04   -1.6769236E+00
   5.3748356E-04   5.4532714E+04   -1.6763971E+00
   5.3996571E-04   5.4113194E+04   -1.6758712E+00
   5.4245933E-04   5.3697031E+04   -1.6753461E+00
   5.4496446E-04   5.3284197E+04   -1.6748217E+00
   5.4748117E-04   5.2874666E+04   -1.6742980E+00
   5.5000949E-04   5.2468408E+04   -1.6737751E+00
   5.5254949E-04   5.2065397E+04   -1.6732529E+00
   5.5510123E-04   5.1665606E+04   -1.6727314E+00
   5.5766474E-04   5.1269008E+04   -1.6722107E+00
   5.6024010E-04   5.0875576E+04   -1.6716907E+00
   5.6282734E-04   5.0485284E+04   -1.6711714E+00
   5.6542654E-04   5.0098106E+04   -1.6706529E+00
   5.6803774E-04   4.9714016E+04   -1.6701352E+00
   5.7066099E-04   4.9332988E+04   -1.6696182E+00
   5.7329637E-04   4.8954998E+04   -1.6691020E+00
   5.7594391E-04   4.8580018E+04   -1.6685866E+00
   5.7860368E-04   4.8208026E+04   -1.6680719E+00
   5.8127573E-04   4.7838995E+04   -1.6675580E+00
   5.8396012E-04   4.7472902E+04   -1.6670449E+00
   5.8665691E-04   4.7109721E+04   -1.6665326E+00
   5.8936616E-04   4.6749429E+04   -1.6660210E+00
   5.9208791E-04   4.6392002E+04   -1.6655103E+00
   5.9482223E-04   4.6037416E+04   -1.6650003E+00
   5.9756919E-04   4.5685647E+04   -1.6644912E+00
   6.0032882E-04   4.5336673E+04   -1.6639828E+00
   6.0310120E-04   4.4990469E+04   -1.6634752E+00
   6.0588639E-04   4.4647013E+04   -1.6629685E+00
   6.0868443E-04   4.4306283E+04   -1.6624625E+00
   6.1149540E-04   4.3968256E+04   -1.6619574E+00
   6.1431935E-04   4.3632908E+04   -1.6614531E+00
   6.1715634E-04   4.3300220E+04   -1.6609496E+00
   6.2000644E-04   4.2970167E+04   -1.6604469E+00
   6.2286969E-04   4.2642729E+04   -1.6599451E+00
