#        a       HoverH0(a)       dlogHdloga_of_a(a)
   1.0000000E-04   1.0536519E+06   -1.8540304E+00
   1.0046181E-04   1.0446907E+06   -1.8535537E+00
   1.0092575E-04   1.0358080E+06   -1.8530762E+00
   1.0139184E-04   1.0270030E+06   -1.8525977E+00
   1.0186008E-04   1.0182752E+06   -1.8521183E+00
   1.0233048E-04   1.0096237E+06   -1.8516380E+00
   1.0280305E-04   1.0010480E+06   -1.8511568E+00
   1.0327781E-04   9.9254730E+05   -1.8506746E+00
   1.0375475E-04   9.8412098E+05   -1.8501917E+00
   1.0423390E-04   9.7576838E+05   -1.8497078E+00
   1.0471527E-04   9.6748883E+05   -1.8492230E+00
   1.0519885E-04   9.5928168E+05   -1.8487373E+00
   1.0568467E-04   9.5114628E+05   -1.8482508E+00
   1.0617274E-04   9.4308198E+05   -1.8477633E+00
   1.0666305E-04   9.3508817E+05   -1.8472750E+00
   1.0715563E-04   9.2716420E+05   -1.8467858E+00
   1.0765049E-04   9.1930945E+05   -1.8462958E+00
   1.0814763E-04   9.1152331E+05   -1.8458048E+00
   1.0864707E-04   9.0380515E+05   -1.8453130E+00
   1.0914881E-04   8.9615438E+05   -1.8448204E+00
   1.0965287E-04   8.8857040E+05   -1.8443268E+00
   1.1015926E-04   8.8105260E+05   -1.8438324E+00
   1.1066799E-04   8.7360040E+05   -1.8433372E+00
   1.1117906E-04   8.6621320E+05   -1.8428411E+00
   1.1169250E-04   8.5889044E+05   -1.8423441E+00
   1.1220831E-04   8.5163154E+05   -1.8418464E+00
   1.1272650E-04   8.4443592E+05   -1.8413477E+00
   1.1324708E-04   8.3730302E+05   -1.8408482E+00
   1.1377007E-04   8.3023230E+05   -1.8403479E+00
   1.1429547E-04   8.2322318E+05   -1.8398468E+00
   1.1482330E-04   8.1627511E+05   -1.8393448E+00
   1.1535356E-04   8.0938757E+05   -1.8388420E+00
   1.1588628E-04   8.0256000E+05   -1.8383384E+00
   1.1642145E-04   7.9579187E+05   -1.8378339E+00
   1.1695910E-04   7.8908266E+05   -1.8373287E+00
   1.1749923E-04   7.8243183E+05   -1.8368226E+00
   1.1804185E-04   7.7583887E+05   -1.8363157E+00
   1.1858698E-04   7.6930326E+05   -1.8358080E+00
   1.1913463E-04   7.6282449E+05   -1.8352995E+00
   1.1968481E-04   7.5640206E+05   -1.8347902E+00
   1.2023752E-04   7.5003546E+05   -1.8342801E+00
   1.2079279E-04   7.4372420E+05   -1.8337692E+00
   1.2135063E-04   7.3746778E+05   -1.8332575E+00
   1.2191104E-04   7.3126572E+05   -1.8327450E+00
   1.2247403E-04   7.2511753E+05   -1.8322318E+00
   1.2303963E-04   7.1902273E+05   -1.8317178E+00
   1.2360784E-04   7.1298086E+05   -1.8312030E+00
   1.2417868E-04   7.0699143E+05   -1.8306874E+00
   1.2475215E-04   7.0105398E+05   -1.8301710E+00
   1.2532826E-04   6.9516804E+05   -1.8296539E+00
   1.2590704E-04   6.8933317E+05   -1.8291361E+00
   1.2648850E-04   6.8354891E+05   -1.8286174E+00
   1.2707263E-04   6.7781480E+05   -1.8280981E+00
   1.2765947E-04   6.7213041E+05   -1.8275779E+00
   1.2824901E-04   6.6649529E+05   -1.8270571E+00
   1.2884128E-04   6.6090899E+05   -1.8265355E+00
   1.2943628E-04   6.5537110E+05   -1.8260131E+00
   1.3003403E-04   6.4988118E+05   -1.8254901E+00
   1.3063454E-04   6.4443879E+05   -1.8249662E+00
   1.3123783E-04   6.3904353E+05   -1.8244417E+00
   1.3184390E-04   6.3369497E+05   -1.8239165E+00
   1.3245277E-04   6.2839269E+05   -1.8233905E+00
   1.3306445E-04   6.2313630E+05   -1.8228638E+00
   1.3367895E-04   6.1792537E+05   -1.8223364E+00
   1.3429630E-04   6.1275950E+05   -1.8218084E+00
   1.3491649E-04   6.0763831E+05   -1.8212796E+00
   1.3553955E-04   6.0256138E+05   -1.8207501E+00
   1.3616548E-04   5.9752833E+05   -1.8202199E+00
   1.3679431E-04   5.9253877E+05   -1.8196891E+00
   1.3742604E-04   5.8759231E+05   -1.8191575E+00
   1.3806069E-04   5.8268858E+05   -1.8186253E+00
   1.3869827E-04   5.7782718E+05   -1.8180924E+00
   1.3933879E-04   5.7300775E+05   -1.8175588E+00
   1.3998227E-04   5.6822992E+05   -1.8170246E+00
   1.4062872E-04   5.6349331E+05   -1.8164897E+00
   1.4127816E-04   5.5879756E+05   -1.8159542E+00
   1.4193060E-04   5.5414231E+05   -1.8154180E+00
   1.4258605E-04   5.4952720E+05   -1.8148811E+00
   1.4324453E-04   5.4495188E+05   -1.8143436E+00
   1.4390605E-04   5.4041599E+05   -1.8138055E+00
   1.4457062E-04   5.3591919E+05   -1.8132667E+00
   1.4523826E-04   5.3146112E+05   -1.8127274E+00
   1.4590899E-04   5.2704145E+05   -1.8121874E+00
   1.4658281E-04   5.2265983E+05   -1.8116467E+00
   1.4725974E-04   5.1831593E+05   -1.8111055E+00
   1.4793981E-04   5.1400942E+05   -1.8105636E+00
   1.4862301E-04   5.0973996E+05   -1.8100212E+00
   1.4930936E-04   5.0550723E+05   -1.8094781E+00
   1.4999889E-04   5.0131090E+05   -1.8089344E+00
   1.5069160E-04   4.9715065E+05   -1.8083902E+00
   1.5138751E-04   4.9302617E+05   -1.8078454E+00
   1.5208663E-04   4.8893713E+05   -1.8072999E+00
   1.5278899E-04   4.8488322E+05   -1.8067540E+00
   1.5349458E-04   4.8086413E+05   -1.8062074E+00
   1.5420343E-04   4.7687956E+05   -1.8056603E+00
   1.5491556E-04   4.7292920E+05   -1.8051126E+00
   1.5563098E-04   4.6901275E+05   -1.8045643E+00
   1.5634970E-04   4.6512991E+05   -1.8040155E+00
   1.5707174E-04   4.6128038E+05   -1.8034662E+00
   1.5779711E-04   4.5746386E+05   -1.8029163E+00
   1.5852584E-04   4.5368008E+05   -1.8023659E+00
   1.5925792E-04   4.4992873E+05   -1.8018149E+00
   1.5999339E-04   4.4620953E+05   -1.8012634E+00
   1.6073226E-04   4.4252220E+05   -1.8007114E+00
   1.6147454E-04   4.3886646E+05   -1.8001589E+00
   1.6222024E-04   4.3524203E+05   -1.7996059E+00
   1.6296939E-04   4.3164863E+05   -1.7990523E+00
   1.6372200E-04   4.2808599E+05   -1.7984983E+00
   1.6447809E-04   4.2455384E+05   -1.7979437E+00
   1.6523767E-04   4.2105192E+05   -1.7973887E+00
   1.6600075E-04   4.1757994E+05   -1.7968332E+00
   1.6676736E-04   4.1413765E+05   -1.7962772E+00
   1.6753751E-04   4.1072480E+05   -1.7957207E+00
   1.6831122E-04   4.0734111E+05   -1.7951638E+00
   1.6908849E-04   4.0398634E+05   -1.7946064E+00
   1.6986936E-04   4.0066022E+05   -1.7940486E+00
   1.7065384E-04   3.9736251E+05   -1.7934902E+00
   1.7144193E-04   3.9409296E+05   -1.7929315E+00
   1.7223367E-04   3.9085132E+05   -1.7923723E+00
   1.7302906E-04   3.8763734E+05   -1.7918126E+00
   1.7382813E-04   3.8445078E+05   -1.7912526E+00
   1.7463089E-04   3.8129140E+05   -1.7906921E+00
   1.7543735E-04   3.7815896E+05   -1.7901312E+00
   1.7624754E-04   3.7505322E+05   -1.7895698E+00
   1.7706147E-04   3.7197396E+05   -1.7890081E+00
   1.7787916E-04   3.6892093E+05   -1.7884459E+00
   1.7870062E-04   3.6589390E+05   -1.7878834E+00
   1.7952588E-04   3.6289266E+05   -1.7873205E+00
   1.8035495E-04   3.5991696E+05   -1.7867571E+00
   1.8118785E-04   3.5696659E+05   -1.7861934E+00
   1.8202459E-04   3.5404133E+05   -1.7856293E+00
   1.8286520E-04   3.5114095E+05   -1.7850649E+00
   1.8370969E-04   3.4826524E+05   -1.7845001E+00
   1.8455808E-04   3.4541398E+05   -1.7839349E+00
   1.8541039E-04   3.4258696E+05   -1.7833693E+00
   1.8626663E-04   3.3978396E+05   -1.7828035E+00
   1.8712683E-04   3.3700477E+05   -1.7822372E+00
   1.8799100E-04   3.3424918E+05   -1.7816707E+00
   1.8885917E-04   3.3151700E+05   -1.7811038E+00
   1.8973134E-04   3.2880800E+05   -1.7805366E+00
   1.9060754E-04   3.2612199E+05   -1.7799690E+00
   1.9148778E-04   3.2345878E+05   -1.7794012E+00
   1.9237209E-04   3.2081815E+05   -1.7788330E+00
   1.9326049E-04   3.1819991E+05   -1.7782646E+00
   1.9415299E-04   3.1560386E+05   -1.7776958E+00
   1.9504960E-04   3.1302982E+05   -1.7771268E+00
   1.9595036E-04   3.1047758E+05   -1.7765574E+00
   1.9685528E-04   3.0794696E+05   -1.7759878E+00
   1.9776438E-04   3.0543777E+05   -1.7754179E+00
   1.9867768E-04   3.0294982E+05   -1.7748478E+00
   1.9959519E-04   3.0048293E+05   -1.7742774E+00
   2.0051694E-04   2.9803690E+05   -1.7737067E+00
   2.0144295E-04   2.9561157E+05   -1.7731358E+00
   2.0237324E-04   2.9320674E+05   -1.7725646E+00
   2.0330782E-04   2.9082224E+05   -1.7719932E+00
   2.0424671E-04   2.8845789E+05   -1.7714216E+00
   2.0518995E-04   2.8611352E+05   -1.7708497E+00
   2.0613754E-04   2.8378895E+05   -1.7702776E+00
   2.0708950E-04   2.8148401E+05   -1.7697054E+00
   2.0804586E-04   2.7919853E+05   -1.7691329E+00
   2.0900664E-04   2.7693233E+05   -1.7685602E+00
   2.0997185E-04   2.7468525E+05   -1.7679873E+00
   2.1094152E-04   2.7245713E+05   -1.7674142E+00
   2.1191567E-04   2.7024779E+05   -1.7668409E+00
   2.1289432E-04   2.6805708E+05   -1.7662674E+00
   2.1387749E-04   2.6588482E+05   -1.7656938E+00
   2.1486520E-04   2.6373087E+05   -1.7651200E+00
   2.1585747E-04   2.6159506E+05   -1.7645461E+00
   2.1685432E-04   2.5947723E+05   -1.7639720E+00
   2.1785578E-04   2.5737723E+05   -1.7633977E+00
   2.1886186E-04   2.5529490E+05   -1.7628233E+00
   2.1987259E-04   2.5323008E+05   -1.7622488E+00
   2.2088798E-04   2.5118264E+05   -1.7616741E+00
   2.2190807E-04   2.4915240E+05   -1.7610993E+00
   2.2293286E-04   2.4713923E+05   -1.7605244E+00
   2.2396239E-04   2.4514298E+05   -1.7599494E+00
   2.2499667E-04   2.4316349E+05   -1.7593743E+00
   2.2603573E-04   2.4120063E+05   -1.7587991E+00
   2.2707958E-04   2.3925425E+05   -1.7582238E+00
   2.2812826E-04   2.3732420E+05   -1.7576484E+00
   2.2918178E-04   2.3541035E+05   -1.7570729E+00
   2.3024017E-04   2.3351255E+05   -1.7564973E+00
   2.3130344E-04   2.3163066E+05   -1.7559217E+00
   2.3237162E-04   2.2976455E+05   -1.7553460E+00
   2.3344474E-04   2.2791408E+05   -1.7547703E+00
   2.3452281E-04   2.2607911E+05   -1.7541945E+00
   2.3560586E-04   2.2425951E+05   -1.7536186E+00
   2.3669392E-04   2.2245514E+05   -1.7530427E+00
   2.3778699E-04   2.2066588E+05   -1.7524668E+00
   2.3888512E-04   2.1889159E+05   -1.7518909E+00
   2.3998831E-04   2.1713214E+05   -1.7513149E+00
   2.4109661E-04   2.1538741E+05   -1.7507389E+00
   2.4221001E-04   2.1365726E+05   -1.7501630E+00
   2.4332857E-04   2.1194157E+05   -1.7495870E+00
   2.4445228E-04   2.1024022E+05   -1.7490110E+00
   2.4558119E-04   2.0855308E+05   -1.7484350E+00
   2.4671531E-04   2.0688003E+05   -1.7478591E+00
   2.4785467E-04   2.0522094E+05   -1.7472831E+00
   2.4899928E-04   2.0357570E+05   -1.7467072E+00
   2.5014919E-04   2.0194418E+05   -1.7461313E+00
   2.5130440E-04   2.0032628E+05   -1.7455555E+00
   2.5246495E-04   1.9872186E+05   -1.7449797E+00
   2.5363086E-04   1.9713081E+05   -1.7444040E+00
   2.5480216E-04   1.9555302E+05   -1.7438283E+00
   2.5597886E-04   1.9398838E+05   -1.7432527E+00
   2.5716100E-04   1.9243676E+05   -1.7426772E+00
   2.5834859E-04   1.9089806E+05   -1.7421017E+00
   2.5954168E-04   1.8937216E+05   -1.7415264E+00
   2.6074027E-04   1.8785896E+05   -1.7409511E+00
   2.6194439E-04   1.8635835E+05   -1.7403759E+00
   2.6315408E-04   1.8487021E+05   -1.7398008E+00
   2.6436935E-04   1.8339444E+05   -1.7392258E+00
   2.6559024E-04   1.8193093E+05   -1.7386509E+00
   2.6681676E-04   1.8047959E+05   -1.7380762E+00
   2.6804895E-04   1.7904029E+05   -1.7375016E+00
   2.6928683E-04   1.7761294E+05   -1.7369271E+00
   2.7053042E-04   1.7619744E+05   -1.7363527E+00
   2.7177976E-04   1.7479368E+05   -1.7357785E+00
   2.7303487E-04   1.7340156E+05   -1.7352045E+00
   2.7429577E-04   1.7202098E+05   -1.7346306E+00
   2.7556250E-04   1.7065185E+05   -1.7340568E+00
   2.7683507E-04   1.6929406E+05   -1.7334833E+00
   2.7811353E-04   1.6794752E+05   -1.7329099E+00
   2.7939788E-04   1.6661213E+05   -1.7323366E+00
   2.8068817E-04   1.6528780E+05   -1.7317636E+00
   2.8198442E-04   1.6397442E+05   -1.7311908E+00
   2.8328665E-04   1.6267191E+05   -1.7306181E+00
   2.8459490E-04   1.6138017E+05   -1.7300457E+00
   2.8590919E-04   1.6009911E+05   -1.7294735E+00
   2.8722955E-04   1.5882864E+05   -1.7289015E+00
   2.8855600E-04   1.5756866E+05   -1.7283297E+00
   2.8988859E-04   1.5631910E+05   -1.7277581E+00
   2.9122732E-04   1.5507985E+05   -1.7271868E+00
   2.9257224E-04   1.5385083E+05   -1.7266157E+00
   2.9392337E-04   1.5263195E+05   -1.7260449E+00
   2.9528074E-04   1.5142312E+05   -1.7254743E+00
   2.9664438E-04   1.5022427E+05   -1.7249039E+00
   2.9801431E-04   1.4903529E+05   -1.7243339E+00
   2.9939057E-04   1.4785612E+05   -1.7237641E+00
   3.0077319E-04   1.4668666E+05   -1.7231945E+00
   3.0216219E-04   1.4552683E+05   -1.7226253E+00
   3.0355761E-04   1.4437656E+05   -1.7220563E+00
   3.0495947E-04   1.4323574E+05   -1.7214877E+00
   3.0636780E-04   1.4210432E+05   -1.7209193E+00
   3.0778264E-04   1.4098220E+05   -1.7203513E+00
   3.0920401E-04   1.3986931E+05   -1.7197835E+00
   3.1063195E-04   1.3876557E+05   -1.7192161E+00
   3.1206648E-04   1.3767089E+05   -1.7186489E+00
   3.1350764E-04   1.3658521E+05   -1.7180822E+00
   3.1495545E-04   1.3550844E+05   -1.7175157E+00
   3.1640994E-04   1.3444052E+05   -1.7169496E+00
   3.1787116E-04   1.3338136E+05   -1.7163838E+00
   3.1933912E-04   1.3233088E+05   -1.7158184E+00
   3.2081386E-04   1.3128902E+05   -1.7152533E+00
   3.2229541E-04   1.3025571E+05   -1.7146886E+00
   3.2378381E-04   1.2923086E+05   -1.7141243E+00
   3.2527908E-04   1.2821441E+05   -1.7135603E+00
   3.2678125E-04   1.2720628E+05   -1.7129967E+00
   3.2829036E-04   1.2620641E+05   -1.7124335E+00
   3.2980644E-04   1.2521473E+05   -1.7118707E+00
   3.3132952E-04   1.2423115E+05   -1.7113083E+00
   3.3285963E-04   1.2325562E+05   -1.7107463E+00
   3.3439681E-04   1.2228807E+05   -1.7101846E+00
   3.3594109E-04   1.2132843E+05   -1.7096234E+00
   3.3749250E-04   1.2037663E+05   -1.7090626E+00
   3.3905108E-04   1.1943261E+05   -1.7085023E+00
   3.4061685E-04   1.1849629E+05   -1.7079423E+00
   3.4218986E-04   1.1756762E+05   -1.7073828E+00
   3.4377013E-04   1.1664653E+05   -1.7068238E+00
   3.4535769E-04   1.1573295E+05   -1.7062652E+00
   3.4695259E-04   1.1482682E+05   -1.7057070E+00
   3.4855485E-04   1.1392808E+05   -1.7051493E+00
   3.5016452E-04   1.1303666E+05   -1.7045920E+00
   3.5178161E-04   1.1215251E+05   -1.7040352E+00
   3.5340618E-04   1.1127556E+05   -1.7034789E+00
   3.5503824E-04   1.1040574E+05   -1.7029231E+00
   3.5667785E-04   1.0954301E+05   -1.7023677E+00
   3.5832502E-04   1.0868730E+05   -1.7018128E+00
   3.5997981E-04   1.0783855E+05   -1.7012584E+00
   3.6164223E-04   1.0699669E+05   -1.7007046E+00
   3.6331233E-04   1.0616168E+05   -1.7001512E+00
   3.6499015E-04   1.0533346E+05   -1.6995983E+00
   3.6667571E-04   1.0451196E+05   -1.6990459E+00
   3.6836906E-04   1.0369714E+05   -1.6984941E+00
   3.7007022E-04   1.0288893E+05   -1.6979428E+00
   3.7177925E-04   1.0208727E+05   -1.6973920E+00
   3.7349616E-04   1.0129212E+05   -1.6968417E+00
   3.7522101E-04   1.0050342E+05   -1.6962920E+00
   3.7695382E-04   9.9721110E+04   -1.6957428E+00
   3.7869463E-04   9.8945140E+04   -1.6951942E+00
   3.8044348E-04   9.8175458E+04   -1.6946461E+00
   3.8220041E-04   9.7412008E+04   -1.6940986E+00
   3.8396545E-04   9.6654739E+04   -1.6935516E+00
   3.8573864E-04   9.5903598E+04   -1.6930052E+00
   3.8752002E-04   9.5158534E+04   -1.6924594E+00
   3.8930963E-04   9.4419495E+04   -1.6919142E+00
   3.9110750E-04   9.3686432E+04   -1.6913695E+00
   3.9291368E-04   9.2959293E+04   -1.6908255E+00
   3.9472820E-04   9.2238029E+04   -1.6902820E+00
   3.9655109E-04   9.1522590E+04   -1.6897391E+00
   3.9838241E-04   9.0812927E+04   -1.6891968E+00
   4.0022218E-04   9.0108992E+04   -1.6886552E+00
   4.0207045E-04   8.9410737E+04   -1.6881141E+00
   4.0392725E-04   8.8718114E+04   -1.6875737E+00
   4.0579263E-04   8.8031075E+04   -1.6870338E+00
   4.0766662E-04   8.7349573E+04   -1.6864946E+00
   4.0954927E-04   8.6673563E+04   -1.6859561E+00
   4.1144061E-04   8.6002998E+04   -1.6854181E+00
   4.1334068E-04   8.5337832E+04   -1.6848809E+00
   4.1524953E-04   8.4678020E+04   -1.6843442E+00
   4.1716720E-04   8.4023517E+04   -1.6838082E+00
   4.1909372E-04   8.3374279E+04   -1.6832729E+00
   4.2102914E-04   8.2730262E+04   -1.6827382E+00
   4.2297350E-04   8.2091421E+04   -1.6822041E+00
   4.2492683E-04   8.1457713E+04   -1.6816708E+00
   4.2688919E-04   8.0829096E+04   -1.6811381E+00
   4.2886061E-04   8.0205527E+04   -1.6806061E+00
   4.3084113E-04   7.9586964E+04   -1.6800747E+00
   4.3283080E-04   7.8973364E+04   -1.6795441E+00
   4.3482966E-04   7.8364686E+04   -1.6790141E+00
   4.3683775E-04   7.7760890E+04   -1.6784848E+00
   4.3885511E-04   7.7161933E+04   -1.6779563E+00
   4.4088179E-04   7.6567777E+04   -1.6774284E+00
   4.4291783E-04   7.5978380E+04   -1.6769012E+00
   4.4496327E-04   7.5393703E+04   -1.6763747E+00
   4.4701816E-04   7.4813707E+04   -1.6758490E+00
   4.4908253E-04   7.4238353E+04   -1.6753240E+00
   4.5115644E-04   7.3667601E+04   -1.6747996E+00
   4.5323993E-04   7.3101414E+04   -1.6742761E+00
   4.5533304E-04   7.2539753E+04   -1.6737532E+00
   4.5743582E-04   7.1982581E+04   -1.6732311E+00
   4.5954830E-04   7.1429860E+04   -1.6727097E+00
   4.6167054E-04   7.0881554E+04   -1.6721890E+00
   4.6380259E-04   7.0337625E+04   -1.6716691E+00
   4.6594448E-04   6.9798037E+04   -1.6711500E+00
   4.6809626E-04   6.9262754E+04   -1.6706316E+00
   4.7025797E-04   6.8731740E+04   -1.6701140E+00
   4.7242967E-04   6.8204959E+04   -1.6695971E+00
   4.7461140E-04   6.7682378E+04   -1.6690810E+00
   4.7680321E-04   6.7163959E+04   -1.6685656E+00
   4.7900514E-04   6.6649670E+04   -1.6680510E+00
   4.8121723E-04   6.6139476E+04   -1.6675372E+00
   4.8343954E-04   6.5633342E+04   -1.6670242E+00
   4.8567212E-04   6.5131235E+04   -1.6665120E+00
   4.8791500E-04   6.4633122E+04   -1.6660005E+00
   4.9016825E-04   6.4138970E+04   -1.6654899E+00
   4.9243189E-04   6.3648745E+04   -1.6649800E+00
   4.9470600E-04   6.3162415E+04   -1.6644709E+00
   4.9699060E-04   6.2679948E+04   -1.6639627E+00
   4.9928575E-04   6.2201312E+04   -1.6634552E+00
   5.0159151E-04   6.1726475E+04   -1.6629486E+00
   5.0390791E-04   6.1255406E+04   -1.6624427E+00
   5.0623501E-04   6.0788074E+04   -1.6619377E+00
   5.0857286E-04   6.0324447E+04   -1.6614335E+00
   5.1092150E-04   5.9864495E+04   -1.6609301E+00
   5.1328099E-04   5.9408187E+04   -1.6604275E+00
   5.1565137E-04   5.8955495E+04   -1.6599258E+00
   5.1803270E-04   5.8506387E+04   -1.6594249E+00
   5.2042503E-04   5.8060834E+04   -1.6589248E+00
   5.2282841E-04   5.7618807E+04   -1.6584256E+00
   5.2524289E-04   5.7180276E+04   -1.6579272E+00
   5.2766851E-04   5.6745213E+04   -1.6574296E+00
   5.3010534E-04   5.6313590E+04   -1.6569329E+00
   5.3255342E-04   5.5885377E+04   -1.6564371E+00
   5.3501281E-04   5.5460547E+04   -1.6559421E+00
   5.3748356E-04   5.5039072E+04   -1.6554479E+00
   5.3996571E-04   5.4620924E+04   -1.6549547E+00
   5.4245933E-04   5.4206076E+04   -1.6544622E+00
   5.4496446E-04   5.3794501E+04   -1.6539707E+00
   5.4748117E-04   5.3386172E+04   -1.6534800E+00
   5.5000949E-04   5.2981061E+04   -1.6529902E+00
   5.5254949E-04   5.2579144E+04   -1.6525012E+00
   5.5510123E-04   5.2180393E+04   -1.6520132E+00
   5.5766474E-04   5.1784782E+04   -1.6515260E+00
   5.6024010E-04   5.1392286E+04   -1.6510397E+00
   5.6282734E-04   5.1002879E+04   -1.6505543E+00
   5.6542654E-04   5.0616535E+04   -1.6500697E+00
   5.6803774E-04   5.0233230E+04   -1.6495861E+00
   5.7066099E-04   4.9852939E+04   -1.6491034E+00
   5.7329637E-04   4.9475637E+04   -1.6486215E+00
   5.7594391E-04   4.9101299E+04   -1.6481406E+00
   5.7860368E-04   4.8729901E+04   -1.6476605E+00
   5.8127573E-04   4.8361420E+04   -1.6471814E+00
   5.8396012E-04   4.7995830E+04   -1.6467031E+00
   5.8665691E-04   4.7633110E+04   -1.6462258E+00
   5.8936616E-04   4.7273234E+04   -1.6457494E+00
   5.9208791E-04   4.6916180E+04   -1.6452739E+00
   5.9482223E-04   4.6561925E+04   -1.6447993E+00
   5.9756919E-04   4.6210445E+04   -1.6443256E+00
   6.0032882E-04   4.5861719E+04   -1.6438529E+00
   6.0310120E-04   4.5515724E+04   -1.6433810E+00
   6.0588639E-04   4.5172437E+04   -1.6429101E+00
   6.0868443E-04   4.4831836E+04   -1.6424401E+00
   6.1149540E-04   4.4493899E+04   -1.6419711E+00
   6.1431935E-04   4.4158606E+04   -1.6415030E+00
   6.1715634E-04   4.3825933E+04   -1.6410358E+00
   6.2000644E-04   4.3495860E+04   -1.6405695E+00
   6.2286969E-04   4.3168366E+04   -1.6401042E+00
