#        a       HoverH0(a)       dlogHdloga_of_a(a)
   1.0000000E-04   1.1598022E+06   -1.8630049E+00
   1.0046181E-04   1.1498906E+06   -1.8625462E+00
   1.0092575E-04   1.1400661E+06   -1.8620865E+00
   1.0139184E-04   1.1303279E+06   -1.8616258E+00
   1.0186008E-04   1.1206753E+06   -1.8611642E+00
   1.0233048E-04   1.1111075E+06   -1.8607017E+00
   1.0280305E-04   1.1016237E+06   -1.8602382E+00
   1.0327781E-04   1.0922232E+06   -1.8597737E+00
   1.0375475E-04   1.0829053E+06   -1.8593084E+00
   1.0423390E-04   1.0736691E+06   -1.8588420E+00
   1.0471527E-04   1.0645140E+06   -1.8583748E+00
   1.0519885E-04   1.0554392E+06   -1.8579066E+00
   1.0568467E-04   1.0464441E+06   -1.8574375E+00
   1.0617274E-04   1.0375279E+06   -1.8569674E+00
   1.0666305E-04   1.0286898E+06   -1.8564965E+00
   1.0715563E-04   1.0199293E+06   -1.8560246E+00
   1.0765049E-04   1.0112456E+06   -1.8555517E+00
   1.0814763E-04   1.0026380E+06   -1.8550780E+00
   1.0864707E-04   9.9410581E+05   -1.8546033E+00
   1.0914881E-04   9.8564841E+05   -1.8541278E+00
   1.0965287E-04   9.7726511E+05   -1.8536513E+00
   1.1015926E-04   9.6895523E+05   -1.8531739E+00
   1.1066799E-04   9.6071814E+05   -1.8526956E+00
   1.1117906E-04   9.5255316E+05   -1.8522163E+00
   1.1169250E-04   9.4445967E+05   -1.8517362E+00
   1.1220831E-04   9.3643702E+05   -1.8512552E+00
   1.1272650E-04   9.2848457E+05   -1.8507733E+00
   1.1324708E-04   9.2060171E+05   -1.8502905E+00
   1.1377007E-04   9.1278781E+05   -1.8498067E+00
   1.1429547E-04   9.0504224E+05   -1.8493221E+00
   1.1482330E-04   8.9736441E+05   -1.8488366E+00
   1.1535356E-04   8.8975371E+05   -1.8483503E+00
   1.1588628E-04   8.8220953E+05   -1.8478630E+00
   1.1642145E-04   8.7473128E+05   -1.8473749E+00
   1.1695910E-04   8.6731838E+05   -1.8468859E+00
   1.1749923E-04   8.5997023E+05   -1.8463960E+00
   1.1804185E-04   8.5268627E+05   -1.8459052E+00
   1.1858698E-04   8.4546592E+05   -1.8454136E+00
   1.1913463E-04   8.3830860E+05   -1.8449211E+00
   1.1968481E-04   8.3121377E+05   -1.8444277E+00
   1.2023752E-04   8.2418085E+05   -1.8439335E+00
   1.2079279E-04   8.1720931E+05   -1.8434385E+00
   1.2135063E-04   8.1029859E+05   -1.8429425E+00
   1.2191104E-04   8.0344814E+05   -1.8424457E+00
   1.2247403E-04   7.9665743E+05   -1.8419481E+00
   1.2303963E-04   7.8992593E+05   -1.8414497E+00
   1.2360784E-04   7.8325311E+05   -1.8409504E+00
   1.2417868E-04   7.7663845E+05   -1.8404502E+00
   1.2475215E-04   7.7008142E+05   -1.8399492E+00
   1.2532826E-04   7.6358152E+05   -1.8394474E+00
   1.2590704E-04   7.5713823E+05   -1.8389448E+00
   1.2648850E-04   7.5075105E+05   -1.8384413E+00
   1.2707263E-04   7.4441948E+05   -1.8379370E+00
   1.2765947E-04   7.3814303E+05   -1.8374319E+00
   1.2824901E-04   7.3192120E+05   -1.8369260E+00
   1.2884128E-04   7.2575351E+05   -1.8364193E+00
   1.2943628E-04   7.1963948E+05   -1.8359117E+00
   1.3003403E-04   7.1357862E+05   -1.8354034E+00
   1.3063454E-04   7.0757046E+05   -1.8348942E+00
   1.3123783E-04   7.0161454E+05   -1.8343843E+00
   1.3184390E-04   6.9571039E+05   -1.8338736E+00
   1.3245277E-04   6.8985754E+05   -1.8333620E+00
   1.3306445E-04   6.8405555E+05   -1.8328497E+00
   1.3367895E-04   6.7830396E+05   -1.8323366E+00
   1.3429630E-04   6.7260231E+05   -1.8318228E+00
   1.3491649E-04   6.6695018E+05   -1.8313081E+00
   1.3553955E-04   6.6134711E+05   -1.8307927E+00
   1.3616548E-04   6.5579267E+05   -1.8302765E+00
   1.3679431E-04   6.5028643E+05   -1.8297596E+00
   1.3742604E-04   6.4482796E+05   -1.8292418E+00
   1.3806069E-04   6.3941684E+05   -1.8287234E+00
   1.3869827E-04   6.3405263E+05   -1.8282041E+00
   1.3933879E-04   6.2873494E+05   -1.8276842E+00
   1.3998227E-04   6.2346333E+05   -1.8271635E+00
   1.4062872E-04   6.1823741E+05   -1.8266420E+00
   1.4127816E-04   6.1305677E+05   -1.8261198E+00
   1.4193060E-04   6.0792101E+05   -1.8255969E+00
   1.4258605E-04   6.0282972E+05   -1.8250732E+00
   1.4324453E-04   5.9778251E+05   -1.8245488E+00
   1.4390605E-04   5.9277900E+05   -1.8240237E+00
   1.4457062E-04   5.8781878E+05   -1.8234979E+00
   1.4523826E-04   5.8290149E+05   -1.8229714E+00
   1.4590899E-04   5.7802674E+05   -1.8224441E+00
   1.4658281E-04   5.7319415E+05   -1.8219162E+00
   1.4725974E-04   5.6840334E+05   -1.8213875E+00
   1.4793981E-04   5.6365395E+05   -1.8208582E+00
   1.4862301E-04   5.5894560E+05   -1.8203281E+00
   1.4930936E-04   5.5427794E+05   -1.8197974E+00
   1.4999889E-04   5.4965061E+05   -1.8192660E+00
   1.5069160E-04   5.4506324E+05   -1.8187339E+00
   1.5138751E-04   5.4051548E+05   -1.8182011E+00
   1.5208663E-04   5.3600699E+05   -1.8176677E+00
   1.5278899E-04   5.3153740E+05   -1.8171336E+00
   1.5349458E-04   5.2710639E+05   -1.8165989E+00
   1.5420343E-04   5.2271360E+05   -1.8160634E+00
   1.5491556E-04   5.1835870E+05   -1.8155274E+00
   1.5563098E-04   5.1404136E+05   -1.8149907E+00
   1.5634970E-04   5.0976123E+05   -1.8144533E+00
   1.5707174E-04   5.0551799E+05   -1.8139153E+00
   1.5779711E-04   5.0131132E+05   -1.8133767E+00
   1.5852584E-04   4.9714089E+05   -1.8128374E+00
   1.5925792E-04   4.9300637E+05   -1.8122975E+00
   1.5999339E-04   4.8890746E+05   -1.8117570E+00
   1.6073226E-04   4.8484384E+05   -1.8112159E+00
   1.6147454E-04   4.8081519E+05   -1.8106741E+00
   1.6222024E-04   4.7682120E+05   -1.8101318E+00
   1.6296939E-04   4.7286158E+05   -1.8095889E+00
   1.6372200E-04   4.6893601E+05   -1.8090453E+00
   1.6447809E-04   4.6504420E+05   -1.8085012E+00
   1.6523767E-04   4.6118584E+05   -1.8079565E+00
   1.6600075E-04   4.5736064E+05   -1.8074112E+00
   1.6676736E-04   4.5356831E+05   -1.8068653E+00
   1.6753751E-04   4.4980856E+05   -1.8063188E+00
   1.6831122E-04   4.4608109E+05   -1.8057718E+00
   1.6908849E-04   4.4238563E+05   -1.8052242E+00
   1.6986936E-04   4.3872189E+05   -1.8046761E+00
   1.7065384E-04   4.3508959E+05   -1.8041274E+00
   1.7144193E-04   4.3148846E+05   -1.8035781E+00
   1.7223367E-04   4.2791821E+05   -1.8030284E+00
   1.7302906E-04   4.2437859E+05   -1.8024780E+00
   1.7382813E-04   4.2086931E+05   -1.8019272E+00
   1.7463089E-04   4.1739011E+05   -1.8013758E+00
   1.7543735E-04   4.1394072E+05   -1.8008239E+00
   1.7624754E-04   4.1052088E+05   -1.8002715E+00
   1.7706147E-04   4.0713033E+05   -1.7997185E+00
   1.7787916E-04   4.0376882E+05   -1.7991651E+00
   1.7870062E-04   4.0043608E+05   -1.7986112E+00
   1.7952588E-04   3.9713186E+05   -1.7980567E+00
   1.8035495E-04   3.9385592E+05   -1.7975018E+00
   1.8118785E-04   3.9060800E+05   -1.7969464E+00
   1.8202459E-04   3.8738785E+05   -1.7963905E+00
   1.8286520E-04   3.8419523E+05   -1.7958341E+00
   1.8370969E-04   3.8102991E+05   -1.7952772E+00
   1.8455808E-04   3.7789163E+05   -1.7947199E+00
   1.8541039E-04   3.7478016E+05   -1.7941622E+00
   1.8626663E-04   3.7169527E+05   -1.7936039E+00
   1.8712683E-04   3.6863672E+05   -1.7930453E+00
   1.8799100E-04   3.6560428E+05   -1.7924861E+00
   1.8885917E-04   3.6259771E+05   -1.7919266E+00
   1.8973134E-04   3.5961680E+05   -1.7913666E+00
   1.9060754E-04   3.5666132E+05   -1.7908062E+00
   1.9148778E-04   3.5373104E+05   -1.7902453E+00
   1.9237209E-04   3.5082574E+05   -1.7896841E+00
   1.9326049E-04   3.4794520E+05   -1.7891224E+00
   1.9415299E-04   3.4508921E+05   -1.7885604E+00
   1.9504960E-04   3.4225754E+05   -1.7879979E+00
   1.9595036E-04   3.3945000E+05   -1.7874350E+00
   1.9685528E-04   3.3666635E+05   -1.7868718E+00
   1.9776438E-04   3.3390640E+05   -1.7863081E+00
   1.9867768E-04   3.3116994E+05   -1.7857441E+00
   1.9959519E-04   3.2845676E+05   -1.7851797E+00
   2.0051694E-04   3.2576665E+05   -1.7846150E+00
   2.0144295E-04   3.2309941E+05   -1.7840499E+00
   2.0237324E-04   3.2045485E+05   -1.7834844E+00
   2.0330782E-04   3.1783276E+05   -1.7829186E+00
   2.0424671E-04   3.1523295E+05   -1.7823524E+00
   2.0518995E-04   3.1265522E+05   -1.7817859E+00
   2.0613754E-04   3.1009938E+05   -1.7812191E+00
   2.0708950E-04   3.0756523E+05   -1.7806519E+00
   2.0804586E-04   3.0505260E+05   -1.7800844E+00
   2.0900664E-04   3.0256128E+05   -1.7795166E+00
   2.0997185E-04   3.0009109E+05   -1.7789485E+00
   2.1094152E-04   2.9764185E+05   -1.7783801E+00
   2.1191567E-04   2.9521337E+05   -1.7778114E+00
   2.1289432E-04   2.9280547E+05   -1.7772424E+00
   2.1387749E-04   2.9041798E+05   -1.7766732E+00
   2.1486520E-04   2.8805070E+05   -1.7761036E+00
   2.1585747E-04   2.8570348E+05   -1.7755338E+00
   2.1685432E-04   2.8337612E+05   -1.7749636E+00
   2.1785578E-04   2.8106846E+05   -1.7743933E+00
   2.1886186E-04   2.7878033E+05   -1.7738227E+00
   2.1987259E-04   2.7651155E+05   -1.7732518E+00
   2.2088798E-04   2.7426196E+05   -1.7726807E+00
   2.2190807E-04   2.7203138E+05   -1.7721093E+00
   2.2293286E-04   2.6981966E+05   -1.7715377E+00
   2.2396239E-04   2.6762663E+05   -1.7709659E+00
   2.2499667E-04   2.6545211E+05   -1.7703938E+00
   2.2603573E-04   2.6329596E+05   -1.7698216E+00
   2.2707958E-04   2.6115802E+05   -1.7692491E+00
   2.2812826E-04   2.5903811E+05   -1.7686764E+00
   2.2918178E-04   2.5693609E+05   -1.7681036E+00
   2.3024017E-04   2.5485180E+05   -1.7675305E+00
   2.3130344E-04   2.5278509E+05   -1.7669573E+00
   2.3237162E-04   2.5073580E+05   -1.7663838E+00
   2.3344474E-04   2.4870378E+05   -1.7658102E+00
   2.3452281E-04   2.4668888E+05   -1.7652365E+00
   2.3560586E-04   2.4469095E+05   -1.7646626E+00
   2.3669392E-04   2.4270984E+05   -1.7640885E+00
   2.3778699E-04   2.4074541E+05   -1.7635142E+00
   2.3888512E-04   2.3879752E+05   -1.7629399E+00
   2.3998831E-04   2.3686601E+05   -1.7623654E+00
   2.4109661E-04   2.3495074E+05   -1.7617907E+00
   2.4221001E-04   2.3305158E+05   -1.7612159E+00
   2.4332857E-04   2.3116838E+05   -1.7606410E+00
   2.4445228E-04   2.2930101E+05   -1.7600660E+00
   2.4558119E-04   2.2744932E+05   -1.7594909E+00
   2.4671531E-04   2.2561318E+05   -1.7589157E+00
   2.4785467E-04   2.2379247E+05   -1.7583404E+00
   2.4899928E-04   2.2198703E+05   -1.7577650E+00
   2.5014919E-04   2.2019674E+05   -1.7571896E+00
   2.5130440E-04   2.1842147E+05   -1.7566140E+00
   2.5246495E-04   2.1666109E+05   -1.7560384E+00
   2.5363086E-04   2.1491546E+05   -1.7554627E+00
   2.5480216E-04   2.1318446E+05   -1.7548869E+00
   2.5597886E-04   2.1146797E+05   -1.7543111E+00
   2.5716100E-04   2.0976586E+05   -1.7537353E+00
   2.5834859E-04   2.0807799E+05   -1.7531594E+00
   2.5954168E-04   2.0640426E+05   -1.7525835E+00
   2.6074027E-04   2.0474453E+05   -1.7520075E+00
   2.6194439E-04   2.0309869E+05   -1.7514316E+00
   2.6315408E-04   2.0146661E+05   -1.7508556E+00
   2.6436935E-04   1.9984818E+05   -1.7502796E+00
   2.6559024E-04   1.9824327E+05   -1.7497036E+00
   2.6681676E-04   1.9665178E+05   -1.7491276E+00
   2.6804895E-04   1.9507358E+05   -1.7485516E+00
   2.6928683E-04   1.9350855E+05   -1.7479757E+00
   2.7053042E-04   1.9195660E+05   -1.7473997E+00
   2.7177976E-04   1.9041759E+05   -1.7468238E+00
   2.7303487E-04   1.8889143E+05   -1.7462479E+00
   2.7429577E-04   1.8737800E+05   -1.7456720E+00
   2.7556250E-04   1.8587718E+05   -1.7450962E+00
   2.7683507E-04   1.8438887E+05   -1.7445205E+00
   2.7811353E-04   1.8291297E+05   -1.7439448E+00
   2.7939788E-04   1.8144936E+05   -1.7433692E+00
   2.8068817E-04   1.7999794E+05   -1.7427936E+00
   2.8198442E-04   1.7855860E+05   -1.7422181E+00
   2.8328665E-04   1.7713125E+05   -1.7416427E+00
   2.8459490E-04   1.7571576E+05   -1.7410674E+00
   2.8590919E-04   1.7431206E+05   -1.7404922E+00
   2.8722955E-04   1.7292002E+05   -1.7399171E+00
   2.8855600E-04   1.7153955E+05   -1.7393420E+00
   2.8988859E-04   1.7017056E+05   -1.7387671E+00
   2.9122732E-04   1.6881294E+05   -1.7381924E+00
   2.9257224E-04   1.6746659E+05   -1.7376177E+00
   2.9392337E-04   1.6613142E+05   -1.7370432E+00
   2.9528074E-04   1.6480733E+05   -1.7364688E+00
   2.9664438E-04   1.6349423E+05   -1.7358945E+00
   2.9801431E-04   1.6219202E+05   -1.7353204E+00
   2.9939057E-04   1.6090060E+05   -1.7347465E+00
   3.0077319E-04   1.5961989E+05   -1.7341727E+00
   3.0216219E-04   1.5834980E+05   -1.7335991E+00
   3.0355761E-04   1.5709022E+05   -1.7330256E+00
   3.0495947E-04   1.5584108E+05   -1.7324524E+00
   3.0636780E-04   1.5460227E+05   -1.7318793E+00
   3.0778264E-04   1.5337372E+05   -1.7313064E+00
   3.0920401E-04   1.5215534E+05   -1.7307337E+00
   3.1063195E-04   1.5094703E+05   -1.7301612E+00
   3.1206648E-04   1.4974871E+05   -1.7295889E+00
   3.1350764E-04   1.4856029E+05   -1.7290169E+00
   3.1495545E-04   1.4738170E+05   -1.7284450E+00
   3.1640994E-04   1.4621284E+05   -1.7278734E+00
   3.1787116E-04   1.4505363E+05   -1.7273020E+00
   3.1933912E-04   1.4390399E+05   -1.7267309E+00
   3.2081386E-04   1.4276384E+05   -1.7261600E+00
   3.2229541E-04   1.4163310E+05   -1.7255893E+00
   3.2378381E-04   1.4051168E+05   -1.7250189E+00
   3.2527908E-04   1.3939950E+05   -1.7244488E+00
   3.2678125E-04   1.3829649E+05   -1.7238789E+00
   3.2829036E-04   1.3720257E+05   -1.7233093E+00
   3.2980644E-04   1.3611766E+05   -1.7227400E+00
   3.3132952E-04   1.3504168E+05   -1.7221710E+00
   3.3285963E-04   1.3397456E+05   -1.7216022E+00
   3.3439681E-04   1.3291622E+05   -1.7210338E+00
   3.3594109E-04   1.3186659E+05   -1.7204656E+00
   3.3749250E-04   1.3082559E+05   -1.7198978E+00
   3.3905108E-04   1.2979314E+05   -1.7193303E+00
   3.4061685E-04   1.2876918E+05   -1.7187631E+00
   3.4218986E-04   1.2775363E+05   -1.7181962E+00
   3.4377013E-04   1.2674642E+05   -1.7176297E+00
   3.4535769E-04   1.2574748E+05   -1.7170635E+00
   3.4695259E-04   1.2475674E+05   -1.7164976E+00
   3.4855485E-04   1.2377413E+05   -1.7159321E+00
   3.5016452E-04   1.2279957E+05   -1.7153670E+00
   3.5178161E-04   1.2183301E+05   -1.7148022E+00
   3.5340618E-04   1.2087437E+05   -1.7142377E+00
   3.5503824E-04   1.1992358E+05   -1.7136737E+00
   3.5667785E-04   1.1898058E+05   -1.7131100E+00
   3.5832502E-04   1.1804530E+05   -1.7125467E+00
   3.5997981E-04   1.1711768E+05   -1.7119838E+00
   3.6164223E-04   1.1619765E+05   -1.7114213E+00
   3.6331233E-04   1.1528515E+05   -1.7108592E+00
   3.6499015E-04   1.1438011E+05   -1.7102975E+00
   3.6667571E-04   1.1348246E+05   -1.7097361E+00
   3.6836906E-04   1.1259215E+05   -1.7091753E+00
   3.7007022E-04   1.1170912E+05   -1.7086148E+00
   3.7177925E-04   1.1083330E+05   -1.7080548E+00
   3.7349616E-04   1.0996462E+05   -1.7074951E+00
   3.7522101E-04   1.0910304E+05   -1.7069360E+00
   3.7695382E-04   1.0824849E+05   -1.7063773E+00
   3.7869463E-04   1.0740090E+05   -1.7058190E+00
   3.8044348E-04   1.0656023E+05   -1.7052611E+00
   3.8220041E-04   1.0572641E+05   -1.7047038E+00
   3.8396545E-04   1.0489938E+05   -1.7041469E+00
   3.8573864E-04   1.0407909E+05   -1.7035904E+00
   3.8752002E-04   1.0326548E+05   -1.7030345E+00
   3.8930963E-04   1.0245849E+05   -1.7024790E+00
   3.9110750E-04   1.0165806E+05   -1.7019240E+00
   3.9291368E-04   1.0086415E+05   -1.7013695E+00
   3.9472820E-04   1.0007669E+05   -1.7008155E+00
   3.9655109E-04   9.9295636E+04   -1.7002620E+00
   3.9838241E-04   9.8520927E+04   -1.6997090E+00
   4.0022218E-04   9.7752511E+04   -1.6991565E+00
   4.0207045E-04   9.6990336E+04   -1.6986046E+00
   4.0392725E-04   9.6234348E+04   -1.6980531E+00
   4.0579263E-04   9.5484495E+04   -1.6975022E+00
   4.0766662E-04   9.4740725E+04   -1.6969518E+00
   4.0954927E-04   9.4002987E+04   -1.6964020E+00
   4.1144061E-04   9.3271229E+04   -1.6958527E+00
   4.1334068E-04   9.2545402E+04   -1.6953039E+00
   4.1524953E-04   9.1825456E+04   -1.6947557E+00
   4.1716720E-04   9.1111340E+04   -1.6942080E+00
   4.1909372E-04   9.0403006E+04   -1.6936609E+00
   4.2102914E-04   8.9700404E+04   -1.6931144E+00
   4.2297350E-04   8.9003487E+04   -1.6925685E+00
   4.2492683E-04   8.8312207E+04   -1.6920231E+00
   4.2688919E-04   8.7626516E+04   -1.6914783E+00
   4.2886061E-04   8.6946367E+04   -1.6909341E+00
   4.3084113E-04   8.6271714E+04   -1.6903905E+00
   4.3283080E-04   8.5602509E+04   -1.6898475E+00
   4.3482966E-04   8.4938709E+04   -1.6893051E+00
   4.3683775E-04   8.4280266E+04   -1.6887632E+00
   4.3885511E-04   8.3627136E+04   -1.6882220E+00
   4.4088179E-04   8.2979274E+04   -1.6876815E+00
   4.4291783E-04   8.2336636E+04   -1.6871415E+00
   4.4496327E-04   8.1699178E+04   -1.6866021E+00
   4.4701816E-04   8.1066857E+04   -1.6860634E+00
   4.4908253E-04   8.0439629E+04   -1.6855254E+00
   4.5115644E-04   7.9817452E+04   -1.6849879E+00
   4.5323993E-04   7.9200283E+04   -1.6844511E+00
   4.5533304E-04   7.8588081E+04   -1.6839150E+00
   4.5743582E-04   7.7980803E+04   -1.6833795E+00
   4.5954830E-04   7.7378409E+04   -1.6828446E+00
   4.6167054E-04   7.6780858E+04   -1.6823104E+00
   4.6380259E-04   7.6188108E+04   -1.6817769E+00
   4.6594448E-04   7.5600120E+04   -1.6812441E+00
   4.6809626E-04   7.5016854E+04   -1.6807119E+00
   4.7025797E-04   7.4438271E+04   -1.6801804E+00
   4.7242967E-04   7.3864330E+04   -1.6796496E+00
   4.7461140E-04   7.3294994E+04   -1.6791195E+00
   4.7680321E-04   7.2730224E+04   -1.6785900E+00
   4.7900514E-04   7.2169982E+04   -1.6780613E+00
   4.8121723E-04   7.1614229E+04   -1.6775332E+00
   4.8343954E-04   7.1062929E+04   -1.6770059E+00
   4.8567212E-04   7.0516044E+04   -1.6764793E+00
   4.8791500E-04   6.9973538E+04   -1.6759534E+00
   4.9016825E-04   6.9435374E+04   -1.6754282E+00
   4.9243189E-04   6.8901515E+04   -1.6749037E+00
   4.9470600E-04   6.8371925E+04   -1.6743799E+00
   4.9699060E-04   6.7846570E+04   -1.6738569E+00
   4.9928575E-04   6.7325414E+04   -1.6733346E+00
   5.0159151E-04   6.6808422E+04   -1.6728130E+00
   5.0390791E-04   6.6295558E+04   -1.6722922E+00
   5.0623501E-04   6.5786790E+04   -1.6717722E+00
   5.0857286E-04   6.5282082E+04   -1.6712528E+00
   5.1092150E-04   6.4781401E+04   -1.6707343E+00
   5.1328099E-04   6.4284714E+04   -1.6702164E+00
   5.1565137E-04   6.3791987E+04   -1.6696994E+00
   5.1803270E-04   6.3303188E+04   -1.6691831E+00
   5.2042503E-04   6.2818283E+04   -1.6686676E+00
   5.2282841E-04   6.2337240E+04   -1.6681528E+00
   5.2524289E-04   6.1860028E+04   -1.6676388E+00
   5.2766851E-04   6.1386614E+04   -1.6671256E+00
   5.3010534E-04   6.0916967E+04   -1.6666132E+00
   5.3255342E-04   6.0451056E+04   -1.6661016E+00
   5.3501281E-04   5.9988849E+04   -1.6655907E+00
   5.3748356E-04   5.9530316E+04   -1.6650807E+00
   5.3996571E-04   5.9075427E+04   -1.6645714E+00
   5.4245933E-04   5.8624152E+04   -1.6640630E+00
   5.4496446E-04   5.8176460E+04   -1.6635553E+00
   5.4748117E-04   5.7732322E+04   -1.6630485E+00
   5.5000949E-04   5.7291708E+04   -1.6625425E+00
   5.5254949E-04   5.6854589E+04   -1.6620372E+00
   5.5510123E-04   5.6420937E+04   -1.6615328E+00
   5.5766474E-04   5.5990722E+04   -1.6610293E+00
   5.6024010E-04   5.5563917E+04   -1.6605265E+00
   5.6282734E-04   5.5140493E+04   -1.6600246E+00
   5.6542654E-04   5.4720421E+04   -1.6595235E+00
   5.6803774E-04   5.4303676E+04   -1.6590232E+00
   5.7066099E-04   5.3890228E+04   -1.6585238E+00
   5.7329637E-04   5.3480051E+04   -1.6580252E+00
   5.7594391E-04   5.3073118E+04   -1.6575274E+00
   5.7860368E-04   5.2669402E+04   -1.6570305E+00
   5.8127573E-04   5.2268876E+04   -1.6565345E+00
   5.8396012E-04   5.1871515E+04   -1.6560393E+00
   5.8665691E-04   5.1477292E+04   -1.6555450E+00
   5.8936616E-04   5.1086181E+04   -1.6550515E+00
   5.9208791E-04   5.0698157E+04   -1.6545589E+00
   5.9482223E-04   5.0313195E+04   -1.6540671E+00
   5.9756919E-04   4.9931268E+04   -1.6535762E+00
   6.0032882E-04   4.9552353E+04   -1.6530862E+00
   6.0310120E-04   4.9176424E+04   -1.6525971E+00
   6.0588639E-04   4.8803457E+04   -1.6521088E+00
   6.0868443E-04   4.8433427E+04   -1.6516214E+00
   6.1149540E-04   4.8066311E+04   -1.6511349E+00
   6.1431935E-04   4.7702084E+04   -1.6506493E+00
   6.1715634E-04   4.7340723E+04   -1.6501645E+00
   6.2000644E-04   4.6982205E+04   -1.6496807E+00
   6.2286969E-04   4.6626505E+04   -1.6491977E+00
