#        a       HoverH0(a)       dlogHdloga_of_a(a)
   1.0000000E-04   1.1658324E+06   -1.8821291E+00
   1.0046181E-04   1.1557673E+06   -1.8817135E+00
   1.0092575E-04   1.1457913E+06   -1.8812969E+00
   1.0139184E-04   1.1359035E+06   -1.8808793E+00
   1.0186008E-04   1.1261033E+06   -1.8804607E+00
   1.0233048E-04   1.1163898E+06   -1.8800411E+00
   1.0280305E-04   1.1067622E+06   -1.8796204E+00
   1.0327781E-04   1.0972197E+06   -1.8791988E+00
   1.0375475E-04   1.0877617E+06   -1.8787762E+00
   1.0423390E-04   1.0783873E+06   -1.8783525E+00
   1.0471527E-04   1.0690957E+06   -1.8779279E+00
   1.0519885E-04   1.0598863E+06   -1.8775023E+00
   1.0568467E-04   1.0507583E+06   -1.8770756E+00
   1.0617274E-04   1.0417109E+06   -1.8766480E+00
   1.0666305E-04   1.0327435E+06   -1.8762193E+00
   1.0715563E-04   1.0238553E+06   -1.8757897E+00
   1.0765049E-04   1.0150456E+06   -1.8753591E+00
   1.0814763E-04   1.0063137E+06   -1.8749274E+00
   1.0864707E-04   9.9765895E+05   -1.8744948E+00
   1.0914881E-04   9.8908057E+05   -1.8740612E+00
   1.0965287E-04   9.8057792E+05   -1.8736265E+00
   1.1015926E-04   9.7215031E+05   -1.8731909E+00
   1.1066799E-04   9.6379706E+05   -1.8727543E+00
   1.1117906E-04   9.5551752E+05   -1.8723167E+00
   1.1169250E-04   9.4731101E+05   -1.8718782E+00
   1.1220831E-04   9.3917688E+05   -1.8714386E+00
   1.1272650E-04   9.3111449E+05   -1.8709981E+00
   1.1324708E-04   9.2312318E+05   -1.8705565E+00
   1.1377007E-04   9.1520233E+05   -1.8701140E+00
   1.1429547E-04   9.0735129E+05   -1.8696705E+00
   1.1482330E-04   8.9956945E+05   -1.8692260E+00
   1.1535356E-04   8.9185617E+05   -1.8687806E+00
   1.1588628E-04   8.8421084E+05   -1.8683342E+00
   1.1642145E-04   8.7663286E+05   -1.8678868E+00
   1.1695910E-04   8.6912162E+05   -1.8674384E+00
   1.1749923E-04   8.6167651E+05   -1.8669890E+00
   1.1804185E-04   8.5429696E+05   -1.8665387E+00
   1.1858698E-04   8.4698236E+05   -1.8660874E+00
   1.1913463E-04   8.3973214E+05   -1.8656352E+00
   1.1968481E-04   8.3254572E+05   -1.8651820E+00
   1.2023752E-04   8.2542252E+05   -1.8647278E+00
   1.2079279E-04   8.1836199E+05   -1.8642726E+00
   1.2135063E-04   8.1136356E+05   -1.8638165E+00
   1.2191104E-04   8.0442666E+05   -1.8633595E+00
   1.2247403E-04   7.9755076E+05   -1.8629015E+00
   1.2303963E-04   7.9073530E+05   -1.8624425E+00
   1.2360784E-04   7.8397973E+05   -1.8619826E+00
   1.2417868E-04   7.7728354E+05   -1.8615217E+00
   1.2475215E-04   7.7064617E+05   -1.8610599E+00
   1.2532826E-04   7.6406711E+05   -1.8605971E+00
   1.2590704E-04   7.5754583E+05   -1.8601334E+00
   1.2648850E-04   7.5108182E+05   -1.8596687E+00
   1.2707263E-04   7.4467456E+05   -1.8592032E+00
   1.2765947E-04   7.3832354E+05   -1.8587366E+00
   1.2824901E-04   7.3202827E+05   -1.8582692E+00
   1.2884128E-04   7.2578824E+05   -1.8578007E+00
   1.2943628E-04   7.1960295E+05   -1.8573314E+00
   1.3003403E-04   7.1347192E+05   -1.8568612E+00
   1.3063454E-04   7.0739466E+05   -1.8563900E+00
   1.3123783E-04   7.0137069E+05   -1.8559178E+00
   1.3184390E-04   6.9539953E+05   -1.8554448E+00
   1.3245277E-04   6.8948071E+05   -1.8549708E+00
   1.3306445E-04   6.8361376E+05   -1.8544960E+00
   1.3367895E-04   6.7779822E+05   -1.8540202E+00
   1.3429630E-04   6.7203363E+05   -1.8535435E+00
   1.3491649E-04   6.6631953E+05   -1.8530659E+00
   1.3553955E-04   6.6065547E+05   -1.8525873E+00
   1.3616548E-04   6.5504100E+05   -1.8521079E+00
   1.3679431E-04   6.4947569E+05   -1.8516276E+00
   1.3742604E-04   6.4395908E+05   -1.8511463E+00
   1.3806069E-04   6.3849075E+05   -1.8506642E+00
   1.3869827E-04   6.3307026E+05   -1.8501812E+00
   1.3933879E-04   6.2769719E+05   -1.8496972E+00
   1.3998227E-04   6.2237111E+05   -1.8492124E+00
   1.4062872E-04   6.1709160E+05   -1.8487267E+00
   1.4127816E-04   6.1185825E+05   -1.8482402E+00
   1.4193060E-04   6.0667064E+05   -1.8477527E+00
   1.4258605E-04   6.0152836E+05   -1.8472643E+00
   1.4324453E-04   5.9643102E+05   -1.8467751E+00
   1.4390605E-04   5.9137820E+05   -1.8462850E+00
   1.4457062E-04   5.8636952E+05   -1.8457941E+00
   1.4523826E-04   5.8140458E+05   -1.8453022E+00
   1.4590899E-04   5.7648298E+05   -1.8448095E+00
   1.4658281E-04   5.7160434E+05   -1.8443160E+00
   1.4725974E-04   5.6676828E+05   -1.8438216E+00
   1.4793981E-04   5.6197441E+05   -1.8433263E+00
   1.4862301E-04   5.5722237E+05   -1.8428302E+00
   1.4930936E-04   5.5251177E+05   -1.8423332E+00
   1.4999889E-04   5.4784225E+05   -1.8418354E+00
   1.5069160E-04   5.4321344E+05   -1.8413367E+00
   1.5138751E-04   5.3862498E+05   -1.8408372E+00
   1.5208663E-04   5.3407651E+05   -1.8403368E+00
   1.5278899E-04   5.2956767E+05   -1.8398357E+00
   1.5349458E-04   5.2509811E+05   -1.8393337E+00
   1.5420343E-04   5.2066747E+05   -1.8388308E+00
   1.5491556E-04   5.1627542E+05   -1.8383272E+00
   1.5563098E-04   5.1192161E+05   -1.8378227E+00
   1.5634970E-04   5.0760569E+05   -1.8373174E+00
   1.5707174E-04   5.0332734E+05   -1.8368113E+00
   1.5779711E-04   4.9908620E+05   -1.8363043E+00
   1.5852584E-04   4.9488196E+05   -1.8357966E+00
   1.5925792E-04   4.9071429E+05   -1.8352881E+00
   1.5999339E-04   4.8658285E+05   -1.8347787E+00
   1.6073226E-04   4.8248734E+05   -1.8342686E+00
   1.6147454E-04   4.7842741E+05   -1.8337577E+00
   1.6222024E-04   4.7440277E+05   -1.8332460E+00
   1.6296939E-04   4.7041310E+05   -1.8327335E+00
   1.6372200E-04   4.6645808E+05   -1.8322202E+00
   1.6447809E-04   4.6253741E+05   -1.8317061E+00
   1.6523767E-04   4.5865077E+05   -1.8311913E+00
   1.6600075E-04   4.5479788E+05   -1.8306757E+00
   1.6676736E-04   4.5097843E+05   -1.8301593E+00
   1.6753751E-04   4.4719211E+05   -1.8296422E+00
   1.6831122E-04   4.4343864E+05   -1.8291243E+00
   1.6908849E-04   4.3971773E+05   -1.8286056E+00
   1.6986936E-04   4.3602908E+05   -1.8280862E+00
   1.7065384E-04   4.3237241E+05   -1.8275661E+00
   1.7144193E-04   4.2874743E+05   -1.8270452E+00
   1.7223367E-04   4.2515387E+05   -1.8265235E+00
   1.7302906E-04   4.2159144E+05   -1.8260012E+00
   1.7382813E-04   4.1805987E+05   -1.8254780E+00
   1.7463089E-04   4.1455888E+05   -1.8249542E+00
   1.7543735E-04   4.1108820E+05   -1.8244296E+00
   1.7624754E-04   4.0764757E+05   -1.8239044E+00
   1.7706147E-04   4.0423671E+05   -1.8233784E+00
   1.7787916E-04   4.0085536E+05   -1.8228517E+00
   1.7870062E-04   3.9750326E+05   -1.8223242E+00
   1.7952588E-04   3.9418015E+05   -1.8217961E+00
   1.8035495E-04   3.9088577E+05   -1.8212673E+00
   1.8118785E-04   3.8761987E+05   -1.8207378E+00
   1.8202459E-04   3.8438220E+05   -1.8202076E+00
   1.8286520E-04   3.8117250E+05   -1.8196767E+00
   1.8370969E-04   3.7799053E+05   -1.8191451E+00
   1.8455808E-04   3.7483604E+05   -1.8186129E+00
   1.8541039E-04   3.7170879E+05   -1.8180799E+00
   1.8626663E-04   3.6860854E+05   -1.8175463E+00
   1.8712683E-04   3.6553504E+05   -1.8170121E+00
   1.8799100E-04   3.6248806E+05   -1.8164771E+00
   1.8885917E-04   3.5946736E+05   -1.8159416E+00
   1.8973134E-04   3.5647272E+05   -1.8154053E+00
   1.9060754E-04   3.5350390E+05   -1.8148685E+00
   1.9148778E-04   3.5056068E+05   -1.8143309E+00
   1.9237209E-04   3.4764282E+05   -1.8137928E+00
   1.9326049E-04   3.4475010E+05   -1.8132540E+00
   1.9415299E-04   3.4188230E+05   -1.8127146E+00
   1.9504960E-04   3.3903920E+05   -1.8121745E+00
   1.9595036E-04   3.3622058E+05   -1.8116339E+00
   1.9685528E-04   3.3342622E+05   -1.8110926E+00
   1.9776438E-04   3.3065592E+05   -1.8105507E+00
   1.9867768E-04   3.2790945E+05   -1.8100082E+00
   1.9959519E-04   3.2518660E+05   -1.8094651E+00
   2.0051694E-04   3.2248718E+05   -1.8089214E+00
   2.0144295E-04   3.1981096E+05   -1.8083771E+00
   2.0237324E-04   3.1715775E+05   -1.8078323E+00
   2.0330782E-04   3.1452733E+05   -1.8072868E+00
   2.0424671E-04   3.1191952E+05   -1.8067408E+00
   2.0518995E-04   3.0933411E+05   -1.8061942E+00
   2.0613754E-04   3.0677090E+05   -1.8056470E+00
   2.0708950E-04   3.0422970E+05   -1.8050993E+00
   2.0804586E-04   3.0171032E+05   -1.8045510E+00
   2.0900664E-04   2.9921255E+05   -1.8040022E+00
   2.0997185E-04   2.9673621E+05   -1.8034528E+00
   2.1094152E-04   2.9428111E+05   -1.8029029E+00
   2.1191567E-04   2.9184706E+05   -1.8023524E+00
   2.1289432E-04   2.8943388E+05   -1.8018014E+00
   2.1387749E-04   2.8704138E+05   -1.8012499E+00
   2.1486520E-04   2.8466938E+05   -1.8006979E+00
   2.1585747E-04   2.8231771E+05   -1.8001453E+00
   2.1685432E-04   2.7998617E+05   -1.7995922E+00
   2.1785578E-04   2.7767460E+05   -1.7990387E+00
   2.1886186E-04   2.7538281E+05   -1.7984846E+00
   2.1987259E-04   2.7311063E+05   -1.7979300E+00
   2.2088798E-04   2.7085790E+05   -1.7973750E+00
   2.2190807E-04   2.6862444E+05   -1.7968194E+00
   2.2293286E-04   2.6641007E+05   -1.7962634E+00
   2.2396239E-04   2.6421463E+05   -1.7957069E+00
   2.2499667E-04   2.6203796E+05   -1.7951499E+00
   2.2603573E-04   2.5987989E+05   -1.7945925E+00
   2.2707958E-04   2.5774026E+05   -1.7940346E+00
   2.2812826E-04   2.5561889E+05   -1.7934762E+00
   2.2918178E-04   2.5351564E+05   -1.7929174E+00
   2.3024017E-04   2.5143035E+05   -1.7923582E+00
   2.3130344E-04   2.4936284E+05   -1.7917985E+00
   2.3237162E-04   2.4731298E+05   -1.7912384E+00
   2.3344474E-04   2.4528060E+05   -1.7906779E+00
   2.3452281E-04   2.4326555E+05   -1.7901169E+00
   2.3560586E-04   2.4126768E+05   -1.7895556E+00
   2.3669392E-04   2.3928684E+05   -1.7889938E+00
   2.3778699E-04   2.3732288E+05   -1.7884316E+00
   2.3888512E-04   2.3537564E+05   -1.7878690E+00
   2.3998831E-04   2.3344498E+05   -1.7873061E+00
   2.4109661E-04   2.3153077E+05   -1.7867427E+00
   2.4221001E-04   2.2963284E+05   -1.7861790E+00
   2.4332857E-04   2.2775107E+05   -1.7856148E+00
   2.4445228E-04   2.2588530E+05   -1.7850503E+00
   2.4558119E-04   2.2403540E+05   -1.7844855E+00
   2.4671531E-04   2.2220123E+05   -1.7839203E+00
   2.4785467E-04   2.2038265E+05   -1.7833547E+00
   2.4899928E-04   2.1857952E+05   -1.7827888E+00
   2.5014919E-04   2.1679171E+05   -1.7822225E+00
   2.5130440E-04   2.1501909E+05   -1.7816559E+00
   2.5246495E-04   2.1326151E+05   -1.7810890E+00
   2.5363086E-04   2.1151886E+05   -1.7805217E+00
   2.5480216E-04   2.0979099E+05   -1.7799542E+00
   2.5597886E-04   2.0807779E+05   -1.7793863E+00
   2.5716100E-04   2.0637911E+05   -1.7788181E+00
   2.5834859E-04   2.0469484E+05   -1.7782496E+00
   2.5954168E-04   2.0302484E+05   -1.7776808E+00
   2.6074027E-04   2.0136900E+05   -1.7771117E+00
   2.6194439E-04   1.9972718E+05   -1.7765423E+00
   2.6315408E-04   1.9809927E+05   -1.7759727E+00
   2.6436935E-04   1.9648515E+05   -1.7754028E+00
   2.6559024E-04   1.9488469E+05   -1.7748326E+00
   2.6681676E-04   1.9329777E+05   -1.7742621E+00
   2.6804895E-04   1.9172428E+05   -1.7736914E+00
   2.6928683E-04   1.9016410E+05   -1.7731205E+00
   2.7053042E-04   1.8861711E+05   -1.7725493E+00
   2.7177976E-04   1.8708320E+05   -1.7719778E+00
   2.7303487E-04   1.8556225E+05   -1.7714062E+00
   2.7429577E-04   1.8405415E+05   -1.7708343E+00
   2.7556250E-04   1.8255879E+05   -1.7702621E+00
   2.7683507E-04   1.8107606E+05   -1.7696898E+00
   2.7811353E-04   1.7960584E+05   -1.7691173E+00
   2.7939788E-04   1.7814803E+05   -1.7685445E+00
   2.8068817E-04   1.7670252E+05   -1.7679716E+00
   2.8198442E-04   1.7526920E+05   -1.7673985E+00
   2.8328665E-04   1.7384796E+05   -1.7668252E+00
   2.8459490E-04   1.7243871E+05   -1.7662517E+00
   2.8590919E-04   1.7104133E+05   -1.7656780E+00
   2.8722955E-04   1.6965572E+05   -1.7651042E+00
   2.8855600E-04   1.6828179E+05   -1.7645302E+00
   2.8988859E-04   1.6691942E+05   -1.7639560E+00
   2.9122732E-04   1.6556852E+05   -1.7633817E+00
   2.9257224E-04   1.6422899E+05   -1.7628073E+00
   2.9392337E-04   1.6290072E+05   -1.7622327E+00
   2.9528074E-04   1.6158363E+05   -1.7616580E+00
   2.9664438E-04   1.6027761E+05   -1.7610832E+00
   2.9801431E-04   1.5898256E+05   -1.7605083E+00
   2.9939057E-04   1.5769840E+05   -1.7599332E+00
   3.0077319E-04   1.5642503E+05   -1.7593581E+00
   3.0216219E-04   1.5516235E+05   -1.7587828E+00
   3.0355761E-04   1.5391027E+05   -1.7582074E+00
   3.0495947E-04   1.5266870E+05   -1.7576320E+00
   3.0636780E-04   1.5143754E+05   -1.7570565E+00
   3.0778264E-04   1.5021671E+05   -1.7564809E+00
   3.0920401E-04   1.4900612E+05   -1.7559052E+00
   3.1063195E-04   1.4780568E+05   -1.7553295E+00
   3.1206648E-04   1.4661529E+05   -1.7547537E+00
   3.1350764E-04   1.4543488E+05   -1.7541779E+00
   3.1495545E-04   1.4426436E+05   -1.7536020E+00
   3.1640994E-04   1.4310364E+05   -1.7530260E+00
   3.1787116E-04   1.4195263E+05   -1.7524501E+00
   3.1933912E-04   1.4081125E+05   -1.7518741E+00
   3.2081386E-04   1.3967943E+05   -1.7512981E+00
   3.2229541E-04   1.3855706E+05   -1.7507221E+00
   3.2378381E-04   1.3744408E+05   -1.7501461E+00
   3.2527908E-04   1.3634041E+05   -1.7495700E+00
   3.2678125E-04   1.3524595E+05   -1.7489940E+00
   3.2829036E-04   1.3416064E+05   -1.7484180E+00
   3.2980644E-04   1.3308438E+05   -1.7478420E+00
   3.3132952E-04   1.3201712E+05   -1.7472660E+00
   3.3285963E-04   1.3095876E+05   -1.7466901E+00
   3.3439681E-04   1.2990922E+05   -1.7461142E+00
   3.3594109E-04   1.2886845E+05   -1.7455383E+00
   3.3749250E-04   1.2783634E+05   -1.7449625E+00
   3.3905108E-04   1.2681285E+05   -1.7443867E+00
   3.4061685E-04   1.2579788E+05   -1.7438110E+00
   3.4218986E-04   1.2479136E+05   -1.7432353E+00
   3.4377013E-04   1.2379323E+05   -1.7426597E+00
   3.4535769E-04   1.2280340E+05   -1.7420842E+00
   3.4695259E-04   1.2182181E+05   -1.7415088E+00
   3.4855485E-04   1.2084839E+05   -1.7409335E+00
   3.5016452E-04   1.1988306E+05   -1.7403583E+00
   3.5178161E-04   1.1892577E+05   -1.7397831E+00
   3.5340618E-04   1.1797642E+05   -1.7392081E+00
   3.5503824E-04   1.1703497E+05   -1.7386332E+00
   3.5667785E-04   1.1610133E+05   -1.7380584E+00
   3.5832502E-04   1.1517545E+05   -1.7374837E+00
   3.5997981E-04   1.1425726E+05   -1.7369092E+00
   3.6164223E-04   1.1334668E+05   -1.7363348E+00
   3.6331233E-04   1.1244366E+05   -1.7357606E+00
   3.6499015E-04   1.1154813E+05   -1.7351865E+00
   3.6667571E-04   1.1066003E+05   -1.7346125E+00
   3.6836906E-04   1.0977928E+05   -1.7340387E+00
   3.7007022E-04   1.0890583E+05   -1.7334651E+00
   3.7177925E-04   1.0803962E+05   -1.7328917E+00
   3.7349616E-04   1.0718058E+05   -1.7323184E+00
   3.7522101E-04   1.0632865E+05   -1.7317453E+00
   3.7695382E-04   1.0548377E+05   -1.7311725E+00
   3.7869463E-04   1.0464589E+05   -1.7305998E+00
   3.8044348E-04   1.0381493E+05   -1.7300273E+00
   3.8220041E-04   1.0299084E+05   -1.7294550E+00
   3.8396545E-04   1.0217356E+05   -1.7288830E+00
   3.8573864E-04   1.0136303E+05   -1.7283111E+00
   3.8752002E-04   1.0055920E+05   -1.7277395E+00
   3.8930963E-04   9.9762008E+04   -1.7271682E+00
   3.9110750E-04   9.8971394E+04   -1.7265970E+00
   3.9291368E-04   9.8187305E+04   -1.7260261E+00
   3.9472820E-04   9.7409683E+04   -1.7254555E+00
   3.9655109E-04   9.6638474E+04   -1.7248851E+00
   3.9838241E-04   9.5873622E+04   -1.7243150E+00
   4.0022218E-04   9.5115074E+04   -1.7237452E+00
   4.0207045E-04   9.4362776E+04   -1.7231756E+00
   4.0392725E-04   9.3616673E+04   -1.7226063E+00
   4.0579263E-04   9.2876713E+04   -1.7220373E+00
   4.0766662E-04   9.2142843E+04   -1.7214686E+00
   4.0954927E-04   9.1415011E+04   -1.7209002E+00
   4.1144061E-04   9.0693166E+04   -1.7203321E+00
   4.1334068E-04   8.9977256E+04   -1.7197642E+00
   4.1524953E-04   8.9267231E+04   -1.7191968E+00
   4.1716720E-04   8.8563041E+04   -1.7186296E+00
   4.1909372E-04   8.7864635E+04   -1.7180628E+00
   4.2102914E-04   8.7171964E+04   -1.7174963E+00
   4.2297350E-04   8.6484979E+04   -1.7169301E+00
   4.2492683E-04   8.5803632E+04   -1.7163643E+00
   4.2688919E-04   8.5127875E+04   -1.7157988E+00
   4.2886061E-04   8.4457660E+04   -1.7152337E+00
   4.3084113E-04   8.3792940E+04   -1.7146689E+00
   4.3283080E-04   8.3133667E+04   -1.7141045E+00
   4.3482966E-04   8.2479796E+04   -1.7135405E+00
   4.3683775E-04   8.1831281E+04   -1.7129769E+00
   4.3885511E-04   8.1188075E+04   -1.7124136E+00
   4.4088179E-04   8.0550134E+04   -1.7118508E+00
   4.4291783E-04   7.9917413E+04   -1.7112883E+00
   4.4496327E-04   7.9289867E+04   -1.7107262E+00
   4.4701816E-04   7.8667452E+04   -1.7101645E+00
   4.4908253E-04   7.8050126E+04   -1.7096033E+00
   4.5115644E-04   7.7437844E+04   -1.7090425E+00
   4.5323993E-04   7.6830563E+04   -1.7084820E+00
   4.5533304E-04   7.6228242E+04   -1.7079220E+00
   4.5743582E-04   7.5630838E+04   -1.7073625E+00
   4.5954830E-04   7.5038309E+04   -1.7068034E+00
   4.6167054E-04   7.4450614E+04   -1.7062447E+00
   4.6380259E-04   7.3867712E+04   -1.7056865E+00
   4.6594448E-04   7.3289562E+04   -1.7051287E+00
   4.6809626E-04   7.2716124E+04   -1.7045714E+00
   4.7025797E-04   7.2147357E+04   -1.7040146E+00
   4.7242967E-04   7.1583223E+04   -1.7034582E+00
   4.7461140E-04   7.1023682E+04   -1.7029023E+00
   4.7680321E-04   7.0468696E+04   -1.7023469E+00
   4.7900514E-04   6.9918224E+04   -1.7017919E+00
   4.8121723E-04   6.9372231E+04   -1.7012375E+00
   4.8343954E-04   6.8830676E+04   -1.7006836E+00
   4.8567212E-04   6.8293524E+04   -1.7001301E+00
   4.8791500E-04   6.7760736E+04   -1.6995772E+00
   4.9016825E-04   6.7232276E+04   -1.6990248E+00
   4.9243189E-04   6.6708107E+04   -1.6984729E+00
   4.9470600E-04   6.6188193E+04   -1.6979215E+00
   4.9699060E-04   6.5672497E+04   -1.6973707E+00
   4.9928575E-04   6.5160985E+04   -1.6968203E+00
   5.0159151E-04   6.4653621E+04   -1.6962706E+00
   5.0390791E-04   6.4150370E+04   -1.6957213E+00
   5.0623501E-04   6.3651197E+04   -1.6951726E+00
   5.0857286E-04   6.3156068E+04   -1.6946245E+00
   5.1092150E-04   6.2664948E+04   -1.6940769E+00
   5.1328099E-04   6.2177805E+04   -1.6935299E+00
   5.1565137E-04   6.1694604E+04   -1.6929835E+00
   5.1803270E-04   6.1215312E+04   -1.6924376E+00
   5.2042503E-04   6.0739896E+04   -1.6918923E+00
   5.2282841E-04   6.0268323E+04   -1.6913476E+00
   5.2524289E-04   5.9800562E+04   -1.6908035E+00
   5.2766851E-04   5.9336580E+04   -1.6902599E+00
   5.3010534E-04   5.8876345E+04   -1.6897170E+00
   5.3255342E-04   5.8419826E+04   -1.6891746E+00
   5.3501281E-04   5.7966992E+04   -1.6886329E+00
   5.3748356E-04   5.7517811E+04   -1.6880918E+00
   5.3996571E-04   5.7072253E+04   -1.6875513E+00
   5.4245933E-04   5.6630288E+04   -1.6870114E+00
   5.4496446E-04   5.6191884E+04   -1.6864722E+00
   5.4748117E-04   5.5757014E+04   -1.6859335E+00
   5.5000949E-04   5.5325646E+04   -1.6853955E+00
   5.5254949E-04   5.4897751E+04   -1.6848582E+00
   5.5510123E-04   5.4473300E+04   -1.6843215E+00
   5.5766474E-04   5.4052265E+04   -1.6837854E+00
   5.6024010E-04   5.3634616E+04   -1.6832500E+00
   5.6282734E-04   5.3220325E+04   -1.6827153E+00
   5.6542654E-04   5.2809365E+04   -1.6821812E+00
   5.6803774E-04   5.2401707E+04   -1.6816477E+00
   5.7066099E-04   5.1997323E+04   -1.6811150E+00
   5.7329637E-04   5.1596187E+04   -1.6805829E+00
   5.7594391E-04   5.1198271E+04   -1.6800515E+00
   5.7860368E-04   5.0803548E+04   -1.6795208E+00
   5.8127573E-04   5.0411991E+04   -1.6789908E+00
   5.8396012E-04   5.0023574E+04   -1.6784614E+00
   5.8665691E-04   4.9638271E+04   -1.6779328E+00
   5.8936616E-04   4.9256056E+04   -1.6774048E+00
   5.9208791E-04   4.8876902E+04   -1.6768776E+00
   5.9482223E-04   4.8500785E+04   -1.6763511E+00
   5.9756919E-04   4.8127678E+04   -1.6758253E+00
   6.0032882E-04   4.7757558E+04   -1.6753002E+00
   6.0310120E-04   4.7390398E+04   -1.6747758E+00
   6.0588639E-04   4.7026175E+04   -1.6742521E+00
   6.0868443E-04   4.6664863E+04   -1.6737292E+00
   6.1149540E-04   4.6306439E+04   -1.6732070E+00
   6.1431935E-04   4.5950879E+04   -1.6726856E+00
   6.1715634E-04   4.5598158E+04   -1.6721649E+00
   6.2000644E-04   4.5248253E+04   -1.6716449E+00
   6.2286969E-04   4.4901141E+04   -1.6711257E+00
