#        a       HoverH0(a)       dlogHdloga_of_a(a)
   1.0000000E-04   1.1237186E+06   -1.8614856E+00
   1.0046181E-04   1.1141231E+06   -1.8610237E+00
   1.0092575E-04   1.1046120E+06   -1.8605609E+00
   1.0139184E-04   1.0951843E+06   -1.8600971E+00
   1.0186008E-04   1.0858395E+06   -1.8596324E+00
   1.0233048E-04   1.0765767E+06   -1.8591667E+00
   1.0280305E-04   1.0673952E+06   -1.8587001E+00
   1.0327781E-04   1.0582943E+06   -1.8582326E+00
   1.0375475E-04   1.0492732E+06   -1.8577641E+00
   1.0423390E-04   1.0403313E+06   -1.8572947E+00
   1.0471527E-04   1.0314679E+06   -1.8568244E+00
   1.0519885E-04   1.0226821E+06   -1.8563531E+00
   1.0568467E-04   1.0139734E+06   -1.8558809E+00
   1.0617274E-04   1.0053411E+06   -1.8554078E+00
   1.0666305E-04   9.9678440E+05   -1.8549338E+00
   1.0715563E-04   9.8830271E+05   -1.8544589E+00
   1.0765049E-04   9.7989533E+05   -1.8539830E+00
   1.0814763E-04   9.7156161E+05   -1.8535062E+00
   1.0864707E-04   9.6330088E+05   -1.8530286E+00
   1.0914881E-04   9.5511249E+05   -1.8525500E+00
   1.0965287E-04   9.4699580E+05   -1.8520705E+00
   1.1015926E-04   9.3895015E+05   -1.8515901E+00
   1.1066799E-04   9.3097493E+05   -1.8511088E+00
   1.1117906E-04   9.2306949E+05   -1.8506266E+00
   1.1169250E-04   9.1523322E+05   -1.8501435E+00
   1.1220831E-04   9.0746550E+05   -1.8496595E+00
   1.1272650E-04   8.9976571E+05   -1.8491747E+00
   1.1324708E-04   8.9213324E+05   -1.8486889E+00
   1.1377007E-04   8.8456751E+05   -1.8482023E+00
   1.1429547E-04   8.7706790E+05   -1.8477147E+00
   1.1482330E-04   8.6963384E+05   -1.8472263E+00
   1.1535356E-04   8.6226472E+05   -1.8467370E+00
   1.1588628E-04   8.5495998E+05   -1.8462469E+00
   1.1642145E-04   8.4771904E+05   -1.8457559E+00
   1.1695910E-04   8.4054133E+05   -1.8452640E+00
   1.1749923E-04   8.3342628E+05   -1.8447712E+00
   1.1804185E-04   8.2637333E+05   -1.8442776E+00
   1.1858698E-04   8.1938194E+05   -1.8437831E+00
   1.1913463E-04   8.1245155E+05   -1.8432878E+00
   1.1968481E-04   8.0558162E+05   -1.8427916E+00
   1.2023752E-04   7.9877160E+05   -1.8422946E+00
   1.2079279E-04   7.9202098E+05   -1.8417967E+00
   1.2135063E-04   7.8532920E+05   -1.8412980E+00
   1.2191104E-04   7.7869576E+05   -1.8407984E+00
   1.2247403E-04   7.7212012E+05   -1.8402980E+00
   1.2303963E-04   7.6560178E+05   -1.8397968E+00
   1.2360784E-04   7.5914023E+05   -1.8392947E+00
   1.2417868E-04   7.5273494E+05   -1.8387918E+00
   1.2475215E-04   7.4638544E+05   -1.8382881E+00
   1.2532826E-04   7.4009121E+05   -1.8377836E+00
   1.2590704E-04   7.3385177E+05   -1.8372782E+00
   1.2648850E-04   7.2766663E+05   -1.8367721E+00
   1.2707263E-04   7.2153530E+05   -1.8362651E+00
   1.2765947E-04   7.1545731E+05   -1.8357573E+00
   1.2824901E-04   7.0943217E+05   -1.8352487E+00
   1.2884128E-04   7.0345943E+05   -1.8347393E+00
   1.2943628E-04   6.9753861E+05   -1.8342292E+00
   1.3003403E-04   6.9166926E+05   -1.8337182E+00
   1.3063454E-04   6.8585090E+05   -1.8332064E+00
   1.3123783E-04   6.8008309E+05   -1.8326939E+00
   1.3184390E-04   6.7436539E+05   -1.8321805E+00
   1.3245277E-04   6.6869733E+05   -1.8316664E+00
   1.3306445E-04   6.6307849E+05   -1.8311516E+00
   1.3367895E-04   6.5750842E+05   -1.8306359E+00
   1.3429630E-04   6.5198670E+05   -1.8301195E+00
   1.3491649E-04   6.4651288E+05   -1.8296023E+00
   1.3553955E-04   6.4108655E+05   -1.8290843E+00
   1.3616548E-04   6.3570728E+05   -1.8285656E+00
   1.3679431E-04   6.3037465E+05   -1.8280462E+00
   1.3742604E-04   6.2508826E+05   -1.8275260E+00
   1.3806069E-04   6.1984769E+05   -1.8270051E+00
   1.3869827E-04   6.1465252E+05   -1.8264834E+00
   1.3933879E-04   6.0950237E+05   -1.8259609E+00
   1.3998227E-04   6.0439682E+05   -1.8254378E+00
   1.4062872E-04   5.9933549E+05   -1.8249139E+00
   1.4127816E-04   5.9431797E+05   -1.8243893E+00
   1.4193060E-04   5.8934389E+05   -1.8238640E+00
   1.4258605E-04   5.8441285E+05   -1.8233380E+00
   1.4324453E-04   5.7952448E+05   -1.8228112E+00
   1.4390605E-04   5.7467839E+05   -1.8222837E+00
   1.4457062E-04   5.6987421E+05   -1.8217556E+00
   1.4523826E-04   5.6511157E+05   -1.8212267E+00
   1.4590899E-04   5.6039010E+05   -1.8206972E+00
   1.4658281E-04   5.5570943E+05   -1.8201669E+00
   1.4725974E-04   5.5106921E+05   -1.8196360E+00
   1.4793981E-04   5.4646907E+05   -1.8191044E+00
   1.4862301E-04   5.4190866E+05   -1.8185721E+00
   1.4930936E-04   5.3738762E+05   -1.8180391E+00
   1.4999889E-04   5.3290561E+05   -1.8175055E+00
   1.5069160E-04   5.2846229E+05   -1.8169712E+00
   1.5138751E-04   5.2405730E+05   -1.8164362E+00
   1.5208663E-04   5.1969031E+05   -1.8159006E+00
   1.5278899E-04   5.1536098E+05   -1.8153643E+00
   1.5349458E-04   5.1106899E+05   -1.8148274E+00
   1.5420343E-04   5.0681399E+05   -1.8142899E+00
   1.5491556E-04   5.0259567E+05   -1.8137517E+00
   1.5563098E-04   4.9841369E+05   -1.8132129E+00
   1.5634970E-04   4.9426774E+05   -1.8126734E+00
   1.5707174E-04   4.9015749E+05   -1.8121333E+00
   1.5779711E-04   4.8608263E+05   -1.8115926E+00
   1.5852584E-04   4.8204285E+05   -1.8110513E+00
   1.5925792E-04   4.7803784E+05   -1.8105094E+00
   1.5999339E-04   4.7406729E+05   -1.8099669E+00
   1.6073226E-04   4.7013089E+05   -1.8094237E+00
   1.6147454E-04   4.6622834E+05   -1.8088800E+00
   1.6222024E-04   4.6235935E+05   -1.8083357E+00
   1.6296939E-04   4.5852362E+05   -1.8077908E+00
   1.6372200E-04   4.5472085E+05   -1.8072453E+00
   1.6447809E-04   4.5095075E+05   -1.8066993E+00
   1.6523767E-04   4.4721304E+05   -1.8061527E+00
   1.6600075E-04   4.4350742E+05   -1.8056055E+00
   1.6676736E-04   4.3983362E+05   -1.8050577E+00
   1.6753751E-04   4.3619135E+05   -1.8045094E+00
   1.6831122E-04   4.3258034E+05   -1.8039606E+00
   1.6908849E-04   4.2900030E+05   -1.8034111E+00
   1.6986936E-04   4.2545097E+05   -1.8028612E+00
   1.7065384E-04   4.2193208E+05   -1.8023107E+00
   1.7144193E-04   4.1844335E+05   -1.8017597E+00
   1.7223367E-04   4.1498452E+05   -1.8012082E+00
   1.7302906E-04   4.1155533E+05   -1.8006561E+00
   1.7382813E-04   4.0815552E+05   -1.8001035E+00
   1.7463089E-04   4.0478482E+05   -1.7995504E+00
   1.7543735E-04   4.0144298E+05   -1.7989968E+00
   1.7624754E-04   3.9812975E+05   -1.7984427E+00
   1.7706147E-04   3.9484487E+05   -1.7978882E+00
   1.7787916E-04   3.9158810E+05   -1.7973331E+00
   1.7870062E-04   3.8835918E+05   -1.7967775E+00
   1.7952588E-04   3.8515787E+05   -1.7962215E+00
   1.8035495E-04   3.8198393E+05   -1.7956650E+00
   1.8118785E-04   3.7883712E+05   -1.7951080E+00
   1.8202459E-04   3.7571719E+05   -1.7945505E+00
   1.8286520E-04   3.7262392E+05   -1.7939926E+00
   1.8370969E-04   3.6955707E+05   -1.7934342E+00
   1.8455808E-04   3.6651640E+05   -1.7928754E+00
   1.8541039E-04   3.6350168E+05   -1.7923162E+00
   1.8626663E-04   3.6051269E+05   -1.7917565E+00
   1.8712683E-04   3.5754920E+05   -1.7911964E+00
   1.8799100E-04   3.5461099E+05   -1.7906358E+00
   1.8885917E-04   3.5169783E+05   -1.7900749E+00
   1.8973134E-04   3.4880950E+05   -1.7895135E+00
   1.9060754E-04   3.4594579E+05   -1.7889517E+00
   1.9148778E-04   3.4310648E+05   -1.7883895E+00
   1.9237209E-04   3.4029135E+05   -1.7878269E+00
   1.9326049E-04   3.3750020E+05   -1.7872639E+00
   1.9415299E-04   3.3473281E+05   -1.7867006E+00
   1.9504960E-04   3.3198897E+05   -1.7861368E+00
   1.9595036E-04   3.2926848E+05   -1.7855727E+00
   1.9685528E-04   3.2657113E+05   -1.7850082E+00
   1.9776438E-04   3.2389673E+05   -1.7844433E+00
   1.9867768E-04   3.2124506E+05   -1.7838781E+00
   1.9959519E-04   3.1861592E+05   -1.7833125E+00
   2.0051694E-04   3.1600913E+05   -1.7827466E+00
   2.0144295E-04   3.1342449E+05   -1.7821804E+00
   2.0237324E-04   3.1086179E+05   -1.7816138E+00
   2.0330782E-04   3.0832086E+05   -1.7810468E+00
   2.0424671E-04   3.0580149E+05   -1.7804796E+00
   2.0518995E-04   3.0330350E+05   -1.7799120E+00
   2.0613754E-04   3.0082670E+05   -1.7793441E+00
   2.0708950E-04   2.9837091E+05   -1.7787759E+00
   2.0804586E-04   2.9593595E+05   -1.7782074E+00
   2.0900664E-04   2.9352162E+05   -1.7776386E+00
   2.0997185E-04   2.9112776E+05   -1.7770695E+00
   2.1094152E-04   2.8875417E+05   -1.7765002E+00
   2.1191567E-04   2.8640069E+05   -1.7759305E+00
   2.1289432E-04   2.8406713E+05   -1.7753606E+00
   2.1387749E-04   2.8175333E+05   -1.7747904E+00
   2.1486520E-04   2.7945911E+05   -1.7742200E+00
   2.1585747E-04   2.7718430E+05   -1.7736493E+00
   2.1685432E-04   2.7492873E+05   -1.7730783E+00
   2.1785578E-04   2.7269223E+05   -1.7725071E+00
   2.1886186E-04   2.7047464E+05   -1.7719357E+00
   2.1987259E-04   2.6827579E+05   -1.7713640E+00
   2.2088798E-04   2.6609552E+05   -1.7707922E+00
   2.2190807E-04   2.6393365E+05   -1.7702201E+00
   2.2293286E-04   2.6179005E+05   -1.7696477E+00
   2.2396239E-04   2.5966454E+05   -1.7690752E+00
   2.2499667E-04   2.5755696E+05   -1.7685025E+00
   2.2603573E-04   2.5546717E+05   -1.7679295E+00
   2.2707958E-04   2.5339500E+05   -1.7673564E+00
   2.2812826E-04   2.5134030E+05   -1.7667831E+00
   2.2918178E-04   2.4930292E+05   -1.7662097E+00
   2.3024017E-04   2.4728271E+05   -1.7656360E+00
   2.3130344E-04   2.4527952E+05   -1.7650622E+00
   2.3237162E-04   2.4329320E+05   -1.7644882E+00
   2.3344474E-04   2.4132361E+05   -1.7639141E+00
   2.3452281E-04   2.3937059E+05   -1.7633398E+00
   2.3560586E-04   2.3743401E+05   -1.7627654E+00
   2.3669392E-04   2.3551371E+05   -1.7621909E+00
   2.3778699E-04   2.3360957E+05   -1.7616162E+00
   2.3888512E-04   2.3172144E+05   -1.7610414E+00
   2.3998831E-04   2.2984917E+05   -1.7604664E+00
   2.4109661E-04   2.2799264E+05   -1.7598914E+00
   2.4221001E-04   2.2615170E+05   -1.7593163E+00
   2.4332857E-04   2.2432622E+05   -1.7587410E+00
   2.4445228E-04   2.2251607E+05   -1.7581657E+00
   2.4558119E-04   2.2072110E+05   -1.7575903E+00
   2.4671531E-04   2.1894120E+05   -1.7570148E+00
   2.4785467E-04   2.1717623E+05   -1.7564392E+00
   2.4899928E-04   2.1542605E+05   -1.7558636E+00
   2.5014919E-04   2.1369055E+05   -1.7552879E+00
   2.5130440E-04   2.1196959E+05   -1.7547121E+00
   2.5246495E-04   2.1026305E+05   -1.7541363E+00
   2.5363086E-04   2.0857080E+05   -1.7535604E+00
   2.5480216E-04   2.0689272E+05   -1.7529845E+00
   2.5597886E-04   2.0522868E+05   -1.7524086E+00
   2.5716100E-04   2.0357857E+05   -1.7518327E+00
   2.5834859E-04   2.0194227E+05   -1.7512567E+00
   2.5954168E-04   2.0031964E+05   -1.7506807E+00
   2.6074027E-04   1.9871058E+05   -1.7501047E+00
   2.6194439E-04   1.9711497E+05   -1.7495287E+00
   2.6315408E-04   1.9553269E+05   -1.7489527E+00
   2.6436935E-04   1.9396363E+05   -1.7483768E+00
   2.6559024E-04   1.9240767E+05   -1.7478008E+00
   2.6681676E-04   1.9086470E+05   -1.7472248E+00
   2.6804895E-04   1.8933460E+05   -1.7466489E+00
   2.6928683E-04   1.8781727E+05   -1.7460731E+00
   2.7053042E-04   1.8631259E+05   -1.7454972E+00
   2.7177976E-04   1.8482045E+05   -1.7449214E+00
   2.7303487E-04   1.8334076E+05   -1.7443457E+00
   2.7429577E-04   1.8187339E+05   -1.7437700E+00
   2.7556250E-04   1.8041824E+05   -1.7431944E+00
   2.7683507E-04   1.7897521E+05   -1.7426189E+00
   2.7811353E-04   1.7754420E+05   -1.7420434E+00
   2.7939788E-04   1.7612509E+05   -1.7414681E+00
   2.8068817E-04   1.7471779E+05   -1.7408928E+00
   2.8198442E-04   1.7332219E+05   -1.7403176E+00
   2.8328665E-04   1.7193820E+05   -1.7397425E+00
   2.8459490E-04   1.7056571E+05   -1.7391675E+00
   2.8590919E-04   1.6920462E+05   -1.7385926E+00
   2.8722955E-04   1.6785484E+05   -1.7380179E+00
   2.8855600E-04   1.6651627E+05   -1.7374433E+00
   2.8988859E-04   1.6518881E+05   -1.7368688E+00
   2.9122732E-04   1.6387237E+05   -1.7362945E+00
   2.9257224E-04   1.6256684E+05   -1.7357203E+00
   2.9392337E-04   1.6127215E+05   -1.7351462E+00
   2.9528074E-04   1.5998819E+05   -1.7345723E+00
   2.9664438E-04   1.5871487E+05   -1.7339986E+00
   2.9801431E-04   1.5745210E+05   -1.7334250E+00
   2.9939057E-04   1.5619979E+05   -1.7328516E+00
   3.0077319E-04   1.5495785E+05   -1.7322784E+00
   3.0216219E-04   1.5372619E+05   -1.7317054E+00
   3.0355761E-04   1.5250472E+05   -1.7311326E+00
   3.0495947E-04   1.5129336E+05   -1.7305599E+00
   3.0636780E-04   1.5009202E+05   -1.7299875E+00
   3.0778264E-04   1.4890060E+05   -1.7294153E+00
   3.0920401E-04   1.4771904E+05   -1.7288433E+00
   3.1063195E-04   1.4654723E+05   -1.7282715E+00
   3.1206648E-04   1.4538511E+05   -1.7277000E+00
   3.1350764E-04   1.4423258E+05   -1.7271287E+00
   3.1495545E-04   1.4308956E+05   -1.7265576E+00
   3.1640994E-04   1.4195598E+05   -1.7259868E+00
   3.1787116E-04   1.4083174E+05   -1.7254162E+00
   3.1933912E-04   1.3971678E+05   -1.7248459E+00
   3.2081386E-04   1.3861101E+05   -1.7242758E+00
   3.2229541E-04   1.3751435E+05   -1.7237060E+00
   3.2378381E-04   1.3642672E+05   -1.7231365E+00
   3.2527908E-04   1.3534805E+05   -1.7225673E+00
   3.2678125E-04   1.3427827E+05   -1.7219984E+00
   3.2829036E-04   1.3321729E+05   -1.7214297E+00
   3.2980644E-04   1.3216503E+05   -1.7208614E+00
   3.3132952E-04   1.3112143E+05   -1.7202933E+00
   3.3285963E-04   1.3008642E+05   -1.7197256E+00
   3.3439681E-04   1.2905991E+05   -1.7191582E+00
   3.3594109E-04   1.2804183E+05   -1.7185911E+00
   3.3749250E-04   1.2703212E+05   -1.7180243E+00
   3.3905108E-04   1.2603070E+05   -1.7174579E+00
   3.4061685E-04   1.2503750E+05   -1.7168918E+00
   3.4218986E-04   1.2405245E+05   -1.7163260E+00
   3.4377013E-04   1.2307548E+05   -1.7157606E+00
   3.4535769E-04   1.2210652E+05   -1.7151956E+00
   3.4695259E-04   1.2114551E+05   -1.7146309E+00
   3.4855485E-04   1.2019237E+05   -1.7140666E+00
   3.5016452E-04   1.1924704E+05   -1.7135027E+00
   3.5178161E-04   1.1830946E+05   -1.7129391E+00
   3.5340618E-04   1.1737955E+05   -1.7123759E+00
   3.5503824E-04   1.1645725E+05   -1.7118131E+00
   3.5667785E-04   1.1554250E+05   -1.7112507E+00
   3.5832502E-04   1.1463523E+05   -1.7106887E+00
   3.5997981E-04   1.1373538E+05   -1.7101271E+00
   3.6164223E-04   1.1284288E+05   -1.7095660E+00
   3.6331233E-04   1.1195768E+05   -1.7090052E+00
   3.6499015E-04   1.1107971E+05   -1.7084449E+00
   3.6667571E-04   1.1020891E+05   -1.7078850E+00
   3.6836906E-04   1.0934522E+05   -1.7073255E+00
   3.7007022E-04   1.0848857E+05   -1.7067665E+00
   3.7177925E-04   1.0763891E+05   -1.7062079E+00
   3.7349616E-04   1.0679618E+05   -1.7056497E+00
   3.7522101E-04   1.0596033E+05   -1.7050921E+00
   3.7695382E-04   1.0513128E+05   -1.7045348E+00
   3.7869463E-04   1.0430899E+05   -1.7039781E+00
   3.8044348E-04   1.0349339E+05   -1.7034218E+00
   3.8220041E-04   1.0268444E+05   -1.7028660E+00
   3.8396545E-04   1.0188207E+05   -1.7023107E+00
   3.8573864E-04   1.0108623E+05   -1.7017558E+00
   3.8752002E-04   1.0029686E+05   -1.7012015E+00
   3.8930963E-04   9.9513909E+04   -1.7006476E+00
   3.9110750E-04   9.8737321E+04   -1.7000943E+00
   3.9291368E-04   9.7967044E+04   -1.6995414E+00
   3.9472820E-04   9.7203023E+04   -1.6989891E+00
   3.9655109E-04   9.6445206E+04   -1.6984373E+00
   3.9838241E-04   9.5693541E+04   -1.6978860E+00
   4.0022218E-04   9.4947974E+04   -1.6973353E+00
   4.0207045E-04   9.4208456E+04   -1.6967851E+00
   4.0392725E-04   9.3474934E+04   -1.6962354E+00
   4.0579263E-04   9.2747359E+04   -1.6956862E+00
   4.0766662E-04   9.2025679E+04   -1.6951376E+00
   4.0954927E-04   9.1309846E+04   -1.6945896E+00
   4.1144061E-04   9.0599809E+04   -1.6940421E+00
   4.1334068E-04   8.9895520E+04   -1.6934952E+00
   4.1524953E-04   8.9196931E+04   -1.6929489E+00
   4.1716720E-04   8.8503994E+04   -1.6924031E+00
   4.1909372E-04   8.7816660E+04   -1.6918579E+00
   4.2102914E-04   8.7134882E+04   -1.6913133E+00
   4.2297350E-04   8.6458615E+04   -1.6907693E+00
   4.2492683E-04   8.5787811E+04   -1.6902258E+00
   4.2688919E-04   8.5122425E+04   -1.6896830E+00
   4.2886061E-04   8.4462411E+04   -1.6891408E+00
   4.3084113E-04   8.3807724E+04   -1.6885991E+00
   4.3283080E-04   8.3158319E+04   -1.6880581E+00
   4.3482966E-04   8.2514151E+04   -1.6875177E+00
   4.3683775E-04   8.1875177E+04   -1.6869780E+00
   4.3885511E-04   8.1241353E+04   -1.6864388E+00
   4.4088179E-04   8.0612636E+04   -1.6859003E+00
   4.4291783E-04   7.9988983E+04   -1.6853624E+00
   4.4496327E-04   7.9370351E+04   -1.6848252E+00
   4.4701816E-04   7.8756698E+04   -1.6842886E+00
   4.4908253E-04   7.8147983E+04   -1.6837526E+00
   4.5115644E-04   7.7544164E+04   -1.6832173E+00
   4.5323993E-04   7.6945201E+04   -1.6826827E+00
   4.5533304E-04   7.6351051E+04   -1.6821487E+00
   4.5743582E-04   7.5761676E+04   -1.6816154E+00
   4.5954830E-04   7.5177036E+04   -1.6810828E+00
   4.6167054E-04   7.4597089E+04   -1.6805508E+00
   4.6380259E-04   7.4021798E+04   -1.6800195E+00
   4.6594448E-04   7.3451123E+04   -1.6794889E+00
   4.6809626E-04   7.2885026E+04   -1.6789590E+00
   4.7025797E-04   7.2323468E+04   -1.6784298E+00
   4.7242967E-04   7.1766412E+04   -1.6779012E+00
   4.7461140E-04   7.1213820E+04   -1.6773734E+00
   4.7680321E-04   7.0665654E+04   -1.6768463E+00
   4.7900514E-04   7.0121878E+04   -1.6763199E+00
   4.8121723E-04   6.9582455E+04   -1.6757942E+00
   4.8343954E-04   6.9047349E+04   -1.6752692E+00
   4.8567212E-04   6.8516524E+04   -1.6747450E+00
   4.8791500E-04   6.7989943E+04   -1.6742214E+00
   4.9016825E-04   6.7467573E+04   -1.6736986E+00
   4.9243189E-04   6.6949376E+04   -1.6731766E+00
   4.9470600E-04   6.6435320E+04   -1.6726552E+00
   4.9699060E-04   6.5925369E+04   -1.6721346E+00
   4.9928575E-04   6.5419489E+04   -1.6716148E+00
   5.0159151E-04   6.4917646E+04   -1.6710957E+00
   5.0390791E-04   6.4419807E+04   -1.6705774E+00
   5.0623501E-04   6.3925938E+04   -1.6700598E+00
   5.0857286E-04   6.3436007E+04   -1.6695430E+00
   5.1092150E-04   6.2949980E+04   -1.6690269E+00
   5.1328099E-04   6.2467825E+04   -1.6685116E+00
   5.1565137E-04   6.1989511E+04   -1.6679971E+00
   5.1803270E-04   6.1515005E+04   -1.6674834E+00
   5.2042503E-04   6.1044275E+04   -1.6669704E+00
   5.2282841E-04   6.0577291E+04   -1.6664582E+00
   5.2524289E-04   6.0114020E+04   -1.6659468E+00
   5.2766851E-04   5.9654433E+04   -1.6654362E+00
   5.3010534E-04   5.9198499E+04   -1.6649264E+00
   5.3255342E-04   5.8746187E+04   -1.6644174E+00
   5.3501281E-04   5.8297468E+04   -1.6639092E+00
   5.3748356E-04   5.7852312E+04   -1.6634018E+00
   5.3996571E-04   5.7410689E+04   -1.6628952E+00
   5.4245933E-04   5.6972570E+04   -1.6623895E+00
   5.4496446E-04   5.6537926E+04   -1.6618845E+00
   5.4748117E-04   5.6106728E+04   -1.6613803E+00
   5.5000949E-04   5.5678949E+04   -1.6608770E+00
   5.5254949E-04   5.5254559E+04   -1.6603745E+00
   5.5510123E-04   5.4833530E+04   -1.6598728E+00
   5.5766474E-04   5.4415835E+04   -1.6593720E+00
   5.6024010E-04   5.4001447E+04   -1.6588720E+00
   5.6282734E-04   5.3590338E+04   -1.6583728E+00
   5.6542654E-04   5.3182480E+04   -1.6578745E+00
   5.6803774E-04   5.2777848E+04   -1.6573770E+00
   5.7066099E-04   5.2376414E+04   -1.6568804E+00
   5.7329637E-04   5.1978152E+04   -1.6563846E+00
   5.7594391E-04   5.1583037E+04   -1.6558897E+00
   5.7860368E-04   5.1191042E+04   -1.6553956E+00
   5.8127573E-04   5.0802141E+04   -1.6549024E+00
   5.8396012E-04   5.0416309E+04   -1.6544100E+00
   5.8665691E-04   5.0033521E+04   -1.6539185E+00
   5.8936616E-04   4.9653751E+04   -1.6534279E+00
   5.9208791E-04   4.9276975E+04   -1.6529382E+00
   5.9482223E-04   4.8903169E+04   -1.6524493E+00
   5.9756919E-04   4.8532307E+04   -1.6519613E+00
   6.0032882E-04   4.8164366E+04   -1.6514742E+00
   6.0310120E-04   4.7799322E+04   -1.6509879E+00
   6.0588639E-04   4.7437150E+04   -1.6505026E+00
   6.0868443E-04   4.7077828E+04   -1.6500181E+00
   6.1149540E-04   4.6721332E+04   -1.6495346E+00
   6.1431935E-04   4.6367639E+04   -1.6490519E+00
   6.1715634E-04   4.6016725E+04   -1.6485701E+00
   6.2000644E-04   4.5668569E+04   -1.6480892E+00
   6.2286969E-04   4.5323147E+04   -1.6476093E+00
