#        a       HoverH0(a)       dlogHdloga_of_a(a)
   1.0000000E-04   1.1255552E+06   -1.8943383E+00
   1.0046181E-04   1.1157750E+06   -1.8939538E+00
   1.0092575E-04   1.1060817E+06   -1.8935683E+00
   1.0139184E-04   1.0964745E+06   -1.8931818E+00
   1.0186008E-04   1.0869528E+06   -1.8927943E+00
   1.0233048E-04   1.0775157E+06   -1.8924057E+00
   1.0280305E-04   1.0681624E+06   -1.8920161E+00
   1.0327781E-04   1.0588922E+06   -1.8916255E+00
   1.0375475E-04   1.0497043E+06   -1.8912339E+00
   1.0423390E-04   1.0405981E+06   -1.8908412E+00
   1.0471527E-04   1.0315727E+06   -1.8904475E+00
   1.0519885E-04   1.0226275E+06   -1.8900529E+00
   1.0568467E-04   1.0137616E+06   -1.8896571E+00
   1.0617274E-04   1.0049745E+06   -1.8892604E+00
   1.0666305E-04   9.9626534E+05   -1.8888627E+00
   1.0715563E-04   9.8763349E+05   -1.8884639E+00
   1.0765049E-04   9.7907822E+05   -1.8880641E+00
   1.0814763E-04   9.7059886E+05   -1.8876633E+00
   1.0864707E-04   9.6219470E+05   -1.8872615E+00
   1.0914881E-04   9.5386509E+05   -1.8868586E+00
   1.0965287E-04   9.4560934E+05   -1.8864548E+00
   1.1015926E-04   9.3742679E+05   -1.8860499E+00
   1.1066799E-04   9.2931678E+05   -1.8856440E+00
   1.1117906E-04   9.2127866E+05   -1.8852371E+00
   1.1169250E-04   9.1331178E+05   -1.8848292E+00
   1.1220831E-04   9.0541550E+05   -1.8844202E+00
   1.1272650E-04   8.9758918E+05   -1.8840103E+00
   1.1324708E-04   8.8983219E+05   -1.8835993E+00
   1.1377007E-04   8.8214391E+05   -1.8831873E+00
   1.1429547E-04   8.7452373E+05   -1.8827743E+00
   1.1482330E-04   8.6697102E+05   -1.8823603E+00
   1.1535356E-04   8.5948518E+05   -1.8819453E+00
   1.1588628E-04   8.5206560E+05   -1.8815293E+00
   1.1642145E-04   8.4471170E+05   -1.8811122E+00
   1.1695910E-04   8.3742288E+05   -1.8806942E+00
   1.1749923E-04   8.3019855E+05   -1.8802751E+00
   1.1804185E-04   8.2303814E+05   -1.8798550E+00
   1.1858698E-04   8.1594106E+05   -1.8794340E+00
   1.1913463E-04   8.0890676E+05   -1.8790119E+00
   1.1968481E-04   8.0193465E+05   -1.8785888E+00
   1.2023752E-04   7.9502420E+05   -1.8781647E+00
   1.2079279E-04   7.8817484E+05   -1.8777396E+00
   1.2135063E-04   7.8138602E+05   -1.8773136E+00
   1.2191104E-04   7.7465719E+05   -1.8768865E+00
   1.2247403E-04   7.6798782E+05   -1.8764584E+00
   1.2303963E-04   7.6137738E+05   -1.8760293E+00
   1.2360784E-04   7.5482533E+05   -1.8755992E+00
   1.2417868E-04   7.4833115E+05   -1.8751681E+00
   1.2475215E-04   7.4189431E+05   -1.8747360E+00
   1.2532826E-04   7.3551431E+05   -1.8743029E+00
   1.2590704E-04   7.2919063E+05   -1.8738689E+00
   1.2648850E-04   7.2292276E+05   -1.8734338E+00
   1.2707263E-04   7.1671021E+05   -1.8729978E+00
   1.2765947E-04   7.1055248E+05   -1.8725607E+00
   1.2824901E-04   7.0444908E+05   -1.8721227E+00
   1.2884128E-04   6.9839951E+05   -1.8716837E+00
   1.2943628E-04   6.9240330E+05   -1.8712437E+00
   1.3003403E-04   6.8645996E+05   -1.8708027E+00
   1.3063454E-04   6.8056902E+05   -1.8703607E+00
   1.3123783E-04   6.7473001E+05   -1.8699177E+00
   1.3184390E-04   6.6894246E+05   -1.8694738E+00
   1.3245277E-04   6.6320591E+05   -1.8690289E+00
   1.3306445E-04   6.5751991E+05   -1.8685830E+00
   1.3367895E-04   6.5188400E+05   -1.8681361E+00
   1.3429630E-04   6.4629772E+05   -1.8676883E+00
   1.3491649E-04   6.4076064E+05   -1.8672395E+00
   1.3553955E-04   6.3527232E+05   -1.8667897E+00
   1.3616548E-04   6.2983231E+05   -1.8663390E+00
   1.3679431E-04   6.2444018E+05   -1.8658872E+00
   1.3742604E-04   6.1909551E+05   -1.8654346E+00
   1.3806069E-04   6.1379786E+05   -1.8649809E+00
   1.3869827E-04   6.0854682E+05   -1.8645263E+00
   1.3933879E-04   6.0334197E+05   -1.8640707E+00
   1.3998227E-04   5.9818289E+05   -1.8636142E+00
   1.4062872E-04   5.9306918E+05   -1.8631567E+00
   1.4127816E-04   5.8800042E+05   -1.8626982E+00
   1.4193060E-04   5.8297621E+05   -1.8622388E+00
   1.4258605E-04   5.7799616E+05   -1.8617785E+00
   1.4324453E-04   5.7305986E+05   -1.8613172E+00
   1.4390605E-04   5.6816694E+05   -1.8608549E+00
   1.4457062E-04   5.6331699E+05   -1.8603918E+00
   1.4523826E-04   5.5850964E+05   -1.8599276E+00
   1.4590899E-04   5.5374449E+05   -1.8594625E+00
   1.4658281E-04   5.4902118E+05   -1.8589965E+00
   1.4725974E-04   5.4433933E+05   -1.8585296E+00
   1.4793981E-04   5.3969857E+05   -1.8580617E+00
   1.4862301E-04   5.3509852E+05   -1.8575929E+00
   1.4930936E-04   5.3053883E+05   -1.8571231E+00
   1.4999889E-04   5.2601914E+05   -1.8566524E+00
   1.5069160E-04   5.2153907E+05   -1.8561808E+00
   1.5138751E-04   5.1709829E+05   -1.8557083E+00
   1.5208663E-04   5.1269644E+05   -1.8552348E+00
   1.5278899E-04   5.0833317E+05   -1.8547605E+00
   1.5349458E-04   5.0400814E+05   -1.8542852E+00
   1.5420343E-04   4.9972100E+05   -1.8538090E+00
   1.5491556E-04   4.9547142E+05   -1.8533318E+00
   1.5563098E-04   4.9125906E+05   -1.8528538E+00
   1.5634970E-04   4.8708358E+05   -1.8523749E+00
   1.5707174E-04   4.8294466E+05   -1.8518950E+00
   1.5779711E-04   4.7884196E+05   -1.8514143E+00
   1.5852584E-04   4.7477518E+05   -1.8509327E+00
   1.5925792E-04   4.7074397E+05   -1.8504501E+00
   1.5999339E-04   4.6674804E+05   -1.8499667E+00
   1.6073226E-04   4.6278705E+05   -1.8494824E+00
   1.6147454E-04   4.5886071E+05   -1.8489972E+00
   1.6222024E-04   4.5496869E+05   -1.8485111E+00
   1.6296939E-04   4.5111070E+05   -1.8480241E+00
   1.6372200E-04   4.4728643E+05   -1.8475362E+00
   1.6447809E-04   4.4349557E+05   -1.8470475E+00
   1.6523767E-04   4.3973784E+05   -1.8465578E+00
   1.6600075E-04   4.3601292E+05   -1.8460674E+00
   1.6676736E-04   4.3232054E+05   -1.8455760E+00
   1.6753751E-04   4.2866040E+05   -1.8450838E+00
   1.6831122E-04   4.2503221E+05   -1.8445907E+00
   1.6908849E-04   4.2143569E+05   -1.8440967E+00
   1.6986936E-04   4.1787055E+05   -1.8436019E+00
   1.7065384E-04   4.1433652E+05   -1.8431063E+00
   1.7144193E-04   4.1083332E+05   -1.8426098E+00
   1.7223367E-04   4.0736066E+05   -1.8421124E+00
   1.7302906E-04   4.0391829E+05   -1.8416142E+00
   1.7382813E-04   4.0050593E+05   -1.8411151E+00
   1.7463089E-04   3.9712331E+05   -1.8406152E+00
   1.7543735E-04   3.9377016E+05   -1.8401145E+00
   1.7624754E-04   3.9044624E+05   -1.8396130E+00
   1.7706147E-04   3.8715126E+05   -1.8391106E+00
   1.7787916E-04   3.8388498E+05   -1.8386074E+00
   1.7870062E-04   3.8064714E+05   -1.8381033E+00
   1.7952588E-04   3.7743748E+05   -1.8375985E+00
   1.8035495E-04   3.7425576E+05   -1.8370928E+00
   1.8118785E-04   3.7110173E+05   -1.8365863E+00
   1.8202459E-04   3.6797514E+05   -1.8360790E+00
   1.8286520E-04   3.6487574E+05   -1.8355709E+00
   1.8370969E-04   3.6180330E+05   -1.8350620E+00
   1.8455808E-04   3.5875757E+05   -1.8345523E+00
   1.8541039E-04   3.5573831E+05   -1.8340418E+00
   1.8626663E-04   3.5274530E+05   -1.8335306E+00
   1.8712683E-04   3.4977829E+05   -1.8330185E+00
   1.8799100E-04   3.4683706E+05   -1.8325056E+00
   1.8885917E-04   3.4392137E+05   -1.8319920E+00
   1.8973134E-04   3.4103100E+05   -1.8314776E+00
   1.9060754E-04   3.3816573E+05   -1.8309624E+00
   1.9148778E-04   3.3532532E+05   -1.8304464E+00
   1.9237209E-04   3.3250956E+05   -1.8299297E+00
   1.9326049E-04   3.2971823E+05   -1.8294122E+00
   1.9415299E-04   3.2695112E+05   -1.8288940E+00
   1.9504960E-04   3.2420800E+05   -1.8283750E+00
   1.9595036E-04   3.2148867E+05   -1.8278552E+00
   1.9685528E-04   3.1879291E+05   -1.8273347E+00
   1.9776438E-04   3.1612051E+05   -1.8268135E+00
   1.9867768E-04   3.1347127E+05   -1.8262915E+00
   1.9959519E-04   3.1084498E+05   -1.8257688E+00
   2.0051694E-04   3.0824144E+05   -1.8252454E+00
   2.0144295E-04   3.0566043E+05   -1.8247212E+00
   2.0237324E-04   3.0310178E+05   -1.8241963E+00
   2.0330782E-04   3.0056527E+05   -1.8236707E+00
   2.0424671E-04   2.9805070E+05   -1.8231444E+00
   2.0518995E-04   2.9555789E+05   -1.8226173E+00
   2.0613754E-04   2.9308665E+05   -1.8220896E+00
   2.0708950E-04   2.9063677E+05   -1.8215611E+00
   2.0804586E-04   2.8820808E+05   -1.8210320E+00
   2.0900664E-04   2.8580037E+05   -1.8205022E+00
   2.0997185E-04   2.8341348E+05   -1.8199716E+00
   2.1094152E-04   2.8104720E+05   -1.8194404E+00
   2.1191567E-04   2.7870136E+05   -1.8189085E+00
   2.1289432E-04   2.7637579E+05   -1.8183760E+00
   2.1387749E-04   2.7407029E+05   -1.8178427E+00
   2.1486520E-04   2.7178469E+05   -1.8173088E+00
   2.1585747E-04   2.6951881E+05   -1.8167742E+00
   2.1685432E-04   2.6727248E+05   -1.8162390E+00
   2.1785578E-04   2.6504553E+05   -1.8157031E+00
   2.1886186E-04   2.6283779E+05   -1.8151666E+00
   2.1987259E-04   2.6064908E+05   -1.8146294E+00
   2.2088798E-04   2.5847923E+05   -1.8140916E+00
   2.2190807E-04   2.5632809E+05   -1.8135532E+00
   2.2293286E-04   2.5419548E+05   -1.8130141E+00
   2.2396239E-04   2.5208123E+05   -1.8124744E+00
   2.2499667E-04   2.4998520E+05   -1.8119340E+00
   2.2603573E-04   2.4790721E+05   -1.8113931E+00
   2.2707958E-04   2.4584710E+05   -1.8108515E+00
   2.2812826E-04   2.4380473E+05   -1.8103093E+00
   2.2918178E-04   2.4177992E+05   -1.8097666E+00
   2.3024017E-04   2.3977254E+05   -1.8092232E+00
   2.3130344E-04   2.3778241E+05   -1.8086792E+00
   2.3237162E-04   2.3580939E+05   -1.8081347E+00
   2.3344474E-04   2.3385333E+05   -1.8075895E+00
   2.3452281E-04   2.3191409E+05   -1.8070438E+00
   2.3560586E-04   2.2999150E+05   -1.8064975E+00
   2.3669392E-04   2.2808542E+05   -1.8059506E+00
   2.3778699E-04   2.2619571E+05   -1.8054032E+00
   2.3888512E-04   2.2432222E+05   -1.8048552E+00
   2.3998831E-04   2.2246481E+05   -1.8043067E+00
   2.4109661E-04   2.2062334E+05   -1.8037576E+00
   2.4221001E-04   2.1879767E+05   -1.8032079E+00
   2.4332857E-04   2.1698765E+05   -1.8026578E+00
   2.4445228E-04   2.1519315E+05   -1.8021070E+00
   2.4558119E-04   2.1341404E+05   -1.8015558E+00
   2.4671531E-04   2.1165017E+05   -1.8010040E+00
   2.4785467E-04   2.0990142E+05   -1.8004517E+00
   2.4899928E-04   2.0816764E+05   -1.7998989E+00
   2.5014919E-04   2.0644871E+05   -1.7993456E+00
   2.5130440E-04   2.0474450E+05   -1.7987918E+00
   2.5246495E-04   2.0305487E+05   -1.7982375E+00
   2.5363086E-04   2.0137970E+05   -1.7976827E+00
   2.5480216E-04   1.9971886E+05   -1.7971274E+00
   2.5597886E-04   1.9807223E+05   -1.7965716E+00
   2.5716100E-04   1.9643967E+05   -1.7960154E+00
   2.5834859E-04   1.9482107E+05   -1.7954586E+00
   2.5954168E-04   1.9321630E+05   -1.7949014E+00
   2.6074027E-04   1.9162525E+05   -1.7943438E+00
   2.6194439E-04   1.9004778E+05   -1.7937857E+00
   2.6315408E-04   1.8848379E+05   -1.7932271E+00
   2.6436935E-04   1.8693314E+05   -1.7926681E+00
   2.6559024E-04   1.8539573E+05   -1.7921086E+00
   2.6681676E-04   1.8387144E+05   -1.7915488E+00
   2.6804895E-04   1.8236016E+05   -1.7909884E+00
   2.6928683E-04   1.8086176E+05   -1.7904277E+00
   2.7053042E-04   1.7937614E+05   -1.7898666E+00
   2.7177976E-04   1.7790318E+05   -1.7893050E+00
   2.7303487E-04   1.7644277E+05   -1.7887430E+00
   2.7429577E-04   1.7499480E+05   -1.7881806E+00
   2.7556250E-04   1.7355917E+05   -1.7876178E+00
   2.7683507E-04   1.7213576E+05   -1.7870547E+00
   2.7811353E-04   1.7072447E+05   -1.7864911E+00
   2.7939788E-04   1.6932519E+05   -1.7859272E+00
   2.8068817E-04   1.6793781E+05   -1.7853629E+00
   2.8198442E-04   1.6656224E+05   -1.7847982E+00
   2.8328665E-04   1.6519836E+05   -1.7842332E+00
   2.8459490E-04   1.6384607E+05   -1.7836678E+00
   2.8590919E-04   1.6250528E+05   -1.7831020E+00
   2.8722955E-04   1.6117589E+05   -1.7825359E+00
   2.8855600E-04   1.5985778E+05   -1.7819695E+00
   2.8988859E-04   1.5855087E+05   -1.7814027E+00
   2.9122732E-04   1.5725505E+05   -1.7808356E+00
   2.9257224E-04   1.5597023E+05   -1.7802682E+00
   2.9392337E-04   1.5469631E+05   -1.7797005E+00
   2.9528074E-04   1.5343320E+05   -1.7791324E+00
   2.9664438E-04   1.5218080E+05   -1.7785641E+00
   2.9801431E-04   1.5093902E+05   -1.7779954E+00
   2.9939057E-04   1.4970777E+05   -1.7774265E+00
   3.0077319E-04   1.4848695E+05   -1.7768573E+00
   3.0216219E-04   1.4727647E+05   -1.7762877E+00
   3.0355761E-04   1.4607624E+05   -1.7757179E+00
   3.0495947E-04   1.4488617E+05   -1.7751479E+00
   3.0636780E-04   1.4370617E+05   -1.7745776E+00
   3.0778264E-04   1.4253616E+05   -1.7740070E+00
   3.0920401E-04   1.4137605E+05   -1.7734361E+00
   3.1063195E-04   1.4022575E+05   -1.7728650E+00
   3.1206648E-04   1.3908517E+05   -1.7722937E+00
   3.1350764E-04   1.3795424E+05   -1.7717221E+00
   3.1495545E-04   1.3683286E+05   -1.7711503E+00
   3.1640994E-04   1.3572096E+05   -1.7705783E+00
   3.1787116E-04   1.3461844E+05   -1.7700061E+00
   3.1933912E-04   1.3352523E+05   -1.7694336E+00
   3.2081386E-04   1.3244125E+05   -1.7688610E+00
   3.2229541E-04   1.3136642E+05   -1.7682881E+00
   3.2378381E-04   1.3030065E+05   -1.7677151E+00
   3.2527908E-04   1.2924387E+05   -1.7671418E+00
   3.2678125E-04   1.2819600E+05   -1.7665684E+00
   3.2829036E-04   1.2715696E+05   -1.7659948E+00
   3.2980644E-04   1.2612668E+05   -1.7654211E+00
   3.3132952E-04   1.2510508E+05   -1.7648471E+00
   3.3285963E-04   1.2409208E+05   -1.7642731E+00
   3.3439681E-04   1.2308760E+05   -1.7636988E+00
   3.3594109E-04   1.2209158E+05   -1.7631244E+00
   3.3749250E-04   1.2110394E+05   -1.7625499E+00
   3.3905108E-04   1.2012461E+05   -1.7619753E+00
   3.4061685E-04   1.1915352E+05   -1.7614005E+00
   3.4218986E-04   1.1819058E+05   -1.7608256E+00
   3.4377013E-04   1.1723574E+05   -1.7602506E+00
   3.4535769E-04   1.1628892E+05   -1.7596754E+00
   3.4695259E-04   1.1535006E+05   -1.7591002E+00
   3.4855485E-04   1.1441907E+05   -1.7585249E+00
   3.5016452E-04   1.1349591E+05   -1.7579494E+00
   3.5178161E-04   1.1258048E+05   -1.7573739E+00
   3.5340618E-04   1.1167274E+05   -1.7567983E+00
   3.5503824E-04   1.1077261E+05   -1.7562227E+00
   3.5667785E-04   1.0988003E+05   -1.7556470E+00
   3.5832502E-04   1.0899493E+05   -1.7550712E+00
   3.5997981E-04   1.0811725E+05   -1.7544953E+00
   3.6164223E-04   1.0724692E+05   -1.7539194E+00
   3.6331233E-04   1.0638387E+05   -1.7533435E+00
   3.6499015E-04   1.0552805E+05   -1.7527675E+00
   3.6667571E-04   1.0467940E+05   -1.7521915E+00
   3.6836906E-04   1.0383784E+05   -1.7516155E+00
   3.7007022E-04   1.0300333E+05   -1.7510395E+00
   3.7177925E-04   1.0217579E+05   -1.7504634E+00
   3.7349616E-04   1.0135517E+05   -1.7498874E+00
   3.7522101E-04   1.0054140E+05   -1.7493113E+00
   3.7695382E-04   9.9734439E+04   -1.7487353E+00
   3.7869463E-04   9.8934213E+04   -1.7481592E+00
   3.8044348E-04   9.8140669E+04   -1.7475832E+00
   3.8220041E-04   9.7353748E+04   -1.7470072E+00
   3.8396545E-04   9.6573393E+04   -1.7464312E+00
   3.8573864E-04   9.5799547E+04   -1.7458553E+00
   3.8752002E-04   9.5032155E+04   -1.7452794E+00
   3.8930963E-04   9.4271159E+04   -1.7447036E+00
   3.9110750E-04   9.3516506E+04   -1.7441278E+00
   3.9291368E-04   9.2768139E+04   -1.7435521E+00
   3.9472820E-04   9.2026006E+04   -1.7429764E+00
   3.9655109E-04   9.1290051E+04   -1.7424009E+00
   3.9838241E-04   9.0560223E+04   -1.7418254E+00
   4.0022218E-04   8.9836467E+04   -1.7412500E+00
   4.0207045E-04   8.9118732E+04   -1.7406746E+00
   4.0392725E-04   8.8406965E+04   -1.7400994E+00
   4.0579263E-04   8.7701116E+04   -1.7395243E+00
   4.0766662E-04   8.7001133E+04   -1.7389493E+00
   4.0954927E-04   8.6306965E+04   -1.7383744E+00
   4.1144061E-04   8.5618562E+04   -1.7377996E+00
   4.1334068E-04   8.4935875E+04   -1.7372250E+00
   4.1524953E-04   8.4258855E+04   -1.7366505E+00
   4.1716720E-04   8.3587453E+04   -1.7360761E+00
   4.1909372E-04   8.2921619E+04   -1.7355019E+00
   4.2102914E-04   8.2261308E+04   -1.7349278E+00
   4.2297350E-04   8.1606470E+04   -1.7343539E+00
   4.2492683E-04   8.0957059E+04   -1.7337802E+00
   4.2688919E-04   8.0313028E+04   -1.7332066E+00
   4.2886061E-04   7.9674332E+04   -1.7326332E+00
   4.3084113E-04   7.9040923E+04   -1.7320600E+00
   4.3283080E-04   7.8412757E+04   -1.7314870E+00
   4.3482966E-04   7.7789789E+04   -1.7309141E+00
   4.3683775E-04   7.7171973E+04   -1.7303415E+00
   4.3885511E-04   7.6559266E+04   -1.7297691E+00
   4.4088179E-04   7.5951624E+04   -1.7291969E+00
   4.4291783E-04   7.5349004E+04   -1.7286249E+00
   4.4496327E-04   7.4751361E+04   -1.7280531E+00
   4.4701816E-04   7.4158655E+04   -1.7274815E+00
   4.4908253E-04   7.3570841E+04   -1.7269102E+00
   4.5115644E-04   7.2987879E+04   -1.7263392E+00
   4.5323993E-04   7.2409727E+04   -1.7257684E+00
   4.5533304E-04   7.1836344E+04   -1.7251978E+00
   4.5743582E-04   7.1267688E+04   -1.7246275E+00
   4.5954830E-04   7.0703719E+04   -1.7240575E+00
   4.6167054E-04   7.0144398E+04   -1.7234877E+00
   4.6380259E-04   6.9589683E+04   -1.7229182E+00
   4.6594448E-04   6.9039537E+04   -1.7223490E+00
   4.6809626E-04   6.8493919E+04   -1.7217801E+00
   4.7025797E-04   6.7952792E+04   -1.7212115E+00
   4.7242967E-04   6.7416116E+04   -1.7206431E+00
   4.7461140E-04   6.6883854E+04   -1.7200751E+00
   4.7680321E-04   6.6355967E+04   -1.7195074E+00
   4.7900514E-04   6.5832419E+04   -1.7189400E+00
   4.8121723E-04   6.5313173E+04   -1.7183730E+00
   4.8343954E-04   6.4798192E+04   -1.7178063E+00
   4.8567212E-04   6.4287439E+04   -1.7172399E+00
   4.8791500E-04   6.3780878E+04   -1.7166738E+00
   4.9016825E-04   6.3278473E+04   -1.7161081E+00
   4.9243189E-04   6.2780190E+04   -1.7155427E+00
   4.9470600E-04   6.2285993E+04   -1.7149777E+00
   4.9699060E-04   6.1795846E+04   -1.7144131E+00
   4.9928575E-04   6.1309716E+04   -1.7138488E+00
   5.0159151E-04   6.0827569E+04   -1.7132849E+00
   5.0390791E-04   6.0349369E+04   -1.7127214E+00
   5.0623501E-04   5.9875085E+04   -1.7121583E+00
   5.0857286E-04   5.9404682E+04   -1.7115956E+00
   5.1092150E-04   5.8938128E+04   -1.7110332E+00
   5.1328099E-04   5.8475389E+04   -1.7104713E+00
   5.1565137E-04   5.8016434E+04   -1.7099098E+00
   5.1803270E-04   5.7561229E+04   -1.7093486E+00
   5.2042503E-04   5.7109744E+04   -1.7087879E+00
   5.2282841E-04   5.6661947E+04   -1.7082277E+00
   5.2524289E-04   5.6217805E+04   -1.7076678E+00
   5.2766851E-04   5.5777289E+04   -1.7071084E+00
   5.3010534E-04   5.5340367E+04   -1.7065495E+00
   5.3255342E-04   5.4907009E+04   -1.7059909E+00
   5.3501281E-04   5.4477185E+04   -1.7054329E+00
   5.3748356E-04   5.4050864E+04   -1.7048753E+00
   5.3996571E-04   5.3628018E+04   -1.7043181E+00
   5.4245933E-04   5.3208616E+04   -1.7037614E+00
   5.4496446E-04   5.2792629E+04   -1.7032052E+00
   5.4748117E-04   5.2380029E+04   -1.7026495E+00
   5.5000949E-04   5.1970786E+04   -1.7020942E+00
   5.5254949E-04   5.1564873E+04   -1.7015395E+00
   5.5510123E-04   5.1162260E+04   -1.7009852E+00
   5.5766474E-04   5.0762921E+04   -1.7004315E+00
   5.6024010E-04   5.0366827E+04   -1.6998782E+00
   5.6282734E-04   4.9973951E+04   -1.6993254E+00
   5.6542654E-04   4.9584266E+04   -1.6987732E+00
   5.6803774E-04   4.9197745E+04   -1.6982215E+00
   5.7066099E-04   4.8814361E+04   -1.6976703E+00
   5.7329637E-04   4.8434087E+04   -1.6971196E+00
   5.7594391E-04   4.8056898E+04   -1.6965695E+00
   5.7860368E-04   4.7682767E+04   -1.6960199E+00
   5.8127573E-04   4.7311668E+04   -1.6954709E+00
   5.8396012E-04   4.6943576E+04   -1.6949224E+00
   5.8665691E-04   4.6578466E+04   -1.6943744E+00
   5.8936616E-04   4.6216311E+04   -1.6938271E+00
   5.9208791E-04   4.5857089E+04   -1.6932802E+00
   5.9482223E-04   4.5500773E+04   -1.6927340E+00
   5.9756919E-04   4.5147339E+04   -1.6921883E+00
   6.0032882E-04   4.4796763E+04   -1.6916432E+00
   6.0310120E-04   4.4449021E+04   -1.6910987E+00
   6.0588639E-04   4.4104089E+04   -1.6905548E+00
   6.0868443E-04   4.3761943E+04   -1.6900115E+00
   6.1149540E-04   4.3422560E+04   -1.6894688E+00
   6.1431935E-04   4.3085917E+04   -1.6889267E+00
   6.1715634E-04   4.2751990E+04   -1.6883851E+00
   6.2000644E-04   4.2420758E+04   -1.6878442E+00
   6.2286969E-04   4.2092196E+04   -1.6873040E+00
