#  k  (h/Mpc)          P(k)  (Mpc/h)^3     P_linear(k) (Mpc/h)^3
     0.00783031         10141.7         10286.1 
       0.013688         13482.8           13414 
       0.019231           14213         14204.8 
      0.0249154         13456.5         13700.2 
      0.0312784         12235.1         12381.8 
      0.0375637         10874.6           10923 
      0.0433917          9548.4         9744.98 
      0.0492413         8704.91          8832.7 
      0.0555754          7847.6         8121.29 
      0.0619321         7512.97         7589.96 
       0.067871         6888.37         7148.95 
      0.0738098         6423.23         6683.99 
      0.0800417         5823.26         6138.43 
      0.0862327          5313.5         5556.57 
      0.0921407         4855.42         5010.37 
      0.0982031         4345.44         4508.57 
       0.104506         4042.96         4084.78 
       0.110769         3721.24         3770.47 
       0.116806          3480.2         3552.29 
       0.122832         3328.68         3387.74 
       0.129052         3108.71         3238.85 
       0.135211          2961.7         3083.75 
       0.141259         2835.41         2909.85 
       0.147318         2668.68         2715.51 
       0.153489         2449.34         2509.95 
       0.159709         2307.77         2313.19 
       0.165845         2199.46         2144.37 
       0.171974         2063.09         2008.35 
       0.178125         1957.87         1903.77 
       0.184229         1883.33         1824.22 
        0.19034         1766.36         1757.96 
       0.196428         1741.45         1694.58 
       0.202534         1683.96         1625.94 
       0.208729         1602.79          1548.1 
       0.214876         1526.86         1464.55 
       0.220989         1473.65         1380.25 
       0.227147         1400.01         1300.04 
        0.23329         1342.23          1229.4 
       0.239377         1315.24         1170.72 
       0.245482         1231.12         1122.58 
       0.251667          1220.5          1082.1 
       0.257832         1175.17         1046.32 
       0.263955         1137.19         1011.71 
       0.270079         1098.56         975.641 
        0.27624         1084.98         937.027 
       0.282372         1040.29         896.963 
        0.28843         1022.16         857.426 
       0.294538         971.404         819.457 
       0.300721         967.138         784.528 
        0.30691         923.486         753.752 
       0.313033         905.159         727.317 
       0.319153          884.39         703.951 
       0.325316         855.535         682.332 
        0.33145         834.323         661.502 
       0.337538         823.345         640.739 
       0.343633         800.938         619.505 
       0.349808          772.48         597.757 
       0.355968          767.35           576.3 
       0.362074         755.467         555.879 
       0.368217         733.409         536.703 
       0.374374         704.038         519.068 
       0.380519         701.601         503.066 
       0.386598         683.567         488.505 
       0.392688         681.007         474.815 
        0.39888         661.068         461.433 
       0.405048         648.451         448.313 
       0.411186         638.362         435.348 
       0.417313         626.013         422.523 
       0.423458         615.374         409.888 
       0.429607         603.957         397.678 
       0.435692          591.29          386.19 
       0.441815         586.288         375.281 
       0.447964         574.091         365.007 
       0.454126         561.287          355.33 
       0.460267         551.432         346.157 
       0.466387         545.869         337.349 
        0.47254         536.307         328.741 
       0.478662         534.601          320.36 
       0.484765         517.909         312.155 
       0.490885         512.964         304.118 
       0.497035         503.586         296.295 
       0.503198         497.408         288.754 
       0.509342         492.433         281.548 
       0.515458         488.106         274.691 
       0.521598         477.371         268.119 
       0.527764         468.282         261.793 
       0.533884          466.26         255.731 
           0.54         460.247         249.845 
       0.546137         457.835          244.09 
       0.552299         448.988         238.464 
       0.558452         446.915             233 
       0.564573           439.6         227.715 
       0.570708         433.268         222.578 
       0.576825         424.207         217.623 
       0.582926         422.478         212.856 
       0.589034         418.357         208.255 
       0.595184         415.029         203.783 
       0.601379         410.215         199.422 
       0.607522         403.674          195.22 
       0.613639          402.12         191.147 
       0.619772         392.287         187.169 
       0.625918          391.31         183.289 
       0.632068          385.63         179.517 
       0.638161         384.541         175.886 
         0.6443         376.842         172.334 
       0.650464         374.633         168.871 
       0.656582         373.058         165.533 
       0.662703         370.376         162.286 
       0.668861         363.783         159.111 
       0.675024         360.493          156.02 
       0.681124         358.684         153.043 
       0.687237         354.906         150.139 
       0.693381         350.031         147.298 
       0.699536         345.884         144.527 
       0.705665         344.331         141.839 
       0.711789          341.46         139.223 
       0.717957         338.799         136.654 
        0.72409         335.643         134.166 
       0.730186         332.319         131.755 
       0.736317         328.829         129.391 
       0.742472         327.662         127.077 
       0.748622         324.149         124.822 
        0.75476         321.186         122.628 
       0.760888         317.287          120.49 
       0.767043         317.577         118.396 
       0.773185         313.744         116.357 
       0.779291         308.664         114.377 
       0.785407         307.929         112.442 
       0.791564          304.68          110.54 
       0.797719          302.16         108.683 
       0.803834         299.597         106.882 
       0.809972         298.082         105.115 
       0.816124         298.286         103.385 
       0.822261           293.6         101.699 
       0.828378         291.863         100.057 
       0.834502         290.636         98.4492 
       0.840667         286.727         96.8672 
       0.846816         285.143         95.3248 
       0.852925         283.363         93.8261 
       0.859047         281.928         92.3568 
       0.865192         278.815         90.9145 
       0.871341         276.728         89.5023 
       0.877463         275.018         88.1269 
       0.883569         273.496         86.7842 
       0.889708         270.761          85.463 
       0.895864         267.859         84.1661 
       0.902008         267.282         82.8992 
       0.908149         266.179         81.6594 
       0.914301         262.578         80.4432 
       0.920448         261.064         79.2533 
       0.926574         259.132         78.0918 
       0.932687         259.024         76.9563 
       0.938823         256.131         75.8395 
       0.944975         254.757         74.7426 
       0.951105         253.062         73.6716 
       0.957225         251.315         72.6236 
       0.963368         248.271         71.5926 
       0.969511             247         70.5819 
       0.975621         245.194         69.5963 
       0.981748         245.262         68.6272 
       0.987916         242.739         67.6706 
        0.99406         240.085         66.7361 
        1.00019         240.131         65.8213 
        1.00632         238.155         64.9245 
        1.01246          236.21         64.0434 
        1.01859         236.025         63.1801 
        1.02471         233.345         62.3339 
        1.03085         231.032         61.5005 
        1.03698         230.437         60.6842 
        1.04314         228.598         59.8794 
        1.04929         226.961         59.0912 
        1.05541         226.703         58.3205 
        1.06154         224.213         57.5617 
        1.06769         223.895         56.8155 
        1.07382         222.359         56.0851 
        1.07993          220.56         55.3693 
        1.08607         219.622         54.6631 
        1.09222         218.451         53.9687 
        1.09836         216.473         53.2873 
        1.10449         214.495         52.6186 
        1.11063         213.046         51.9607 
        1.11677         212.701         51.3144 
         1.1229         210.795         50.6803 
        1.12903         209.754         50.0564 
        1.13518         208.973         49.4427 
        1.14131         207.283         48.8396 
        1.14745         206.818         48.2471 
        1.15359         204.991         47.6643 
        1.15973         204.322          47.091 
        1.16584          202.14         46.5298 
        1.17197         201.788          45.977 
        1.17811         200.325         45.4316 
        1.18424         199.181         44.8967 
        1.19038          198.67          44.369 
        1.19652         197.343           43.85 
        1.20267          196.38         43.3394 
        1.20881         194.688         42.8371 
        1.21495         193.931         42.3436 
        1.22108         193.116          41.858 
         1.2272         191.298         41.3813 
        1.23334          190.62         40.9109 
        1.23949         189.191         40.4468 
        1.24562         188.417         39.9913 
        1.25174         186.253         39.5435 
        1.25789         185.523         39.1012 
        1.26402         184.965         38.6666 
        1.27014         183.623         38.2396 
        1.27628         182.682         37.8179 
        1.28244         182.361         37.4017 
        1.28858         180.786         36.9924 
        1.29471         179.088         36.5902 
        1.30084         178.699         36.1944 
        1.30697         177.479         35.8039 
        1.31312           176.7         35.4186 
        1.31925         175.716         35.0403 
        1.32537         174.906         34.6679 
        1.33151         173.075         34.2996 
        1.33765          172.74          33.937 
        1.34378         171.706         33.5803 
        1.34992          170.98         33.2286 
        1.35606         170.425         32.8812 
         1.3622         169.354         32.5394 
        1.36833         168.023         32.2033 
        1.37445         166.723         31.8722 
        1.38059         166.139         31.5447 
        1.38675         165.478         31.2211 
        1.39288          164.72         30.9034 
        1.39901         164.227         30.5902 
        1.40515         162.913         30.2807 
         1.4113         161.481         29.9757 
        1.41742         160.932          29.676 
        1.42355         159.961         29.3799 
         1.4297         159.181          29.087 
        1.43585         157.807         28.7982 
        1.44198         157.657         28.5145 
        1.44809         156.711         28.2351 
        1.45423         155.417         27.9585 
        1.46036         154.924         27.6861 
        1.46649         153.993         27.4172 
        1.47263         153.312         27.1518 
        1.47877         152.558           26.89 
        1.48491         151.002         26.6312 
        1.49104         150.862         26.3765 
        1.49718           149.4         26.1249 
        1.50333         149.058         25.8762 
        1.50947         148.481         25.6313 
         1.5156         147.482         25.3899 
        1.52172         146.564         25.1517 
        1.52787          145.76          24.916 
          1.534         145.081         24.6837 
        1.54013         144.029         24.4546 
        1.54627         143.691         24.2281 
        1.55241         142.564         24.0044 
        1.55855          142.03         23.7838 
        1.56467         141.312         23.5666 
         1.5708         140.376         23.3516 
        1.57695         139.839         23.1389 
        1.58308         139.255         22.9294 
        1.58922         138.605         22.7224 
        1.59535         137.416         22.5179 
         1.6015         137.091         22.3158 
        1.60764         136.294         22.1162 
        1.61376         135.601         21.9196 
        1.61989         134.789         21.7253 
        1.62604         134.147         21.5329 
        1.63218         133.492          21.343 
        1.63831          132.58         21.1558 
        1.64444         132.228         20.9708 
        1.65059         131.498         20.7875 
        1.65673         130.317         20.6067 
        1.66285         130.217         20.4286 
        1.66898         129.468         20.2525 
        1.67512          128.96         20.0782 
        1.68127         127.865         19.9057 
         1.6874         126.992         19.7357 
        1.69353         126.724         19.5678 
        1.69967         126.053         19.4015 
        1.70581         125.415         19.2371 
        1.71193         124.782         19.0754 
        1.71806         124.029         18.9151 
        1.72421         123.323         18.7564 
        1.73035         122.881         18.5997 
        1.73649         122.017         18.4448 
        1.74262          121.53         18.2918 
        1.74876         121.143         18.1405 
        1.75489         120.034         17.9912 
        1.76101         119.546         17.8436 
        1.76715         118.794         17.6975 
        1.77329         118.414         17.5529 
        1.77943         117.632         17.4098 
        1.78557         117.024         17.2685 
        1.79171         116.374         17.1288 
        1.79785         115.841         16.9906 
        1.80399         115.253          16.854 
        1.81012         114.771          16.719 
        1.81625         114.074         16.5856 
        1.82239         113.897         16.4535 
        1.82853         113.235         16.3229 
        1.83466         112.397         16.1938 
        1.84078         112.307         16.0662 
        1.84692         111.228         15.9399 
        1.85306         110.663         15.8147 
         1.8592         110.179         15.6911 
        1.86533         109.508         15.5689 
        1.87147         108.829         15.4479 
        1.87761         108.534         15.3281 
        1.88375         107.819         15.2097 
        1.88988         107.213         15.0927 
        1.89601         106.815         14.9769 
        1.90215         106.308         14.8622 
        1.90829         105.662         14.7488 
        1.91442         105.355         14.6366 
        1.92056         104.513         14.5256 
         1.9267         104.135         14.4157 
        1.93284         103.638         14.3068 
        1.93897         103.076         14.1993 
        1.94509          102.71         14.0932 
        1.95123         102.042         13.9878 
        1.95737         101.602         13.8835 
        1.96349         100.961         13.7805 
        1.96964          100.21         13.6782 
        1.97578          100.18          13.577 
        1.98192         99.5167          13.477 
        1.98805         98.7041          13.378 
        1.99419         98.5034         13.2799 
        2.00033         97.9464         13.1829 
        2.00647         97.4781         13.0868 
         2.0126         96.9543         12.9918 
        2.01874         96.3472         12.8977 
        2.02488         95.9532         12.8043 
        2.03101         95.4978         12.7121 
        2.03714         94.8684         12.6209 
        2.04328         94.4943         12.5305 
        2.04941         93.9636         12.4411 
        2.05554         93.5789         12.3526 
        2.06167         93.0708         12.2648 
        2.06781          92.503         12.1779 
        2.07396         92.0828         12.0917 
        2.08009         91.6552         12.0065 
        2.08622         91.3202         11.9222 
        2.09237         90.7116         11.8385 
        2.09851          90.391         11.7557 
        2.10464         89.8787         11.6738 
        2.11077           89.38         11.5928 
        2.11691         89.0952         11.5123 
        2.12305         88.5676         11.4327 
        2.12918         88.0668         11.3539 
        2.13531         87.6904         11.2759 
        2.14145         86.9281         11.1985 
         2.1476         86.7073         11.1217 
        2.15372         86.2145         11.0461 
        2.15985         85.8821          10.971 
        2.16599         85.5185         10.8965 
        2.17213         84.9588         10.8227 
        2.17827         84.6648         10.7496 
         2.1844         84.1444         10.6773 
        2.19054         83.9264         10.6056 
        2.19666         83.3317         10.5346 
         2.2028         83.1676         10.4643 
        2.20893         82.4789         10.3946 
        2.21508         82.0498         10.3254 
        2.22122         81.8894         10.2568 
        2.22736         81.3148         10.1891 
        2.23349         80.9504         10.1219 
        2.23962         80.4595         10.0553 
        2.24577         80.0209         9.98925 
         2.2519         79.9101         9.92389 
        2.25802          79.336         9.85922 
        2.26417         78.8647         9.79495 
        2.27031         78.6001         9.73119 
        2.27644         78.2101         9.66819 
        2.28257         77.7511         9.60575 
        2.28872         77.3882         9.54375 
        2.29486         76.9689         9.48231 
        2.30099         76.5737         9.42153 
        2.30712         76.2919         9.36127 
        2.31326         75.9125         9.30143 
         2.3194         75.5872         9.24216 
        2.32553          75.125          9.1835 
        2.33166         74.6624         9.12538 
         2.3378         74.3515         9.06768 
        2.34394         74.0461         9.01047 
        2.35007         73.4863         8.95383 
        2.35619         73.2018         8.89775 
        2.36233         72.9124         8.84202 
        2.36848         72.6069         8.78666 
        2.37462         72.1928         8.73189 
        2.38075         71.9842         8.67764 
        2.38689         71.5352         8.62381 
        2.39303         71.1682         8.57044 
        2.39916         70.8561         8.51759 
        2.40529         70.5761         8.46519 
        2.41143         70.1028         8.41319 
        2.41757         69.8845         8.36161 
         2.4237         69.5245         8.31056 
        2.42983         69.0875         8.25994 
        2.43598         68.7573         8.20961 
        2.44211         68.4902         8.15979 
        2.44823         68.2501         8.11049 
        2.45437         67.6949         8.06147 
        2.46052         67.3522         8.01281 
        2.46665         67.1122         7.96464 
        2.47279         66.7538         7.91689 
        2.47892         66.5021          7.8695 
        2.48507         66.0848         7.82245 
         2.4912         65.8746         7.77587 
