#  k  (h/Mpc)          P(k)  (Mpc/h)^3     P_linear(k) (Mpc/h)^3
     0.00783031         1669.15         1685.71 
       0.013688         2198.26         2199.33 
       0.019231         2329.81         2329.44 
      0.0249154         2231.13         2246.93 
      0.0312784         2025.74         2030.84 
      0.0375637         1794.43         1791.67 
      0.0433917         1592.32         1598.48 
      0.0492413         1447.55         1448.87 
      0.0555754         1322.18         1332.19 
      0.0619321         1248.93         1245.05 
       0.067871         1164.51         1172.72 
      0.0738098         1087.76         1096.45 
      0.0800417         994.599         1006.96 
      0.0862327         903.934          911.52 
      0.0921407         818.328         821.922 
      0.0982031         734.207         739.608 
       0.104506         672.286         670.089 
       0.110769         619.857          618.53 
       0.116806          579.92         582.739 
       0.122832         555.837         555.746 
       0.129052         526.919         531.323 
       0.135211         501.181          505.88 
       0.141259         475.884         477.352 
       0.147318         446.224         445.471 
       0.153489         410.835         411.751 
       0.159709          380.65         379.473 
       0.165845         357.031         351.778 
       0.171974         332.054         329.466 
       0.178125         315.552         312.309 
       0.184229         303.645         299.259 
        0.19034         287.921          288.39 
       0.196428         280.736         277.992 
       0.202534         271.928         266.732 
       0.208729         257.615         253.963 
       0.214876         242.504         240.257 
       0.220989         232.335         226.427 
       0.227147         216.895         213.269 
        0.23329         206.148         201.681 
       0.239377         198.141         192.054 
       0.245482         187.733         184.157 
       0.251667         183.543         177.518 
       0.257832         177.354         171.647 
       0.263955         171.412         165.969 
       0.270079         165.639         160.053 
        0.27624         161.017         153.718 
       0.282372         154.511         147.146 
        0.28843         147.486          140.66 
       0.294538         141.239         134.431 
       0.300721         137.446         128.701 
        0.30691         131.194         123.652 
       0.313033         127.168         119.316 
       0.319153         121.537         115.482 
       0.325316         119.747         111.936 
        0.33145         115.588         108.519 
       0.337538         112.919         105.113 
       0.343633         109.144         101.629 
       0.349808         105.834         98.0614 
       0.355968         102.662         94.5414 
       0.362074         99.3185         91.1914 
       0.368217         96.3576         88.0456 
       0.374374         93.3415         85.1526 
       0.380519         91.0321         82.5274 
       0.386598         88.6098         80.1387 
       0.392688         86.8641         77.8929 
        0.39888         84.4145         75.6976 
       0.405048         82.5108         73.5453 
       0.411186          80.595         71.4185 
       0.417313         77.9856         69.3145 
       0.423458         76.0518         67.2418 
       0.429607          73.985         65.2387 
       0.435692         71.7307         63.3541 
       0.441815         70.6156         61.5644 
       0.447964          69.405          59.879 
       0.454126         66.7113         58.2916 
       0.460267         65.5769         56.7867 
       0.466387         63.7706         55.3418 
        0.47254         62.8952         53.9297 
       0.478662         61.7737         52.5548 
       0.484765         60.0403         51.2088 
       0.490885         58.7112         49.8904 
       0.497035         57.8943         48.6069 
       0.503198         56.4379         47.3698 
       0.509342         55.0197         46.1877 
       0.515458         53.9471         45.0628 
       0.521598         53.0917         43.9848 
       0.527764         52.0259         42.9469 
       0.533884         51.1306         41.9525 
           0.54         50.1196         40.9869 
       0.546137         49.3255         40.0429 
       0.552299         48.5446         39.1199 
       0.558452          47.088         38.2235 
       0.564573          46.451         37.3565 
       0.570708         45.7589         36.5137 
       0.576825         44.6327         35.7009 
       0.582926         43.8421         34.9188 
       0.589034         42.7235         34.1641 
       0.595184         42.1927         33.4305 
       0.601379         41.5133          32.715 
       0.607522         40.7342         32.0258 
       0.613639         40.3868         31.3575 
       0.619772         39.3564         30.7049 
       0.625918           39.16         30.0685 
       0.632068         38.5106         29.4495 
       0.638161         37.7438         28.8539 
         0.6443         37.0183         28.2712 
       0.650464         36.4029         27.7032 
       0.656582          36.179         27.1555 
       0.662703         35.4924          26.623 
       0.668861          34.888          26.102 
       0.675024         34.3036         25.5949 
       0.681124         33.7169         25.1066 
       0.687237         33.1862         24.6303 
       0.693381         32.8938         24.1642 
       0.699536          32.085         23.7095 
       0.705665         32.0026         23.2686 
       0.711789           31.32         22.8394 
       0.717957          30.942         22.4181 
        0.72409         30.4758         22.0098 
       0.730186         30.0615         21.6143 
       0.736317         29.7733         21.2265 
       0.742472         29.2573         20.8469 
       0.748622         28.9621          20.477 
        0.75476         28.4505          20.117 
       0.760888         28.1042         19.7664 
       0.767043         27.7822         19.4228 
       0.773185         27.2757         19.0882 
       0.779291         27.1503         18.7635 
       0.785407         26.8067         18.4461 
       0.791564         26.3187          18.134 
       0.797719         25.8292         17.8295 
       0.803834         25.7681         17.5339 
       0.809972          25.534         17.2441 
       0.816124          24.943         16.9603 
       0.822261         24.7815         16.6837 
       0.828378         24.5011         16.4142 
       0.834502         24.2538         16.1505 
       0.840667         23.9516          15.891 
       0.846816          23.547          15.638 
       0.852925         23.3494         15.3921 
       0.859047         23.0771         15.1511 
       0.865192         22.8773         14.9145 
       0.871341         22.7002         14.6828 
       0.877463          22.294         14.4572 
       0.883569         22.0258         14.2369 
       0.889708         21.7261         14.0201 
       0.895864         21.5914         13.8074 
       0.902008         21.4214         13.5996 
       0.908149         21.1838         13.3962 
       0.914301         21.0279         13.1967 
       0.920448         20.6261         13.0014 
       0.926574         20.4746         12.8109 
       0.932687          20.274         12.6246 
       0.938823         20.0072         12.4414 
       0.944975         19.7836         12.2615 
       0.951105         19.6445         12.0858 
       0.957225         19.4633         11.9138 
       0.963368           19.27         11.7447 
       0.969511         19.1124         11.5789 
       0.975621         18.9411         11.4172 
       0.981748         18.7099         11.2582 
       0.987916         18.5813         11.1013 
        0.99406         18.3404          10.948 
        1.00019         18.0801         10.7979 
        1.00632         18.0695         10.6508 
        1.01246         17.8674         10.5063 
        1.01859          17.615         10.3647 
        1.02471         17.5358         10.2258 
        1.03085         17.3746         10.0891 
        1.03698         17.1163         9.95521 
        1.04314         17.0242         9.82318 
        1.04929         16.8104         9.69387 
        1.05541         16.6503         9.56744 
        1.06154         16.5307         9.44297 
        1.06769         16.4529         9.32055 
        1.07382         16.2348         9.20072 
        1.07993         16.1438         9.08329 
        1.08607         15.9756         8.96745 
        1.09222         15.8532         8.85353 
        1.09836         15.6752         8.74175 
        1.10449         15.5729         8.63204 
        1.11063         15.4282         8.52412 
        1.11677         15.3487         8.41809 
         1.1229         15.2469         8.31407 
        1.12903         15.0719         8.21173 
        1.13518         14.9044         8.11104 
        1.14131         14.8113         8.01211 
        1.14745         14.6969          7.9149 
        1.15359         14.5966          7.8193 
        1.15973         14.4845         7.72525 
        1.16584         14.2779         7.63319 
        1.17197         14.2183         7.54251 
        1.17811         14.1313         7.45303 
        1.18424         14.0143         7.36528 
        1.19038         13.9456         7.27871 
        1.19652         13.8044         7.19357 
        1.20267         13.6616          7.1098 
        1.20881         13.6442          7.0274 
        1.21495         13.5309         6.94644 
        1.22108          13.376         6.86679 
         1.2272         13.2923         6.78858 
        1.23334         13.1602         6.71142 
        1.23949          13.063         6.63528 
        1.24562         13.0171         6.56055 
        1.25174         12.9159         6.48709 
        1.25789         12.8286         6.41454 
        1.26402         12.7656         6.34323 
        1.27014         12.6551         6.27319 
        1.27628         12.5081           6.204 
        1.28244         12.4256         6.13573 
        1.28858         12.4097         6.06859 
        1.29471         12.2729         6.00261 
        1.30084         12.1631         5.93768 
        1.30697         12.1501         5.87361 
        1.31312         11.9768         5.81041 
        1.31925         11.9106         5.74834 
        1.32537         11.8523         5.68725 
        1.33151         11.7855         5.62684 
        1.33765         11.6849         5.56734 
        1.34378         11.5975         5.50883 
        1.34992         11.5179         5.45113 
        1.35606         11.4594         5.39414 
         1.3622         11.3918         5.33807 
        1.36833          11.306         5.28293 
        1.37445         11.2446         5.22861 
        1.38059         11.1998         5.17489 
        1.38675         11.0947         5.12181 
        1.39288         11.0369         5.06968 
        1.39901         10.9257         5.01831 
        1.40515          10.887         4.96754 
         1.4113         10.8259          4.9175 
        1.41742         10.7543         4.86834 
        1.42355         10.6663         4.81976 
         1.4297         10.5953         4.77171 
        1.43585         10.5637         4.72433 
        1.44198         10.5198         4.67778 
        1.44809         10.4267         4.63195 
        1.45423         10.3516         4.58657 
        1.46036         10.3003         4.54188 
        1.46649         10.2358         4.49778 
        1.47263         10.1511         4.45423 
        1.47877         10.1037         4.41128 
        1.48491         10.0444         4.36884 
        1.49104         9.99036         4.32705 
        1.49718         9.93879         4.28577 
        1.50333          9.8789         4.24497 
        1.50947         9.81361          4.2048 
         1.5156           9.764          4.1652 
        1.52172         9.70903         4.12612 
        1.52787         9.64688         4.08746 
          1.534         9.58751         4.04935 
        1.54013         9.54869         4.01177 
        1.54627         9.46735         3.97461 
        1.55241         9.43077         3.93791 
        1.55855         9.38923         3.90172 
        1.56467         9.31643          3.8661 
         1.5708         9.29366         3.83082 
        1.57695         9.20599         3.79593 
        1.58308         9.16069         3.76156 
        1.58922         9.13116         3.72759 
        1.59535         9.09042         3.69406 
         1.6015         9.02105         3.66089 
        1.60764         8.96225         3.62815 
        1.61376         8.93423         3.59591 
        1.61989         8.88447         3.56403 
        1.62604         8.82563         3.53246 
        1.63218         8.80218          3.5013 
        1.63831         8.76157          3.4706 
        1.64444         8.71361         3.44024 
        1.65059         8.62547         3.41019 
        1.65673           8.614         3.38053 
        1.66285         8.53304          3.3513 
        1.66898         8.51105         3.32241 
        1.67512         8.47138         3.29381 
        1.68127         8.42287         3.26553 
         1.6874         8.39415         3.23764 
        1.69353         8.33833         3.21009 
        1.69967         8.28924          3.1828 
        1.70581         8.24976         3.15585 
        1.71193         8.21291         3.12931 
        1.71806         8.19163         3.10302 
        1.72421         8.12313         3.07698 
        1.73035         8.10714         3.05127 
        1.73649          8.0663         3.02586 
        1.74262         8.00842         3.00077 
        1.74876         7.98656         2.97594 
        1.75489         7.95983         2.95145 
        1.76101         7.89313         2.92724 
        1.76715         7.86757         2.90327 
        1.77329         7.83034         2.87954 
        1.77943         7.77237         2.85607 
        1.78557         7.76676         2.83289 
        1.79171         7.71221         2.80997 
        1.79785         7.67529          2.7873 
        1.80399         7.62934         2.76489 
        1.81012         7.60942         2.74275 
        1.81625         7.56063         2.72086 
        1.82239         7.53897         2.69919 
        1.82853         7.49877         2.67776 
        1.83466         7.46774         2.65658 
        1.84078         7.42856         2.63566 
        1.84692          7.4179         2.61493 
        1.85306         7.36034          2.5944 
         1.8592         7.31983         2.57413 
        1.86533         7.29662         2.55408 
        1.87147          7.2658         2.53422 
        1.87761         7.22959         2.51457 
        1.88375         7.19899         2.49515 
        1.88988         7.16422         2.47596 
        1.89601         7.14177         2.45696 
        1.90215         7.11385         2.43815 
        1.90829         7.07339         2.41954 
        1.91442         7.04596         2.40113 
        1.92056         7.01091         2.38292 
         1.9267         6.97676         2.36489 
        1.93284         6.95081         2.34703 
        1.93897         6.91765          2.3294 
        1.94509         6.88293         2.31198 
        1.95123         6.85304          2.2947 
        1.95737         6.81821         2.27758 
        1.96349         6.79693         2.26069 
        1.96964         6.77253         2.24391 
        1.97578         6.73276          2.2273 
        1.98192         6.71344          2.2109 
        1.98805         6.69045         2.19465 
        1.99419         6.66165         2.17857 
        2.00033         6.63916         2.16264 
        2.00647         6.60689         2.14688 
         2.0126           6.583          2.1313 
        2.01874         6.54198         2.11586 
        2.02488         6.52815         2.10055 
        2.03101         6.48482         2.08542 
        2.03714         6.46173         2.07046 
        2.04328         6.43142         2.05563 
        2.04941         6.40155         2.04095 
        2.05554         6.37859         2.02643 
        2.06167         6.35974         2.01204 
        2.06781         6.33243         1.99778 
        2.07396         6.31818         1.98364 
        2.08009         6.28619         1.96966 
        2.08622         6.25269         1.95583 
        2.09237         6.24581         1.94211 
        2.09851         6.21237         1.92852 
        2.10464          6.1836         1.91508 
        2.11077         6.15083         1.90179 
        2.11691          6.1363         1.88859 
        2.12305         6.11581         1.87552 
        2.12918         6.09936         1.86261 
        2.13531         6.06752         1.84982 
        2.14145         6.04923         1.83711 
         2.1476         6.01102         1.82452 
        2.15372         5.99656          1.8121 
        2.15985         5.98599         1.79979 
        2.16599         5.94682         1.78756 
        2.17213         5.93166         1.77546 
        2.17827         5.91297         1.76347 
         2.1844         5.88425          1.7516 
        2.19054         5.86466         1.73984 
        2.19666         5.83658         1.72821 
         2.2028         5.81681         1.71667 
        2.20893         5.80329         1.70523 
        2.21508         5.76996         1.69388 
        2.22122         5.75077         1.68263 
        2.22736         5.73027         1.67151 
        2.23349         5.72583         1.66049 
        2.23962         5.69164         1.64957 
        2.24577          5.6646         1.63873 
         2.2519         5.65931         1.62801 
        2.25802          5.6261          1.6174 
        2.26417         5.60667         1.60686 
        2.27031         5.58622          1.5964 
        2.27644          5.5651         1.58606 
        2.28257         5.54686         1.57582 
        2.28872          5.5314         1.56565 
        2.29486         5.50573         1.55557 
        2.30099         5.48869          1.5456 
        2.30712         5.46879         1.53572 
        2.31326          5.4397          1.5259 
         2.3194         5.43212         1.51617 
        2.32553         5.40721         1.50655 
        2.33166         5.39511         1.49702 
         2.3378         5.37475         1.48755 
        2.34394         5.35607         1.47817 
        2.35007         5.32961         1.46887 
        2.35619         5.32157         1.45967 
        2.36233         5.30447         1.45053 
        2.36848         5.27567         1.44145 
        2.37462         5.26601         1.43247 
        2.38075         5.25094         1.42357 
        2.38689         5.22643         1.41473 
        2.39303         5.21006         1.40598 
        2.39916         5.19371         1.39731 
        2.40529         5.17323         1.38871 
        2.41143         5.16103         1.38018 
        2.41757          5.1465         1.37172 
         2.4237         5.13089         1.36335 
        2.42983         5.09061         1.35504 
        2.43598         5.09517         1.34679 
        2.44211          5.0687         1.33861 
        2.44823         5.05569         1.33053 
        2.45437         5.03119         1.32248 
        2.46052         5.02099          1.3145 
        2.46665         5.00784          1.3066 
        2.47279         4.98896         1.29877 
        2.47892         4.97273         1.29099 
        2.48507         4.95941         1.28327 
         2.4912         4.93447         1.27563 
