#  k  (h/Mpc)          P(k)  (Mpc/h)^3     P_linear(k) (Mpc/h)^3
     0.00783031          2922.7         2954.31 
       0.013688         3857.44         3853.97 
       0.019231         4083.87         4081.75 
      0.0249154         3901.72         3937.06 
      0.0312784         3544.47         3558.37 
      0.0375637         3142.33         3139.26 
      0.0433917         2782.51         2800.75 
      0.0492413         2531.34         2538.59 
      0.0555754         2306.42         2334.16 
      0.0619321         2185.72         2181.47 
       0.067871         2030.97         2054.73 
      0.0738098          1896.6          1921.1 
      0.0800417         1731.17          1764.3 
      0.0862327         1574.84         1597.07 
      0.0921407         1428.22         1440.09 
      0.0982031         1280.29         1295.86 
       0.104506         1176.53         1174.06 
       0.110769         1084.33         1083.72 
       0.116806          1013.4         1021.01 
       0.122832         971.843         973.719 
       0.129052         918.298         930.927 
       0.135211          873.72         886.348 
       0.141259         831.223         836.365 
       0.147318         780.031         780.506 
       0.153489         717.403         721.425 
       0.159709         667.032         664.872 
       0.165845         627.653         616.347 
       0.171974         584.152         577.254 
       0.178125          555.29         547.194 
       0.184229         534.731         524.328 
        0.19034         504.309         505.285 
       0.196428         493.864         487.067 
       0.202534         478.991         467.339 
       0.208729         453.768         444.966 
       0.214876         427.298         420.952 
       0.220989         410.754          396.72 
       0.227147         384.024         373.667 
        0.23329         365.933         353.362 
       0.239377         353.399         336.496 
       0.245482         332.935          322.66 
       0.251667         326.934         311.026 
       0.257832         316.161          300.74 
       0.263955         305.428         290.793 
       0.270079         295.199         280.426 
        0.27624         288.147         269.327 
       0.282372         276.691         257.812 
        0.28843         264.947         246.448 
       0.294538         253.516         235.535 
       0.300721          248.45         225.495 
        0.30691         236.921         216.649 
       0.313033         230.264         209.051 
       0.319153         220.418         202.335 
       0.325316         216.373         196.121 
        0.33145         209.022         190.134 
       0.337538         205.296         184.166 
       0.343633         198.602         178.063 
       0.349808         192.411         171.812 
       0.355968         187.614         165.645 
       0.362074         181.925         159.775 
       0.368217         176.738         154.264 
       0.374374         171.477         149.195 
       0.380519          167.56         144.595 
       0.386598         163.129          140.41 
       0.392688         160.319         136.475 
        0.39888         156.058         132.629 
       0.405048         152.618         128.858 
       0.411186         149.156         125.131 
       0.417313         145.042         121.445 
       0.423458         141.715         117.814 
       0.429607         138.103         114.304 
       0.435692         133.816         111.002 
       0.441815          132.42         107.866 
       0.447964         130.205         104.913 
       0.454126         124.741         102.132 
       0.460267         123.029         99.4953 
       0.466387         120.407         96.9635 
        0.47254         118.601         94.4895 
       0.478662         116.799         92.0806 
       0.484765         113.597         89.7223 
       0.490885         111.435         87.4123 
       0.497035         109.894         85.1636 
       0.503198         107.073          82.996 
       0.509342         104.649         80.9248 
       0.515458         103.009          78.954 
       0.521598         101.614         77.0651 
       0.527764         99.8566         75.2466 
       0.533884         98.1219         73.5043 
           0.54         96.3326         71.8125 
       0.546137         95.1541         70.1585 
       0.552299         93.7457         68.5414 
       0.558452         91.2683         66.9708 
       0.564573         89.7251         65.4518 
       0.570708         88.7416         63.9751 
       0.576825         86.9773          62.551 
       0.582926         85.3641         61.1807 
       0.589034         83.4982         59.8585 
       0.595184         82.5838          58.573 
       0.601379         81.5684         57.3195 
       0.607522         79.6449         56.1119 
       0.613639         79.3684          54.941 
       0.619772          77.429         53.7976 
       0.625918         76.9312         52.6826 
       0.632068         75.8328         51.5982 
       0.638161          74.638         50.5545 
         0.6443          73.484         49.5336 
       0.650464         72.3722         48.5384 
       0.656582         71.8063         47.5788 
       0.662703         70.3203         46.6457 
       0.668861         69.5372          45.733 
       0.675024         68.5335         44.8445 
       0.681124         67.4241         43.9889 
       0.687237         66.3729         43.1543 
       0.693381         65.8115         42.3378 
       0.699536         64.5288         41.5411 
       0.705665         64.8215         40.7686 
       0.711789         63.1092         40.0165 
       0.717957         62.6154         39.2784 
        0.72409         61.6891         38.5631 
       0.730186         60.7455         37.8702 
       0.736317         60.4437         37.1907 
       0.742472         59.4206         36.5255 
       0.748622         58.9586         35.8775 
        0.75476         58.1775         35.2468 
       0.760888         57.3721         34.6324 
       0.767043          56.783         34.0304 
       0.773185         55.9898         33.4442 
       0.779291         55.7506         32.8754 
       0.785407         55.1773         32.3191 
       0.791564         54.2184         31.7724 
       0.797719         53.3391         31.2387 
       0.803834         53.2503         30.7209 
       0.809972         52.4837         30.2131 
       0.816124         51.5994         29.7159 
       0.822261         51.3778         29.2313 
       0.828378         50.9323         28.7591 
       0.834502          50.319         28.2971 
       0.840667         49.8931         27.8424 
       0.846816         49.1794         27.3991 
       0.852925         48.7884         26.9683 
       0.859047         48.1235          26.546 
       0.865192         47.8128         26.1314 
       0.871341         47.5717         25.7255 
       0.877463         46.6417         25.3302 
       0.883569         46.3093         24.9443 
       0.889708         45.9496         24.5645 
       0.895864         45.5431         24.1917 
       0.902008         45.1741         23.8276 
       0.908149           44.74         23.4712 
       0.914301         44.5364         23.1217 
       0.920448         43.7538         22.7796 
       0.926574         43.5475         22.4458 
       0.932687         43.0946         22.1194 
       0.938823          42.533         21.7984 
       0.944975         42.3302         21.4832 
       0.951105         41.9616         21.1753 
       0.957225         41.4645         20.8741 
       0.963368         41.2737         20.5778 
       0.969511         40.9423         20.2872 
       0.975621         40.6378          20.004 
       0.981748          40.107         19.7254 
       0.987916         39.9128         19.4505 
        0.99406         39.5673         19.1819 
        1.00019         39.0834         18.9189 
        1.00632         38.9407         18.6612 
        1.01246         38.6137         18.4079 
        1.01859         38.1609         18.1598 
        1.02471         38.1177         17.9166 
        1.03085         37.7324          17.677 
        1.03698         37.2101         17.4424 
        1.04314         36.9267          17.211 
        1.04929         36.7099         16.9845 
        1.05541         36.3366          16.763 
        1.06154         36.1879         16.5449 
        1.06769         35.9207         16.3304 
        1.07382          35.622         16.1205 
        1.07993         35.5049         15.9147 
        1.08607         35.0288         15.7117 
        1.09222         34.9006         15.5122 
        1.09836         34.4924         15.3163 
        1.10449         34.3664         15.1241 
        1.11063         33.9372          14.935 
        1.11677         33.8302         14.7492 
         1.1229         33.7095          14.567 
        1.12903         33.2514         14.3877 
        1.13518         33.0372         14.2112 
        1.14131         32.9666         14.0379 
        1.14745         32.6752         13.8676 
        1.15359         32.5185         13.7001 
        1.15973          32.165         13.5353 
        1.16584         31.8657          13.374 
        1.17197         31.9105         13.2151 
        1.17811         31.4805         13.0584 
        1.18424         31.2363         12.9046 
        1.19038         31.1623         12.7529 
        1.19652         30.9547         12.6037 
        1.20267         30.7394          12.457 
        1.20881         30.5547         12.3126 
        1.21495         30.3334         12.1708 
        1.22108         30.1263         12.0312 
         1.2272         29.8184         11.8942 
        1.23334         29.7005          11.759 
        1.23949         29.4741         11.6256 
        1.24562         29.4144         11.4946 
        1.25174          29.224         11.3659 
        1.25789         29.0442         11.2388 
        1.26402         28.8915         11.1139 
        1.27014         28.6073         10.9912 
        1.27628         28.3926         10.8699 
        1.28244         28.3192         10.7503 
        1.28858         28.1968         10.6327 
        1.29471         27.9439         10.5171 
        1.30084          27.766         10.4033 
        1.30697         27.5952         10.2911 
        1.31312         27.3614         10.1803 
        1.31925         27.2424         10.0716 
        1.32537         27.1693         9.96455 
        1.33151         26.9238          9.8587 
        1.33765         26.8429         9.75446 
        1.34378         26.7289         9.65195 
        1.34992         26.3748         9.55085 
        1.35606         26.3339         9.45099 
         1.3622         26.1861         9.35275 
        1.36833         26.0213         9.25615 
        1.37445         25.9666         9.16097 
        1.38059         25.8193         9.06685 
        1.38675         25.5525         8.97384 
        1.39288         25.4876         8.88251 
        1.39901         25.2804         8.79251 
        1.40515         25.1894         8.70356 
         1.4113         25.0463         8.61588 
        1.41742         24.8367         8.52974 
        1.42355         24.7918         8.44464 
         1.4297         24.6358         8.36044 
        1.43585         24.5805         8.27743 
        1.44198         24.3199         8.19587 
        1.44809          24.261         8.11558 
        1.45423         24.1344         8.03607 
        1.46036         24.0604         7.95777 
        1.46649         23.9117          7.8805 
        1.47263         23.7418          7.8042 
        1.47877         23.6334         7.72895 
        1.48491         23.5108         7.65458 
        1.49104         23.4701         7.58135 
        1.49718         23.2459         7.50904 
        1.50333         23.1649         7.43756 
        1.50947         23.0892         7.36716 
         1.5156         22.8992         7.29779 
        1.52172         22.7488         7.22931 
        1.52787         22.7138         7.16159 
          1.534         22.5763         7.09481 
        1.54013         22.4142         7.02897 
        1.54627         22.3406         6.96385 
        1.55241         22.2096         6.89955 
        1.55855         22.1326         6.83615 
        1.56467          22.034         6.77373 
         1.5708         21.9526         6.71192 
        1.57695         21.7535          6.6508 
        1.58308         21.7466         6.59057 
        1.58922         21.6092         6.53106 
        1.59535         21.4943         6.47231 
         1.6015         21.3746          6.4142 
        1.60764         21.3146         6.35683 
        1.61376         21.2399         6.30033 
        1.61989         21.0322         6.24448 
        1.62604         21.0342         6.18917 
        1.63218         20.8855         6.13458 
        1.63831         20.8324         6.08078 
        1.64444         20.6742          6.0276 
        1.65059         20.6085         5.97494 
        1.65673          20.536         5.92297 
        1.66285         20.3978         5.87176 
        1.66898         20.3475         5.82115 
        1.67512         20.2579         5.77104 
        1.68127         20.1083         5.72148 
         1.6874         20.0377         5.67261 
        1.69353         20.0109         5.62435 
        1.69967         19.8505         5.57654 
        1.70581         19.7377         5.52931 
        1.71193         19.6534         5.48281 
        1.71806         19.6169         5.43675 
        1.72421         19.4996         5.39112 
        1.73035         19.4563         5.34608 
        1.73649         19.3317         5.30157 
        1.74262          19.308          5.2576 
        1.74876         19.1837          5.2141 
        1.75489         19.1161         5.17118 
        1.76101         19.0086         5.12877 
        1.76715         19.0036         5.08677 
        1.77329         18.8844          5.0452 
        1.77943         18.7703         5.00407 
        1.78557         18.7025         4.96347 
        1.79171         18.6541         4.92331 
        1.79785         18.5329         4.88359 
        1.80399         18.4744         4.84431 
        1.81012         18.3987         4.80553 
        1.81625         18.3031         4.76718 
        1.82239          18.256          4.7292 
        1.82853         18.1209         4.69166 
        1.83466         18.0783         4.65456 
        1.84078         17.9547          4.6179 
        1.84692         17.9298         4.58158 
        1.85306         17.8465         4.54561 
         1.8592         17.7817         4.51009 
        1.86533         17.7162         4.47496 
        1.87147         17.6308         4.44017 
        1.87761         17.5791         4.40574 
        1.88375         17.4609         4.37172 
        1.88988         17.4362         4.33809 
        1.89601         17.3611          4.3048 
        1.90215         17.2714         4.27184 
        1.90829         17.2264         4.23924 
        1.91442         17.1424         4.20698 
        1.92056         17.0935         4.17508 
         1.9267          17.025         4.14349 
        1.93284         16.9351          4.1122 
        1.93897         16.8448          4.0813 
        1.94509          16.807         4.05079 
        1.95123         16.7472         4.02051 
        1.95737         16.6674         3.99052 
        1.96349         16.6033         3.96091 
        1.96964         16.5475         3.93152 
        1.97578         16.4841         3.90242 
        1.98192         16.3947         3.87368 
        1.98805         16.3582         3.84522 
        1.99419         16.2782         3.81704 
        2.00033         16.2283         3.78914 
        2.00647         16.1933         3.76152 
         2.0126         16.0508         3.73422 
        2.01874         16.0192         3.70716 
        2.02488         15.9391         3.68034 
        2.03101         15.9364         3.65384 
        2.03714         15.8634         3.62762 
        2.04328         15.7785         3.60163 
        2.04941         15.7192         3.57592 
        2.05554          15.698         3.55048 
        2.06167         15.6217         3.52526 
        2.06781         15.5603         3.50028 
        2.07396          15.508          3.4755 
        2.08009         15.4441         3.45101 
        2.08622          15.373         3.42678 
        2.09237         15.3364         3.40274 
        2.09851         15.2782         3.37893 
        2.10464         15.2103         3.35539 
        2.11077         15.1614          3.3321 
        2.11691         15.0863         3.30898 
        2.12305         15.0457         3.28608 
        2.12918         15.0009         3.26345 
        2.13531         14.9389         3.24104 
        2.14145         14.8843         3.21878 
         2.1476         14.8338         3.19671 
        2.15372         14.7896         3.17496 
        2.15985         14.7238         3.15339 
        2.16599         14.6855         3.13196 
        2.17213         14.6476         3.11075 
        2.17827         14.5876         3.08975 
         2.1844         14.5341         3.06896 
        2.19054          14.452         3.04835 
        2.19666         14.4271         3.02796 
         2.2028         14.3604         3.00775 
        2.20893         14.3311          2.9877 
        2.21508         14.2675         2.96782 
        2.22122         14.1943         2.94812 
        2.22736         14.1588         2.92863 
        2.23349         14.0999         2.90933 
        2.23962         14.0822         2.89019 
        2.24577         14.0079          2.8712 
         2.2519         13.9701         2.85242 
        2.25802          13.918         2.83383 
        2.26417         13.8678         2.81535 
        2.27031         13.8362         2.79703 
        2.27644         13.7854         2.77892 
        2.28257         13.7512         2.76097 
        2.28872         13.6712         2.74315 
        2.29486         13.6537         2.72549 
        2.30099         13.6186         2.70802 
        2.30712         13.5702          2.6907 
        2.31326         13.5142          2.6735 
         2.3194         13.4296         2.65647 
        2.32553         13.4295         2.63961 
        2.33166         13.3442          2.6229 
         2.3378          13.327         2.60632 
        2.34394         13.2721         2.58987 
        2.35007         13.2022         2.57359 
        2.35619         13.1758         2.55747 
        2.36233         13.1223         2.54146 
        2.36848         13.1115         2.52554 
        2.37462         13.0544          2.5098 
        2.38075          12.992         2.49421 
        2.38689         12.9581         2.47873 
        2.39303         12.9286          2.4634 
        2.39916         12.8799          2.4482 
        2.40529         12.8517         2.43314 
        2.41143         12.7843          2.4182 
        2.41757         12.7725         2.40337 
         2.4237          12.702          2.3887 
        2.42983         12.6846         2.37415 
        2.43598         12.6415         2.35968 
        2.44211         12.5775         2.34536 
        2.44823         12.5528         2.33119 
        2.45437         12.5167          2.3171 
        2.46052         12.4725         2.30312 
        2.46665         12.4232         2.28927 
        2.47279         12.3927         2.27555 
        2.47892         12.3397         2.26192 
        2.48507         12.3005          2.2484 
         2.4912         12.2763         2.23501 
